# Kurucz ODFNEW /NOVER (2003)
# teff = 23000 K (value for the effective temperature for the model. Temperatures are given in K)
# logg = 4 log(cm/s2) (value for Log(G) for the model.)
# meta = -0.5  (value for the Metallicity for the model.)
# lh = 1.25  (l/Hp where l is the  mixing length of the convective element and Hp is the pressure scale height)
# vtur = 2 km/s (Microturbulence velocity)
# alpha = 0.4  (Alpha)
#
# column 1: WAVELENGTH (ANGSTROM), Wavelength in Angstrom
# column 2: FLUX (ERG/CM2/S/A), Flux in erg/cm2/s/A
          147.2     2.20062e-16 
            151     1.06375e-15 
          155.2     5.58642e-15 
          158.8     2.17261e-14 
            162     6.94762e-14 
            166     2.79949e-13 
          170.3     1.16989e-12 
          173.4     3.15516e-12 
          176.8     9.01936e-12 
          180.2     2.48577e-11 
          181.7     3.84376e-11 
          186.1     1.33143e-10 
            191     4.98998e-10 
          193.9      1.05873e-9 
          198.4      3.26525e-9 
          201.8      7.41058e-9 
            205      1.56519e-8 
          210.5      5.37884e-8 
          216.2      1.81375e-7 
          219.8      3.78741e-7 
            223      7.14732e-7 
          226.8        1.485e-6 
            230      5.36736e-5 
            234     0.000127716 
            240     0.000326859 
          246.5     0.000858026 
          252.4      0.00199903 
          256.8      0.00349861 
            260      0.00557849 
            264      0.00925067 
          268.5       0.0161248 
          273.5       0.0290778 
          278.5       0.0517915 
            284       0.0972417 
            290        0.182729 
            296        0.334837 
            301        0.543299 
            308         1.03431 
            318         2.60146 
            328         5.82652 
            338         12.9556 
            348         26.8838 
            357         59.0416 
            366         108.958 
            375         185.167 
            385         331.781 
            395         576.738 
            405         963.339 
            414         1513.94 
            422         2171.31 
            430         3128.95 
            441         5030.46 
            451          7612.9 
            460         10731.3 
            470         15644.9 
            480           22262 
            490         31439.1 
            500         43741.3 
            506          336993 
            512      1.52448e+6 
            520      1.84812e+6 
            530      2.44519e+6 
            540      2.68956e+6 
            550      3.84227e+6 
            560      4.53277e+6 
            570      5.62833e+6 
            580      5.62955e+6 
            590      7.49216e+6 
            600       8.8747e+6 
            610      1.06752e+7 
            620      1.20222e+7 
            630      1.37156e+7 
            640      1.44235e+7 
            650      1.41204e+7 
            658      1.85622e+7 
            665      2.06585e+7 
            675      2.22759e+7 
            685      2.43633e+7 
            695      2.93186e+7 
            705      3.13981e+7 
            716      3.57802e+7 
            726      3.84037e+7 
            735      4.15025e+7 
            745      4.68963e+7 
            755      5.12647e+7 
            765      5.58613e+7 
            775      6.12081e+7 
            785      6.65455e+7 
            795      7.05684e+7 
            805      7.56511e+7 
            815      8.01583e+7 
            825      8.74151e+7 
            835      8.64577e+7 
            845      9.65058e+7 
            855      1.02265e+8 
            865      1.09773e+8 
            875      1.17763e+8 
            885      1.27084e+8 
            895       1.3457e+8 
            905        1.375e+8 
            915      2.05688e+8 
            925      1.32534e+9 
            935      4.04561e+9 
            945     1.07046e+10 
            955     1.50477e+10 
            965     1.90471e+10 
            975      3.83207e+9 
            985     1.93796e+10 
            995     1.80902e+10 
           1005     2.02426e+10 
           1015     1.92346e+10 
           1025      6.87678e+9 
           1035     1.47748e+10 
           1045     2.29693e+10 
           1055     2.14585e+10 
           1065     1.76642e+10 
           1075     2.02861e+10 
           1085     1.83685e+10 
           1095     2.04536e+10 
           1105     1.79197e+10 
           1115     1.70931e+10 
           1125     1.49909e+10 
           1135     1.87112e+10 
           1145     1.65453e+10 
           1155     1.74459e+10 
           1165     1.75895e+10 
           1175      1.2481e+10 
           1185     1.69689e+10 
           1195     1.44403e+10 
           1205      8.48561e+9 
           1215      5.21242e+9 
           1225      1.2503e+10 
           1235      1.5351e+10 
           1245     1.54554e+10 
           1255      1.5029e+10 
           1265     1.47871e+10 
           1275     1.52328e+10 
           1285     1.49067e+10 
           1295      1.0152e+10 
           1305     1.05138e+10 
           1315     1.42141e+10 
           1325     1.33896e+10 
           1335      1.2759e+10 
           1345     1.29494e+10 
           1355     1.29291e+10 
           1365     1.19233e+10 
           1375     1.16899e+10 
           1385     1.16203e+10 
           1395      9.00383e+9 
           1405      9.69579e+9 
           1415     1.05595e+10 
           1425     1.04491e+10 
           1435     1.06115e+10 
           1442     1.08693e+10 
           1447     1.06388e+10 
           1455     1.03743e+10 
           1465      9.79446e+9 
           1475      9.75059e+9 
           1485       9.5032e+9 
           1495      9.36638e+9 
           1505      8.63125e+9 
           1512      7.92532e+9 
           1517      8.16979e+9 
           1525       8.3396e+9 
           1535      7.40628e+9 
           1545      7.46807e+9 
           1555      7.10886e+9 
           1565      7.44453e+9 
           1575      7.76049e+9 
           1585      7.62674e+9 
           1595      7.64958e+9 
           1605       7.5487e+9 
           1615      7.40712e+9 
           1625      7.28214e+9 
           1635      7.52465e+9 
           1645       7.4205e+9 
           1655      7.25105e+9 
           1665      7.36615e+9 
           1672      7.12119e+9 
           1677      7.42949e+9 
           1685      7.28759e+9 
           1695      6.96779e+9 
           1705       6.6945e+9 
           1715      6.38623e+9 
           1725      6.30139e+9 
           1735      6.44259e+9 
           1745      6.30426e+9 
           1755      6.33928e+9 
           1765      6.10524e+9 
           1775      5.90523e+9 
           1785      5.90085e+9 
           1795      6.05148e+9 
           1805      6.03491e+9 
           1815      5.53837e+9 
           1825      5.70678e+9 
           1835      5.51306e+9 
           1845      5.07873e+9 
           1855      5.04963e+9 
           1865       5.1114e+9 
           1875      5.28281e+9 
           1885      4.79062e+9 
           1895      4.47393e+9 
           1905      4.78772e+9 
           1915      4.55232e+9 
           1925      4.37095e+9 
           1935      4.55489e+9 
           1945      4.60866e+9 
           1955       4.2402e+9 
           1967      4.51802e+9 
           1976      4.69443e+9 
           1984      4.36264e+9 
           1995      4.27131e+9 
           2005      4.36535e+9 
           2015      4.31433e+9 
           2025      4.42874e+9 
           2035      4.09868e+9 
           2045      4.12923e+9 
           2055      4.00028e+9 
           2065      4.03956e+9 
           2074       4.1588e+9 
           2078      3.87811e+9 
           2085      3.99241e+9 
           2095       3.7944e+9 
           2105      3.88477e+9 
           2115      3.86884e+9 
           2125      3.91603e+9 
           2135        3.831e+9 
           2145      3.65764e+9 
           2155      3.76955e+9 
           2165      3.73625e+9 
           2175      3.67601e+9 
           2185      3.59502e+9 
           2195      3.60581e+9 
           2205      3.56349e+9 
           2215      3.51204e+9 
           2225      3.42423e+9 
           2235      3.38988e+9 
           2245      3.39563e+9 
           2255      3.30127e+9 
           2265      3.32036e+9 
           2275      3.27391e+9 
           2285      3.26105e+9 
           2295       3.1048e+9 
           2305      3.15819e+9 
           2315      3.08147e+9 
           2325      3.04687e+9 
           2335      2.94993e+9 
           2345      2.94141e+9 
           2355      2.94528e+9 
           2365      2.89571e+9 
           2375      2.85595e+9 
           2385      2.82456e+9 
           2395      2.80602e+9 
           2405      2.75459e+9 
           2415      2.71762e+9 
           2425       2.7235e+9 
           2435      2.65403e+9 
           2445      2.64516e+9 
           2455      2.63584e+9 
           2465      2.59051e+9 
           2475      2.55879e+9 
           2485      2.52866e+9 
           2495      2.36379e+9 
           2505      2.46473e+9 
           2513      2.37223e+9 
           2518      2.42723e+9 
           2525      2.39588e+9 
           2535      2.36324e+9 
           2545      2.29073e+9 
           2555      2.32217e+9 
           2565      2.28194e+9 
           2575      2.28874e+9 
           2585      2.26374e+9 
           2595      2.24129e+9 
           2605      2.22645e+9 
           2615      2.20086e+9 
           2625      2.17986e+9 
           2635      2.15423e+9 
           2645      2.14513e+9 
           2655      2.12409e+9 
           2665      2.07216e+9 
           2675      2.06728e+9 
           2685      2.05865e+9 
           2695      2.00377e+9 
           2705      1.99614e+9 
           2715      1.97814e+9 
           2725      1.94518e+9 
           2735      1.94277e+9 
           2745      1.88824e+9 
           2755      1.88131e+9 
           2765      1.86088e+9 
           2775      1.86755e+9 
           2785      1.84017e+9 
           2795      1.77248e+9 
           2805      1.79085e+9 
           2815      1.78903e+9 
           2825      1.75534e+9 
           2835      1.70927e+9 
           2845      1.72637e+9 
           2855      1.70653e+9 
           2865      1.69693e+9 
           2875      1.67754e+9 
           2885      1.66213e+9 
           2895      1.64217e+9 
           2910      1.61287e+9 
           2930       1.5786e+9 
           2950      1.53835e+9 
           2970      1.51983e+9 
           2990      1.48436e+9 
           3010      1.45081e+9 
           3030      1.43168e+9 
           3050      1.40409e+9 
           3070      1.37794e+9 
           3090      1.33744e+9 
           3110      1.32177e+9 
           3130      1.29597e+9 
           3150      1.27186e+9 
           3170      1.24529e+9 
           3190      1.21233e+9 
           3210       1.1999e+9 
           3230      1.17555e+9 
           3250      1.15514e+9 
           3270        1.134e+9 
           3290      1.11131e+9 
           3310      1.09304e+9 
           3330      1.07231e+9 
           3350      1.05112e+9 
           3370      1.03307e+9 
           3390      1.01531e+9 
           3410      9.97249e+8 
           3430      9.74317e+8 
           3450      9.53305e+8 
           3470      9.38624e+8 
           3490      9.21588e+8 
           3510      9.08761e+8 
           3530      8.95378e+8 
           3550      8.79907e+8 
           3570      8.68982e+8 
           3590      8.46699e+8 
           3610       8.3347e+8 
           3630      8.19336e+8 
           3640      8.18423e+8 
           3650      8.02379e+8 
           3670      7.93098e+8 
           3690      7.75643e+8 
           3710       7.4932e+8 
           3730      7.22406e+8 
           3750      7.67818e+8 
           3770      7.70057e+8 
           3790      8.11311e+8 
           3810      8.44962e+8 
           3830      7.38286e+8 
           3850      8.64883e+8 
           3870       8.6716e+8 
           3890      6.99753e+8 
           3910      8.58922e+8 
           3930      8.34786e+8 
           3950      8.29034e+8 
           3970      6.50682e+8 
           3990      7.96002e+8 
           4010      7.93329e+8 
           4030       7.4727e+8 
           4050      7.73211e+8 
           4070      7.46777e+8 
           4090      6.93054e+8 
           4110      6.09561e+8 
           4130      7.03967e+8 
           4150      7.00786e+8 
           4170      6.96528e+8 
           4190      6.88156e+8 
           4210      6.80082e+8 
           4230      6.67265e+8 
           4250      6.53095e+8 
           4270      6.35545e+8 
           4290      6.29714e+8 
           4310      6.14981e+8 
           4330      5.60124e+8 
           4350      5.10329e+8 
           4370      5.84755e+8 
           4390      5.68532e+8 
           4410      5.72568e+8 
           4430      5.64032e+8 
           4450      5.57356e+8 
           4470      5.26115e+8 
           4490      5.37547e+8 
           4510      5.33827e+8 
           4530      5.24497e+8 
           4550      5.16221e+8 
           4570       5.0796e+8 
           4590      5.00343e+8 
           4610      4.91863e+8 
           4630      4.84705e+8 
           4650      4.73209e+8 
           4670      4.69994e+8 
           4690      4.65104e+8 
           4710      4.48324e+8 
           4730      4.48615e+8 
           4750      4.41539e+8 
           4770      4.39103e+8 
           4790      4.32061e+8 
           4810      4.23493e+8 
           4830        4.151e+8 
           4850      3.85194e+8 
           4870      3.44104e+8 
           4890      3.97508e+8 
           4910      3.94152e+8 
           4930      3.79769e+8 
           4950      3.83564e+8 
           4970      3.79568e+8 
           4990      3.73808e+8 
           5010      3.60938e+8 
           5030      3.62913e+8 
           5050      3.53618e+8 
           5070      3.53384e+8 
           5090      3.48184e+8 
           5110      3.43083e+8 
           5130      3.37464e+8 
           5150      3.32988e+8 
           5170      3.29416e+8 
           5190       3.2498e+8 
           5210      3.18978e+8 
           5230      3.16323e+8 
           5250      3.12072e+8 
           5270      3.07632e+8 
           5290      3.03816e+8 
           5310      2.99635e+8 
           5330      2.95401e+8 
           5350      2.91012e+8 
           5370       2.8796e+8 
           5390       2.8405e+8 
           5410      2.80332e+8 
           5430      2.76086e+8 
           5450      2.72643e+8 
           5470      2.69066e+8 
           5490       2.6596e+8 
           5510      2.62556e+8 
           5530      2.59034e+8 
           5550      2.55898e+8 
           5570      2.52485e+8 
           5590       2.4944e+8 
           5610      2.45965e+8 
           5630      2.43187e+8 
           5650      2.38919e+8 
           5670      2.35795e+8 
           5690         2.33e+8 
           5710      2.30839e+8 
           5730      2.28117e+8 
           5750      2.24904e+8 
           5770      2.22612e+8 
           5790      2.19841e+8 
           5810       2.1708e+8 
           5830      2.14296e+8 
           5850      2.11787e+8 
           5870      2.02901e+8 
           5890      2.05554e+8 
           5910       2.0395e+8 
           5930      2.01451e+8 
           5950      1.98716e+8 
           5970       1.9689e+8 
           5990      1.94202e+8 
           6010      1.92182e+8 
           6030      1.89811e+8 
           6050      1.87611e+8 
           6070      1.85426e+8 
           6090      1.83194e+8 
           6110      1.81088e+8 
           6130      1.78986e+8 
           6150       1.7642e+8 
           6170      1.74694e+8 
           6190       1.7278e+8 
           6210       1.7079e+8 
           6230      1.68812e+8 
           6250      1.66682e+8 
           6270      1.64873e+8 
           6290      1.63007e+8 
           6310      1.61029e+8 
           6330      1.59336e+8 
           6350      1.56952e+8 
           6370      1.55438e+8 
           6390      1.53913e+8 
           6410      1.52157e+8 
           6430      1.50574e+8 
           6450      1.48835e+8 
           6470      1.46981e+8 
           6490      1.45441e+8 
           6510      1.43802e+8 
           6530      1.41606e+8 
           6550      1.35448e+8 
           6570      1.20058e+8 
           6590       1.3563e+8 
           6610      1.35863e+8 
           6630      1.34659e+8 
           6650      1.33253e+8 
           6670      1.30533e+8 
           6690      1.29165e+8 
           6710      1.29024e+8 
           6730      1.27551e+8 
           6750        1.263e+8 
           6770      1.24947e+8 
           6790      1.23198e+8 
           6810      1.22232e+8 
           6830      1.20904e+8 
           6850      1.19701e+8 
           6870       1.1843e+8 
           6890      1.17148e+8 
           6910      1.15903e+8 
           6930      1.14686e+8 
           6950      1.13543e+8 
           6970      1.12358e+8 
           6990      1.11176e+8 
           7010      1.10013e+8 
           7030      1.08878e+8 
           7050      1.07745e+8 
           7070      1.04906e+8 
           7090      1.05566e+8 
           7110      1.04377e+8 
           7130      1.03348e+8 
           7150      1.02335e+8 
           7170      1.01296e+8 
           7190      1.00296e+8 
           7210      9.92841e+7 
           7230      9.73302e+7 
           7250      9.72168e+7 
           7270       9.6312e+7 
           7290       9.4565e+7 
           7310      9.43796e+7 
           7330      9.34586e+7 
           7350      9.25322e+7 
           7370      9.16215e+7 
           7390      9.07123e+7 
           7410      8.98185e+7 
           7430      8.88921e+7 
           7450      8.80625e+7 
           7470      8.70785e+7 
           7490       8.6332e+7 
           7510      8.54787e+7 
           7530      8.46664e+7 
           7550      8.38682e+7 
           7570       8.3064e+7 
           7590      8.22541e+7 
           7610       8.1445e+7 
           7630      8.06886e+7 
           7650      7.99196e+7 
           7670      7.91576e+7 
           7690      7.84023e+7 
           7710      7.76539e+7 
           7730      7.69121e+7 
           7750      7.61895e+7 
           7770      7.51051e+7 
           7790      7.47634e+7 
           7810      7.40043e+7 
           7830      7.33686e+7 
           7850      7.26651e+7 
           7870        7.198e+7 
           7890      7.11858e+7 
           7910       7.0724e+7 
           7930      7.00561e+7 
           7950      6.92034e+7 
           7970      6.85956e+7 
           7990       6.7869e+7 
           8010      6.73485e+7 
           8030       6.6733e+7 
           8050      6.61286e+7 
           8070       6.5593e+7 
           8090      6.48661e+7 
           8110      6.43003e+7 
           8130      6.38532e+7 
           8150      6.31886e+7 
           8170      6.27385e+7 
           8190      6.20449e+7 
           8210      6.13014e+7 
           8230      6.08648e+7 
           8250      6.04483e+7 
           8270      5.95228e+7 
           8290      5.93182e+7 
           8310      5.88093e+7 
           8330      5.82884e+7 
           8350      5.74638e+7 
           8370      5.71249e+7 
           8390      5.67352e+7 
           8410       5.6226e+7 
           8430      5.56573e+7 
           8450      5.46713e+7 
           8470      5.45867e+7 
           8490      5.40947e+7 
           8510       5.3435e+7 
           8530      5.32572e+7 
           8550      5.18539e+7 
           8570      5.30382e+7 
