# Kurucz ODFNEW /NOVER (2003)
# teff = 6750 K (value for the effective temperature for the model. Temperatures are given in K)
# logg = 1 log(cm/s2) (value for Log(G) for the model.)
# meta = -2.5  (value for the Metallicity for the model.)
# lh = 1.25  (l/Hp where l is the  mixing length of the convective element and Hp is the pressure scale height)
# vtur = 2 km/s (Microturbulence velocity)
# alpha = 0.4  (Alpha)
#
# column 1: WAVELENGTH (ANGSTROM), Wavelength in Angstrom
# column 2: FLUX (ERG/CM2/S/A), Flux in erg/cm2/s/A
            385     4.01955e-23 
            395     3.29368e-22 
            405     2.27469e-21 
            414      1.1864e-20 
            422     4.84292e-20 
            430     1.87262e-19 
            441     1.10676e-18 
            451      5.1488e-18 
            460     1.93581e-17 
            470     7.92786e-17 
            480     3.05471e-16 
            490     1.11159e-15 
            500      3.8336e-15 
            506     7.46967e-15 
            512     1.55826e-14 
            520      3.8644e-14 
            530     1.17482e-13 
            540     3.36666e-13 
            550     9.26941e-13 
            560     2.45751e-12 
            570     6.28659e-12 
            580     1.52864e-11 
            590     3.72238e-11 
            600     8.64552e-11 
            610     1.95057e-10 
            620     4.28133e-10 
            630     9.15341e-10 
            640      1.90876e-9 
            650      3.88651e-9 
            658      6.75289e-9 
            665       1.0825e-8 
            675     4.20639e-12 
            685     7.51933e-12 
            695     1.31942e-11 
            705     2.27451e-11 
            716     4.06039e-11 
            726     6.76021e-11 
            735      1.0558e-10 
            745     1.70858e-10 
            755     2.72575e-10 
            765     4.28914e-10 
            775     6.66117e-10 
            785      1.02144e-9 
            795      1.54721e-9 
            805      2.31709e-9 
            815      3.43082e-9 
            825      5.02588e-9 
            835      7.28739e-9 
            845      1.04615e-8 
            855      1.48739e-8 
            865       2.0951e-8 
            875      2.92472e-8 
            885      4.04817e-8 
            895       5.5567e-8 
            905      7.56518e-8 
            915       0.0135991 
            925       0.0722968 
            935       0.0954121 
            945        0.149743 
            955        0.231534 
            965        0.237909 
            975        0.171192 
            985         0.53588 
            995        0.642365 
           1005        0.715992 
           1015        0.522406 
           1025        0.801669 
           1035         1.01995 
           1045         1.97482 
           1055         2.79681 
           1065         3.54301 
           1075         4.47267 
           1085         5.49433 
           1095          6.4382 
           1105         12.8388 
           1115         21.5476 
           1125         22.8319 
           1135         24.9958 
           1145         24.7045 
           1155         21.6268 
           1165         20.1465 
           1175         16.2431 
           1185         80.1549 
           1195         9.46819 
           1205         6.05092 
           1215         3.02894 
           1225         7.53722 
           1235         17.3621 
           1245         20.4541 
           1255         37.0146 
           1265         55.7905 
           1275          77.055 
           1285         106.501 
           1295         142.043 
           1305         185.971 
           1315         244.461 
           1325         313.572 
           1335         397.355 
           1345         512.378 
           1355         635.486 
           1365         795.808 
           1375          974.63 
           1385         1196.24 
           1395            1470 
           1405         1793.55 
           1415         2028.69 
           1425         2378.23 
           1435         2732.68 
           1442          3129.8 
           1447         3341.21 
           1455         3839.85 
           1465         4383.54 
           1475         5113.39 
           1485         5984.86 
           1495         7083.28 
           1505         8375.28 
           1512         9192.05 
           1517         9020.89 
           1525         9975.54 
           1535           12706 
           1545         14653.6 
           1555         15275.6 
           1565           14866 
           1575         16849.8 
           1585         18528.9 
           1595         20469.7 
           1605         22213.1 
           1615         28880.6 
           1625         45430.8 
           1635         81743.3 
           1645          160714 
           1655          156206 
           1665          331242 
           1672          264060 
           1677          436497 
           1685          528441 
           1695          580247 
           1705          626205 
           1715          748022 
           1725          782812 
           1735          894484 
           1745          903463 
           1755       1.0291e+6 
           1765          937208 
           1775      1.06632e+6 
           1785      1.11743e+6 
           1795      1.26476e+6 
           1805      1.18973e+6 
           1815       1.2821e+6 
           1825      1.20689e+6 
           1835      1.33519e+6 
           1845       1.2673e+6 
           1855      1.37487e+6 
           1865      1.44487e+6 
           1875      1.50247e+6 
           1885       1.5681e+6 
           1895      1.62136e+6 
           1905      1.56629e+6 
           1915      1.71865e+6 
           1925      1.81776e+6 
           1935      1.74589e+6 
           1945      1.95673e+6 
           1955      1.98516e+6 
           1967      2.09071e+6 
           1976      2.05714e+6 
           1984      2.09111e+6 
           1995      2.12245e+6 
           2005       2.1122e+6 
           2015      2.14501e+6 
           2025       2.0897e+6 
           2035      2.28882e+6 
           2045      2.38882e+6 
           2055       2.3411e+6 
           2065      2.37299e+6 
           2074      2.58059e+6 
           2078      2.61542e+6 
           2085      2.61201e+6 
           2095      2.59057e+6 
           2105       2.6013e+6 
           2115      2.66266e+6 
           2125      2.72526e+6 
           2135      2.44391e+6 
           2145      2.73764e+6 
           2155      2.76551e+6 
           2165       2.7098e+6 
           2175      2.76171e+6 
           2185      2.86369e+6 
           2195      3.06918e+6 
           2205      3.01359e+6 
           2215      2.84723e+6 
           2225      2.94345e+6 
           2235      3.26296e+6 
           2245      3.06129e+6 
           2255      3.00493e+6 
           2265      2.97119e+6 
           2275      3.24873e+6 
           2285      3.33854e+6 
           2295      3.19585e+6 
           2305       3.3139e+6 
           2315      3.35661e+6 
           2325      3.37477e+6 
           2335      3.28326e+6 
           2345      2.97621e+6 
           2355      3.50609e+6 
           2365      3.16156e+6 
           2375      3.46893e+6 
           2385      2.95497e+6 
           2395      3.34201e+6 
           2405      3.29168e+6 
           2415      3.40406e+6 
           2425      3.75793e+6 
           2435      3.70241e+6 
           2445      3.85784e+6 
           2455      3.82291e+6 
           2465      3.82221e+6 
           2475      3.70313e+6 
           2485      3.87746e+6 
           2495       3.8563e+6 
           2505      4.18141e+6 
           2513      3.89515e+6 
           2518      3.90418e+6 
           2525      3.72686e+6 
           2535      3.69658e+6 
           2545      3.80829e+6 
           2555      4.07279e+6 
           2565      4.09681e+6 
           2575        4.333e+6 
           2585      4.35987e+6 
           2595      4.33774e+6 
           2605      4.21418e+6 
           2615      4.17512e+6 
           2625      4.44714e+6 
           2635      4.54746e+6 
           2645      5.02762e+6 
           2655      5.05235e+6 
           2665       4.8237e+6 
           2675      4.96408e+6 
           2685      5.07647e+6 
           2695      4.91484e+6 
           2705      4.99684e+6 
           2715      4.82614e+6 
           2725      4.90082e+6 
           2735       5.1421e+6 
           2745      4.55494e+6 
           2755      4.76266e+6 
           2765      4.98678e+6 
           2775      5.25862e+6 
           2785      5.16264e+6 
           2795      3.38019e+6 
           2805      3.91054e+6 
           2815      5.50198e+6 
           2825      5.54617e+6 
           2835      5.48134e+6 
           2845      5.44939e+6 
           2855      5.23241e+6 
           2865      5.47363e+6 
           2875      5.46752e+6 
           2885      5.61933e+6 
           2895      5.61339e+6 
           2910      5.92848e+6 
           2930      5.87152e+6 
           2950      5.89001e+6 
           2970      6.01681e+6 
           2990      6.10809e+6 
           3010      6.21638e+6 
           3030      6.29134e+6 
           3050      6.31763e+6 
           3070      6.30074e+6 
           3090      6.46683e+6 
           3110      6.44001e+6 
           3130      6.48449e+6 
           3150      6.59756e+6 
           3170      6.66865e+6 
           3190      6.53939e+6 
           3210      6.68374e+6 
           3230       6.6117e+6 
           3250      6.76775e+6 
           3270      6.86561e+6 
           3290      7.00584e+6 
           3310      7.07651e+6 
           3330      7.00467e+6 
           3350      6.96156e+6 
           3370      7.05167e+6 
           3390      7.08935e+6 
           3410      7.25817e+6 
           3430      7.32683e+6 
           3450      7.32284e+6 
           3470      7.31877e+6 
           3490      7.36812e+6 
           3510      7.47521e+6 
           3530      7.54946e+6 
           3550      7.62008e+6 
           3570      7.54056e+6 
           3590      7.57487e+6 
           3610      7.63686e+6 
           3630      7.68846e+6 
           3640      7.66589e+6 
           3650      7.77467e+6 
           3670      7.81155e+6 
           3690      8.71651e+6 
           3710      1.16472e+7 
           3730      1.60216e+7 
           3750      2.21478e+7 
           3770      2.29938e+7 
           3790      2.66704e+7 
           3810      2.98454e+7 
           3830      2.44502e+7 
           3850      3.15642e+7 
           3870      3.33266e+7 
           3890      2.28127e+7 
           3910       3.2732e+7 
           3930      3.01117e+7 
           3950      3.26954e+7 
           3970      2.13906e+7 
           3990      3.19177e+7 
           4010      3.27293e+7 
           4030      3.24262e+7 
           4050      3.21366e+7 
           4070      3.13757e+7 
           4090      2.82973e+7 
           4110      2.29199e+7 
           4130      3.06562e+7 
           4150      3.07793e+7 
           4170      3.03721e+7 
           4190      3.01815e+7 
           4210      2.98083e+7 
           4230      2.93987e+7 
           4250      2.92373e+7 
           4270      2.89909e+7 
           4290      2.85452e+7 
           4310      2.76218e+7 
           4330      2.44738e+7 
           4350       2.1456e+7 
           4370      2.75057e+7 
           4390      2.72029e+7 
           4410      2.69858e+7 
           4430      2.71247e+7 
           4450       2.6714e+7 
           4470      2.65264e+7 
           4490      2.63317e+7 
           4510      2.60709e+7 
           4530      2.57733e+7 
           4550      2.53652e+7 
           4570      2.53746e+7 
           4590      2.51861e+7 
           4610       2.5179e+7 
           4630      2.48477e+7 
           4650      2.47355e+7 
           4670      2.45258e+7 
           4690      2.43153e+7 
           4710      2.39972e+7 
           4730      2.39142e+7 
           4750        2.373e+7 
           4770      2.35082e+7 
           4790      2.32992e+7 
           4810      2.30472e+7 
           4830      2.26888e+7 
           4850       2.0364e+7 
           4870      1.71488e+7 
           4890      2.19858e+7 
           4910      2.20914e+7 
           4930      2.18227e+7 
           4950      2.18035e+7 
           4970      2.16619e+7 
           4990      2.14553e+7 
           5010      2.11568e+7 
           5030      2.11214e+7 
           5050      2.09456e+7 
           5070      2.07953e+7 
           5090      2.06264e+7 
           5110      2.04667e+7 
           5130      2.02817e+7 
           5150      2.01116e+7 
           5170      1.97083e+7 
           5190      1.95847e+7 
           5210      1.96178e+7 
           5230      1.93854e+7 
           5250       1.9361e+7 
           5270       1.9076e+7 
           5290      1.90572e+7 
           5310      1.88698e+7 
           5330      1.86953e+7 
           5350      1.86282e+7 
           5370      1.84596e+7 
           5390      1.83177e+7 
           5410      1.81735e+7 
           5430      1.80297e+7 
           5450       1.7909e+7 
           5470      1.77871e+7 
           5490      1.76552e+7 
           5510      1.75236e+7 
           5530      1.73712e+7 
           5550      1.72694e+7 
           5570      1.71323e+7 
           5590      1.69942e+7 
           5610      1.68757e+7 
           5630      1.67596e+7 
           5650      1.66293e+7 
           5670      1.65052e+7 
           5690      1.63894e+7 
           5710      1.62667e+7 
           5730      1.61522e+7 
           5750       1.6032e+7 
           5770      1.59154e+7 
           5790      1.57989e+7 
           5810      1.56847e+7 
           5830      1.55707e+7 
           5850      1.54545e+7 
           5870       1.5345e+7 
           5890      1.51714e+7 
           5910       1.5125e+7 
           5930      1.50157e+7 
           5950      1.49085e+7 
           5970      1.48024e+7 
           5990      1.46953e+7 
           6010      1.45904e+7 
           6030      1.44865e+7 
           6050      1.43847e+7 
           6070       1.4284e+7 
           6090      1.41822e+7 
           6110      1.40814e+7 
           6130      1.39746e+7 
           6150      1.38689e+7 
           6170      1.37752e+7 
           6190      1.36913e+7 
           6210      1.35964e+7 
           6230      1.34985e+7 
           6250      1.33911e+7 
           6270      1.33144e+7 
           6290      1.32223e+7 
           6310      1.31282e+7 
           6330      1.30397e+7 
           6350      1.29446e+7 
           6370      1.28569e+7 
           6390      1.27729e+7 
           6410      1.26814e+7 
           6430      1.25972e+7 
           6450      1.24947e+7 
           6470       1.2423e+7 
           6490      1.23179e+7 
           6510      1.22139e+7 
           6530      1.20588e+7 
           6550      1.12837e+7 
           6570      9.23999e+6 
           6590      1.17014e+7 
           6610      1.17902e+7 
           6630      1.17501e+7 
           6650      1.16931e+7 
           6670      1.16146e+7 
           6690      1.15377e+7 
           6710      1.14607e+7 
           6730      1.13843e+7 
           6750      1.13071e+7 
           6770      1.12346e+7 
           6790      1.11595e+7 
           6810      1.10859e+7 
           6830      1.10114e+7 
           6850        1.094e+7 
           6870      1.08684e+7 
           6890      1.07967e+7 
           6910      1.07264e+7 
           6930      1.06559e+7 
           6950      1.05861e+7 
           6970      1.05169e+7 
           6990      1.04483e+7 
           7010      1.03781e+7 
           7030      1.03122e+7 
           7050      1.02462e+7 
           7070        1.018e+7 
           7090      1.01137e+7 
           7110       1.0045e+7 
           7130      9.98275e+6 
           7150      9.91814e+6 
           7170      9.85483e+6 
           7190      9.79133e+6 
           7210      9.72766e+6 
           7230      9.66599e+6 
           7250      9.60485e+6 
           7270      9.54424e+6 
           7290      9.48202e+6 
           7310      9.42174e+6 
           7330      9.36128e+6 
           7350      9.30343e+6 
           7370      9.24538e+6 
           7390      9.18575e+6 
           7410      9.12594e+6 
           7430      9.06937e+6 
           7450      9.01259e+6 
           7470      8.95494e+6 
           7490      8.89913e+6 
           7510      8.84377e+6 
           7530      8.78888e+6 
           7550      8.73445e+6 
           7570      8.67981e+6 
           7590      8.62628e+6 
           7610      8.57189e+6 
           7630      8.51925e+6 
           7650      8.46511e+6 
           7670      8.41269e+6 
           7690      8.36071e+6 
           7710      8.30788e+6 
           7730      8.25801e+6 
           7750      8.20666e+6 
           7770      8.12329e+6 
           7790      8.10708e+6 
           7810      8.05697e+6 
           7830      8.00726e+6 
           7850      7.95795e+6 
           7870      7.90843e+6 
           7890      7.85931e+6 
           7910      7.81359e+6 
           7930      7.76405e+6 
           7950      7.71728e+6 
           7970      7.67208e+6 
           7990      7.62427e+6 
           8010       7.5792e+6 
           8030      7.53331e+6 
           8050      7.48779e+6 
           8070      7.44262e+6 
           8090      7.39781e+6 
           8110      7.35335e+6 
           8130      7.30924e+6 
           8150      7.26547e+6 
           8170      7.22204e+6 
           8190      7.17389e+6 
           8210      7.14401e+6 
           8230      7.10321e+6 
           8250      7.05885e+6 
           8270      7.02255e+6 
           8290       6.9761e+6 
           8310      6.91528e+6 
           8330      6.85117e+6 
           8350      6.84162e+6 
           8370      6.70195e+6 
           8390      6.71874e+6 
           8410      6.67084e+6 
           8430       6.7866e+6 
           8450      6.73393e+6 
           8470       6.5168e+6 
           8490      6.93509e+6 
           8510      6.40262e+6 
           8530      6.98515e+6 
           8550      6.23257e+6 
           8570      7.04884e+6 
           8590      6.74802e+6 
           8610      6.55561e+6 
           8630      7.12265e+6 
           8650      7.01473e+6 
           8670      6.07076e+6 
           8690      7.04459e+6 
           8710      7.08726e+6 
           8730      6.98018e+6 
           8750      6.03456e+6 
           8770      6.80595e+6 
           8790      6.93202e+6 
           8810      6.89573e+6 
           8830       6.8423e+6 
           8850      6.58967e+6 
           8870      5.86855e+6 
           8890      6.67827e+6 
           8910      6.69103e+6 
           8930      6.66582e+6 
           8950      6.64359e+6 
           8970      6.58684e+6 
           8990       6.5007e+6 
           9010      5.73122e+6 
           9030      6.14708e+6 
           9050      6.41064e+6 
           9070      6.38378e+6 
           9090      6.33018e+6 
           9110      6.32829e+6 
           9130      6.30241e+6 
           9150      6.26634e+6 
           9170      6.22738e+6 
           9190      6.17087e+6 
           9210      6.03528e+6 
           9230      5.23441e+6 
           9250      5.92244e+6 
           9270      6.01353e+6 
           9290      6.01385e+6 
           9310      5.98283e+6 
           9330      5.94855e+6 
           9350      5.91451e+6 
           9370      5.88113e+6 
           9390      5.84714e+6 
           9410      5.78785e+6 
           9430      5.77815e+6 
           9450      5.74739e+6 
           9470      5.71558e+6 
