# Kurucz ODFNEW /NOVER (2003)
# teff = 30000 K (value for the effective temperature for the model. Temperatures are given in K)
# logg = 4.5 log(cm/s2) (value for Log(G) for the model.)
# meta = -2  (value for the Metallicity for the model.)
# lh = 1.25  (l/Hp where l is the  mixing length of the convective element and Hp is the pressure scale height)
# vtur = 2 km/s (Microturbulence velocity)
# alpha = 0  (Alpha)
#
# column 1: WAVELENGTH (ANGSTROM), Wavelength in Angstrom
# column 2: FLUX (ERG/CM2/S/A), Flux in erg/cm2/s/A
          147.2       1.3658e-8 
            151      4.64282e-8 
          155.2       1.6743e-7 
          158.8      4.76681e-7 
            162      1.16273e-6 
            166      3.37574e-6 
          170.3      1.00548e-5 
          173.4      2.13326e-5 
          176.8      4.72385e-5 
          180.2     0.000101474 
          181.7     0.000140913 
          186.1     0.000358105 
            191     0.000961191 
          193.9      0.00168459 
          198.4      0.00389109 
          201.8      0.00713916 
            205       0.0124023 
          210.5       0.0308439 
          216.2       0.0753323 
          219.8        0.129179 
            223        0.205588 
          226.8        0.350984 
            230          30.206 
            234         90.2813 
            240         169.502 
          246.5         325.323 
          252.4         573.168 
          256.8         722.425 
            260         1110.79 
            264         1511.76 
          268.5         2196.55 
          273.5         3240.98 
          278.5         4687.12 
            284         7044.99 
            290         10588.7 
            296         15594.4 
            301         20476.6 
            308         28633.6 
            318         58168.7 
            328         98454.5 
            338          164174 
            348          262542 
            357          391128 
            366          576501 
            375          810333 
            385      1.19031e+6 
            395       1.6896e+6 
            405      2.35053e+6 
            414      3.13524e+6 
            422      3.95929e+6 
            430      4.96268e+6 
            441      6.71264e+6 
            451      8.71604e+6 
            460      1.07957e+7 
            470      1.37241e+7 
            480      1.71114e+7 
            490      2.11194e+7 
            500      2.59054e+7 
            506      1.51171e+8 
            512      5.49364e+8 
            520      5.66668e+8 
            530      6.23287e+8 
            540      5.89331e+8 
            550      6.87553e+8 
            560      7.26586e+8 
            570      7.73623e+8 
            580      7.38956e+8 
            590      8.33902e+8 
            600      8.68832e+8 
            610      9.17788e+8 
            620      9.60807e+8 
            630      1.01088e+9 
            640      1.03003e+9 
            650      1.09559e+9 
            658      1.12967e+9 
            665      1.16292e+9 
            675      1.19173e+9 
            685      1.21355e+9 
            695      1.31864e+9 
            705      1.33387e+9 
            716      1.41754e+9 
            726      1.46053e+9 
            735      1.52017e+9 
            745       1.5771e+9 
            755      1.62753e+9 
            765      1.67925e+9 
            775      1.74037e+9 
            785      1.80758e+9 
            795      1.85073e+9 
            805      1.90671e+9 
            815      1.95203e+9 
            825       2.0183e+9 
            835      1.99429e+9 
            845       2.1123e+9 
            855       2.1596e+9 
            865      2.21992e+9 
            875      2.28038e+9 
            885      2.33524e+9 
            895      2.38583e+9 
            905      2.41771e+9 
            915      2.88262e+9 
            925     1.40974e+10 
            935     2.84616e+10 
            945     5.59721e+10 
            955     6.59217e+10 
            965     8.31315e+10 
            975     4.30814e+10 
            985     8.33233e+10 
            995     7.72999e+10 
           1005     8.09799e+10 
           1015     7.62217e+10 
           1025     3.95438e+10 
           1035     7.11591e+10 
           1045      7.6524e+10 
           1055     7.47146e+10 
           1065      6.9804e+10 
           1075     6.97991e+10 
           1085     6.40766e+10 
           1095     6.76088e+10 
           1105     6.49837e+10 
           1115     6.34991e+10 
           1125     5.97826e+10 
           1135     6.10324e+10 
           1145     5.86434e+10 
           1155     5.79119e+10 
           1165     5.67193e+10 
           1175     4.94002e+10 
           1185     5.33373e+10 
           1195     5.15725e+10 
           1205     4.78039e+10 
           1215     2.57648e+10 
           1225     4.62732e+10 
           1235     4.78166e+10 
           1245     4.64269e+10 
           1255     4.60607e+10 
           1265     4.51258e+10 
           1275     4.42284e+10 
           1285     4.32689e+10 
           1295     4.09387e+10 
           1305     4.05968e+10 
           1315     4.04174e+10 
           1325     3.91595e+10 
           1335     3.79028e+10 
           1345      3.7687e+10 
           1355     3.69768e+10 
           1365     3.60387e+10 
           1375     3.53072e+10 
           1385     3.45616e+10 
           1395     3.27127e+10 
           1405     3.22678e+10 
           1415     3.22781e+10 
           1425     3.14389e+10 
           1435     3.10022e+10 
           1442      3.0644e+10 
           1447     3.02922e+10 
           1455     2.97412e+10 
           1465     2.91171e+10 
           1475     2.85055e+10 
           1485     2.79742e+10 
           1495     2.73585e+10 
           1505     2.66901e+10 
           1512      2.6343e+10 
           1517     2.60813e+10 
           1525      2.5601e+10 
           1535     2.46114e+10 
           1545     2.38882e+10 
           1555      2.3381e+10 
           1565     2.33323e+10 
           1575     2.30734e+10 
           1585     2.27172e+10 
           1595     2.22866e+10 
           1605      2.1533e+10 
           1615     2.10765e+10 
           1625     2.07951e+10 
           1635     2.03484e+10 
           1645     1.94168e+10 
           1655     1.98431e+10 
           1665     1.94981e+10 
           1672     1.91533e+10 
           1677     1.92241e+10 
           1685     1.88881e+10 
           1695     1.85085e+10 
           1705     1.81145e+10 
           1715     1.76592e+10 
           1725      1.7355e+10 
           1735     1.72144e+10 
           1745     1.68766e+10 
           1755     1.65735e+10 
           1765     1.62169e+10 
           1775     1.59761e+10 
           1785     1.57444e+10 
           1795     1.54771e+10 
           1805     1.52437e+10 
           1815     1.49355e+10 
           1825     1.46818e+10 
           1835      1.4445e+10 
           1845     1.40531e+10 
           1855     1.36951e+10 
           1865     1.35421e+10 
           1875     1.34323e+10 
           1885     1.30463e+10 
           1895     1.27086e+10 
           1905     1.27043e+10 
           1915     1.23418e+10 
           1925      1.2096e+10 
           1935     1.20226e+10 
           1945     1.19222e+10 
           1955     1.15216e+10 
           1967     1.14837e+10 
           1976     1.13909e+10 
           1984     1.11461e+10 
           1995     1.08352e+10 
           2005     1.08332e+10 
           2015     1.06991e+10 
           2025     1.05523e+10 
           2035     1.03397e+10 
           2045     1.01749e+10 
           2055      9.38116e+9 
           2065      9.14917e+9 
           2074       9.1654e+9 
           2078      9.04465e+9 
           2085       9.1374e+9 
           2095      9.20059e+9 
           2105      9.26642e+9 
           2115      9.16974e+9 
           2125      9.03942e+9 
           2135      8.89626e+9 
           2145      8.75865e+9 
           2155      8.64997e+9 
           2165      8.49148e+9 
           2175      8.40083e+9 
           2185      8.23968e+9 
           2195       8.1593e+9 
           2205      8.03897e+9 
           2215      7.87978e+9 
           2225      7.80226e+9 
           2235      7.68584e+9 
           2245       7.5779e+9 
           2255       7.4249e+9 
           2265      7.36022e+9 
           2275      7.25453e+9 
           2285      7.14925e+9 
           2295      6.95562e+9 
           2305      6.90923e+9 
           2315      6.84699e+9 
           2325       6.7508e+9 
           2335      6.65406e+9 
           2345       6.5642e+9 
           2355       6.4723e+9 
           2365      6.38212e+9 
           2375      6.29209e+9 
           2385      6.17241e+9 
           2395      6.11782e+9 
           2405      6.03572e+9 
           2415      5.95264e+9 
           2425      5.87264e+9 
           2435      5.79102e+9 
           2445      5.71368e+9 
           2455      5.63742e+9 
           2465      5.56201e+9 
           2475       5.4872e+9 
           2485      5.41433e+9 
           2495      5.21615e+9 
           2505      5.26843e+9 
           2513      5.14719e+9 
           2518      5.17495e+9 
           2525      5.13348e+9 
           2535       5.0665e+9 
           2545      4.99338e+9 
           2555      4.93261e+9 
           2565      4.87126e+9 
           2575      4.80844e+9 
           2585       4.7469e+9 
           2595      4.68616e+9 
           2605      4.64887e+9 
           2615      4.58947e+9 
           2625      4.53117e+9 
           2635      4.47036e+9 
           2645      4.41202e+9 
           2655      4.35228e+9 
           2665      4.28992e+9 
           2675      4.23164e+9 
           2685      4.20054e+9 
           2695      4.12036e+9 
           2705      4.09597e+9 
           2715      4.04546e+9 
           2725      3.96738e+9 
           2735      3.93167e+9 
           2745      3.89832e+9 
           2755      3.85141e+9 
           2765      3.77443e+9 
           2775      3.75901e+9 
           2785      3.71327e+9 
           2795      3.65921e+9 
           2805      3.62263e+9 
           2815      3.58168e+9 
           2825      3.50435e+9 
           2835      3.47644e+9 
           2845      3.45576e+9 
           2855      3.41459e+9 
           2865      3.37445e+9 
           2875      3.33502e+9 
           2885      3.29628e+9 
           2895      3.25773e+9 
           2910      3.20101e+9 
           2930      3.12766e+9 
           2950      3.03444e+9 
           2970      2.98705e+9 
           2990      2.91954e+9 
           3010      2.85371e+9 
           3030      2.79085e+9 
           3050      2.72922e+9 
           3070      2.66935e+9 
           3090      2.60899e+9 
           3110        2.554e+9 
           3130      2.50043e+9 
           3150      2.44672e+9 
           3170      2.39386e+9 
           3190      2.32336e+9 
           3210      2.28953e+9 
           3230      2.24404e+9 
           3250      2.19693e+9 
           3270      2.15336e+9 
           3290      2.10607e+9 
           3310       2.0656e+9 
           3330      2.02326e+9 
           3350       1.9787e+9 
           3370      1.94205e+9 
           3390      1.90307e+9 
           3410      1.86503e+9 
           3430       1.8201e+9 
           3450      1.77792e+9 
           3470      1.74778e+9 
           3490      1.71339e+9 
           3510      1.68276e+9 
           3530      1.65308e+9 
           3550      1.62123e+9 
           3570      1.59951e+9 
           3590      1.55783e+9 
           3610      1.53339e+9 
           3630      1.49941e+9 
           3640      1.49653e+9 
           3650      1.46651e+9 
           3670      1.44478e+9 
           3690      1.41707e+9 
           3710         1.37e+9 
           3730      1.31839e+9 
           3750      1.32274e+9 
           3770      1.29872e+9 
           3790      1.34603e+9 
           3810      1.39264e+9 
           3830       1.2283e+9 
           3850      1.41456e+9 
           3870      1.42533e+9 
           3890      1.15692e+9 
           3910      1.39378e+9 
           3930      1.37682e+9 
           3950      1.34686e+9 
           3970      1.07221e+9 
           3990      1.29067e+9 
           4010      1.28249e+9 
           4030       1.2111e+9 
           4050      1.24995e+9 
           4070      1.22205e+9 
           4090      1.12797e+9 
           4110      9.94518e+8 
           4130      1.14594e+9 
           4150      1.13427e+9 
           4170      1.12376e+9 
           4190      1.10613e+9 
           4210       1.0868e+9 
           4230      1.06893e+9 
           4250      1.05027e+9 
           4270      1.03112e+9 
           4290      1.01367e+9 
           4310      9.90897e+8 
           4330      9.01632e+8 
           4350      8.26844e+8 
           4370      9.39649e+8 
           4390      9.06945e+8 
           4410      9.16346e+8 
           4430      8.98895e+8 
           4450      8.87219e+8 
           4470      8.35819e+8 
           4490       8.5784e+8 
           4510      8.44729e+8 
           4530      8.31063e+8 
           4550      8.16749e+8 
           4570      8.04385e+8 
           4590      7.91471e+8 
           4610      7.78999e+8 
           4630       7.6666e+8 
           4650      7.52901e+8 
           4670      7.42562e+8 
           4690      7.27868e+8 
           4710      7.11119e+8 
           4730      7.08587e+8 
           4750      6.97507e+8 
           4770      6.87001e+8 
           4790      6.76448e+8 
           4810      6.65119e+8 
           4830      6.51371e+8 
           4850      6.02975e+8 
           4870      5.42628e+8 
           4890      6.20076e+8 
           4910      6.14957e+8 
           4930      5.93314e+8 
           4950      5.98846e+8 
           4970      5.90162e+8 
           4990      5.81432e+8 
           5010      5.66203e+8 
           5030      5.64478e+8 
           5050      5.53324e+8 
           5070      5.48161e+8 
           5090      5.40198e+8 
           5110        5.324e+8 
           5130      5.24735e+8 
           5150      5.17187e+8 
           5170      5.09811e+8 
           5190       5.0256e+8 
           5210      4.95434e+8 
           5230      4.88429e+8 
           5250      4.81558e+8 
           5270       4.7479e+8 
           5290       4.6815e+8 
           5310      4.61624e+8 
           5330      4.55222e+8 
           5350      4.48916e+8 
           5370      4.42731e+8 
           5390      4.36637e+8 
           5410      4.30287e+8 
           5430      4.24772e+8 
           5450      4.18997e+8 
           5470       4.1332e+8 
           5490      4.07739e+8 
           5510       4.0224e+8 
           5530      3.96848e+8 
           5550      3.91547e+8 
           5570      3.86323e+8 
           5590      3.81189e+8 
           5610      3.76142e+8 
           5630       3.7118e+8 
           5650      3.66303e+8 
           5670      3.61473e+8 
           5690      3.56668e+8 
           5710      3.52128e+8 
           5730      3.47552e+8 
           5750      3.43019e+8 
           5770      3.38642e+8 
           5790      3.34295e+8 
           5810      3.30011e+8 
           5830      3.25778e+8 
           5850       3.2165e+8 
           5870        3.082e+8 
           5890      3.13006e+8 
           5910      3.09597e+8 
           5930      3.05691e+8 
           5950      3.01862e+8 
           5970       2.9812e+8 
           5990        2.944e+8 
           6010      2.90755e+8 
           6030      2.87151e+8 
           6050      2.83619e+8 
           6070      2.80137e+8 
           6090      2.76706e+8 
           6110      2.73323e+8 
           6130      2.69988e+8 
           6150      2.66711e+8 
           6170      2.63481e+8 
           6190      2.60306e+8 
           6210      2.57176e+8 
           6230      2.54091e+8 
           6250       2.5105e+8 
           6270      2.48062e+8 
           6290      2.45106e+8 
           6310      2.42202e+8 
           6330      2.39338e+8 
           6350      2.36516e+8 
           6370      2.33742e+8 
           6390      2.30999e+8 
           6410      2.28304e+8 
           6430      2.25646e+8 
           6450      2.23027e+8 
           6470      2.20435e+8 
           6490      2.17889e+8 
           6510      2.15263e+8 
           6530      2.11923e+8 
           6550       2.0279e+8 
           6570      1.81379e+8 
           6590      2.03649e+8 
           6610      2.02996e+8 
           6630      2.01079e+8 
           6650      1.98901e+8 
           6670      1.94686e+8 
           6690      1.92539e+8 
           6710      1.92297e+8 
           6730      1.90141e+8 
           6750       1.8804e+8 
           6770      1.85953e+8 
           6790      1.83878e+8 
           6810      1.81866e+8 
           6830      1.79865e+8 
           6850      1.77893e+8 
           6870      1.75949e+8 
           6890      1.74024e+8 
           6910      1.72127e+8 
           6930      1.70264e+8 
           6950      1.68428e+8 
           6970      1.66609e+8 
           6990      1.64809e+8 
           7010      1.63042e+8 
           7030        1.613e+8 
           7050      1.59583e+8 
           7070       1.5544e+8 
           7090      1.56206e+8 
           7110      1.54553e+8 
           7130      1.52917e+8 
           7150      1.51311e+8 
           7170      1.49698e+8 
           7190      1.48153e+8 
           7210        1.466e+8 
           7230      1.44997e+8 
           7250       1.4356e+8 
           7270      1.42073e+8 
           7290      1.39494e+8 
           7310      1.39141e+8 
           7330      1.37723e+8 
           7350      1.36312e+8 
           7370      1.34915e+8 
           7390      1.33537e+8 
           7410      1.32179e+8 
           7430      1.30834e+8 
           7450      1.29528e+8 
           7470      1.28214e+8 
           7490      1.26926e+8 
           7510       1.2561e+8 
           7530      1.24385e+8 
           7550      1.23139e+8 
           7570      1.21911e+8 
           7590        1.207e+8 
           7610        1.195e+8 
           7630      1.18318e+8 
           7650      1.17147e+8 
           7670      1.15992e+8 
           7690      1.14855e+8 
           7710      1.13727e+8 
           7730      1.12616e+8 
           7750      1.11515e+8 
           7770       1.1043e+8 
           7790      1.09355e+8 
           7810      1.08239e+8 
           7830      1.07251e+8 
           7850      1.06308e+8 
           7870      1.05281e+8 
           7890      1.04228e+8 
           7910       1.0328e+8 
           7930      1.02293e+8 
           7950       1.0132e+8 
           7970      1.00248e+8 
           7990      9.93457e+7 
           8010        9.831e+7 
           8030      9.73535e+7 
           8050      9.64518e+7 
           8070      9.55925e+7 
           8090      9.45218e+7 
           8110      9.37641e+7 
           8130      9.29556e+7 
           8150      9.19895e+7 
           8170      9.12575e+7 
           8190        9.029e+7 
           8210      8.92247e+7 
           8230       8.8608e+7 
           8250      8.78302e+7 
           8270      8.66568e+7 
           8290      8.61788e+7 
           8310      8.54263e+7 
           8330      8.46039e+7 
           8350      8.34751e+7 
           8370      8.29745e+7 
           8390      8.23278e+7 
           8410      8.15852e+7 
           8430      8.08009e+7 
           8450      7.95694e+7 
           8470      7.93306e+7 
           8490      7.84503e+7 
           8510      7.78063e+7 
           8530      7.70277e+7 
           8550      7.59823e+7 
           8570      7.62026e+7 
           8590      7.38111e+7 
