# Kurucz ODFNEW /NOVER (2003)
# teff = 19000 K (value for the effective temperature for the model. Temperatures are given in K)
# logg = 3 log(cm/s2) (value for Log(G) for the model.)
# meta = 0  (value for the Metallicity for the model.)
# lh = 1.25  (l/Hp where l is the  mixing length of the convective element and Hp is the pressure scale height)
# vtur = 2 km/s (Microturbulence velocity)
# alpha = 0  (Alpha)
#
# column 1: WAVELENGTH (ANGSTROM), Wavelength in Angstrom
# column 2: FLUX (ERG/CM2/S/A), Flux in erg/cm2/s/A
          147.2     6.16615e-22 
            151     4.22183e-21 
          155.2     3.12869e-20 
          158.8     1.60791e-19 
            162     6.51396e-19 
            166     3.48402e-18 
          170.3      1.9443e-17 
          173.4     6.40204e-17 
          176.8     2.25894e-16 
          180.2     7.62171e-16 
          181.7     1.28532e-15 
          186.1     5.69447e-15 
            191     2.76808e-14 
          193.9     6.80438e-14 
          198.4     2.61368e-13 
          201.8     6.95497e-13 
            205     1.69795e-12 
          210.5     7.40089e-12 
          216.2     3.14932e-11 
          219.8     7.56671e-11 
            223     1.61096e-10 
          226.8     3.84572e-10 
            230       4.2908e-9 
            234      1.16041e-8 
            240       3.7707e-8 
          246.5      1.26103e-7 
          252.4      3.60374e-7 
          256.8      7.43905e-7 
            260       1.2957e-6 
            264      2.45704e-6 
          268.5      4.92529e-6 
          273.5      1.03633e-5 
          278.5      2.13427e-5 
            284      4.61547e-5 
            290     0.000102384 
            296     0.000219581 
            301     0.000405167 
            308     0.000915494 
            318      0.00284618 
            328      0.00798848 
            338       0.0215524 
            348       0.0541776 
            357        0.124979 
            366        0.265496 
            375        0.530756 
            385         1.11432 
            395         2.24816 
            405         4.36618 
            414          7.7383 
            422         12.4878 
            430         19.8841 
            441         36.7158 
            451         62.1989 
            460         97.5366 
            470         158.387 
            480         250.352 
            490           389.8 
            500         594.208 
            506          4243.2 
            512         42749.7 
            520         55440.8 
            530         82042.3 
            540         94037.7 
            550          152572 
            560          190419 
            570          253658 
            580          248312 
            590          356329 
            600          472827 
            610          608255 
            620          716962 
            630          856397 
            640          937133 
            650          956135 
            658       1.3385e+6 
            665      1.48281e+6 
            675       1.6517e+6 
            685      1.84549e+6 
            695       2.3335e+6 
            705      2.58824e+6 
            716      3.03158e+6 
            726      3.36692e+6 
            735      3.69327e+6 
            745      4.35527e+6 
            755      4.92714e+6 
            765        5.558e+6 
            775      6.27016e+6 
            785      6.99201e+6 
            795      7.61595e+6 
            805       8.3261e+6 
            815      9.02143e+6 
            825      1.01463e+7 
            835      1.01727e+7 
            845      1.15885e+7 
            855       1.2526e+7 
            865      1.37989e+7 
            875      1.52537e+7 
            885       1.6973e+7 
            895      1.83689e+7 
            905       1.8634e+7 
            915      4.07442e+7 
            925      5.48434e+8 
            935      1.55165e+9 
            945      3.09791e+9 
            955      4.27692e+9 
            965      4.43147e+9 
            975      6.51829e+8 
            985      3.36295e+9 
            995      3.98905e+9 
           1005      5.32779e+9 
           1015      5.37326e+9 
           1025      2.85882e+9 
           1035      3.32694e+9 
           1045      6.83548e+9 
           1055      6.39038e+9 
           1065      4.89352e+9 
           1075      6.20338e+9 
           1085      5.09336e+9 
           1095      6.36782e+9 
           1105      5.39382e+9 
           1115       4.8866e+9 
           1125      4.23187e+9 
           1135      6.11961e+9 
           1145      5.46491e+9 
           1155      5.81096e+9 
           1165      5.92841e+9 
           1175      3.70856e+9 
           1185      5.98512e+9 
           1195      4.42623e+9 
           1205      1.87347e+9 
           1215      2.05016e+9 
           1225      4.87435e+9 
           1235      6.11842e+9 
           1245      6.15056e+9 
           1255      6.02279e+9 
           1265      5.68923e+9 
           1275      6.07842e+9 
           1285      6.09575e+9 
           1295      3.44937e+9 
           1305      3.63053e+9 
           1315      5.83364e+9 
           1325      5.42576e+9 
           1335      4.63665e+9 
           1345      5.58547e+9 
           1355      5.41428e+9 
           1365      4.75758e+9 
           1375      4.78966e+9 
           1385      4.77023e+9 
           1395      3.68574e+9 
           1405      4.03118e+9 
           1415      4.20866e+9 
           1425      4.35777e+9 
           1435        4.463e+9 
           1442      4.62595e+9 
           1447      4.52081e+9 
           1455      4.40361e+9 
           1465      4.03757e+9 
           1475       4.1276e+9 
           1485      4.09133e+9 
           1495      4.02211e+9 
           1505      3.68343e+9 
           1512       3.2165e+9 
           1517      3.39112e+9 
           1525      3.53545e+9 
           1535      3.03801e+9 
           1545      3.07662e+9 
           1555      2.96629e+9 
           1565      3.13446e+9 
           1575      3.33747e+9 
           1585      3.39611e+9 
           1595      3.38639e+9 
           1605      3.41832e+9 
           1615      3.42046e+9 
           1625      3.27748e+9 
           1635      3.51725e+9 
           1645      3.49787e+9 
           1655      3.34171e+9 
           1665      3.56546e+9 
           1672      3.40657e+9 
           1677      3.55949e+9 
           1685      3.58389e+9 
           1695        3.339e+9 
           1705      3.22038e+9 
           1715      3.00413e+9 
           1725       3.0013e+9 
           1735       3.1912e+9 
           1745      3.06095e+9 
           1755      3.15521e+9 
           1765      3.00842e+9 
           1775      2.90096e+9 
           1785      2.97129e+9 
           1795      3.12711e+9 
           1805      3.16795e+9 
           1815      2.73322e+9 
           1825      2.91407e+9 
           1835      2.78383e+9 
           1845      2.53593e+9 
           1855      2.39951e+9 
           1865      2.48292e+9 
           1875      2.78752e+9 
           1885      2.44122e+9 
           1895       2.2506e+9 
           1905       2.5229e+9 
           1915      2.29814e+9 
           1925      2.21882e+9 
           1935      2.38158e+9 
           1945      2.41273e+9 
           1955       2.1823e+9 
           1967      2.43442e+9 
           1976       2.5218e+9 
           1984      2.33775e+9 
           1995      2.27608e+9 
           2005      2.40824e+9 
           2015       2.3304e+9 
           2025      2.46031e+9 
           2035      2.21195e+9 
           2045      2.29225e+9 
           2055      2.21005e+9 
           2065      2.20098e+9 
           2074      2.38335e+9 
           2078      2.07895e+9 
           2085      2.24709e+9 
           2095      2.10706e+9 
           2105      2.16931e+9 
           2115      2.18927e+9 
           2125      2.21201e+9 
           2135      2.15861e+9 
           2145      2.05059e+9 
           2155      2.16237e+9 
           2165      2.15249e+9 
           2175      2.13202e+9 
           2185      2.03656e+9 
           2195      2.09913e+9 
           2205       2.0734e+9 
           2215      2.01586e+9 
           2225      1.95456e+9 
           2235      1.98206e+9 
           2245      1.98843e+9 
           2255      1.89949e+9 
           2265      1.95443e+9 
           2275      1.94209e+9 
           2285      1.95695e+9 
           2295      1.82749e+9 
           2305      1.87641e+9 
           2315      1.80217e+9 
           2325      1.77318e+9 
           2335      1.69549e+9 
           2345      1.69901e+9 
           2355      1.72251e+9 
           2365      1.68366e+9 
           2375      1.67539e+9 
           2385      1.63746e+9 
           2395      1.66881e+9 
           2405      1.60409e+9 
           2415      1.61751e+9 
           2425      1.62854e+9 
           2435      1.56214e+9 
           2445      1.59514e+9 
           2455       1.5948e+9 
           2465       1.5559e+9 
           2475       1.5262e+9 
           2485      1.53968e+9 
           2495      1.43955e+9 
           2505      1.51418e+9 
           2513      1.42843e+9 
           2518      1.49062e+9 
           2525      1.44219e+9 
           2535      1.42573e+9 
           2545      1.37721e+9 
           2555      1.42318e+9 
           2565      1.40128e+9 
           2575      1.42638e+9 
           2585      1.41289e+9 
           2595      1.40258e+9 
           2605         1.39e+9 
           2615      1.37349e+9 
           2625      1.36294e+9 
           2635      1.35663e+9 
           2645      1.36804e+9 
           2655      1.36545e+9 
           2665      1.31469e+9 
           2675      1.32973e+9 
           2685      1.31885e+9 
           2695      1.27972e+9 
           2705      1.27049e+9 
           2715      1.25941e+9 
           2725      1.24531e+9 
           2735      1.25365e+9 
           2745      1.19883e+9 
           2755      1.19799e+9 
           2765      1.19678e+9 
           2775      1.21096e+9 
           2785      1.19412e+9 
           2795         1.15e+9 
           2805      1.16988e+9 
           2815      1.16933e+9 
           2825      1.15422e+9 
           2835      1.10456e+9 
           2845      1.11082e+9 
           2855      1.10513e+9 
           2865      1.11598e+9 
           2875      1.09961e+9 
           2885      1.09259e+9 
           2895       1.0784e+9 
           2910      1.06691e+9 
           2930      1.04489e+9 
           2950      1.01735e+9 
           2970      1.00776e+9 
           2990      9.86902e+8 
           3010      9.64558e+8 
           3030      9.61345e+8 
           3050      9.43231e+8 
           3070      9.26984e+8 
           3090      9.02673e+8 
           3110      8.91334e+8 
           3130      8.76404e+8 
           3150      8.61741e+8 
           3170      8.41754e+8 
           3190      8.22051e+8 
           3210      8.14801e+8 
           3230      8.00842e+8 
           3250       7.8827e+8 
           3270      7.74076e+8 
           3290      7.60169e+8 
           3310      7.49085e+8 
           3330      7.35562e+8 
           3350       7.2177e+8 
           3370      7.10375e+8 
           3390      6.99297e+8 
           3410      6.88073e+8 
           3430      6.72739e+8 
           3450      6.59455e+8 
           3470      6.50091e+8 
           3490      6.39847e+8 
           3510      6.32148e+8 
           3530      6.23614e+8 
           3550      6.13529e+8 
           3570      6.05669e+8 
           3590      5.90608e+8 
           3610      5.80353e+8 
           3630      5.73604e+8 
           3640       5.7276e+8 
           3650      5.61453e+8 
           3670      5.54679e+8 
           3690       5.3507e+8 
           3710      5.37829e+8 
           3730      5.43666e+8 
           3750      6.10295e+8 
           3770       6.1155e+8 
           3790       6.2793e+8 
           3810      6.51798e+8 
           3830      5.79108e+8 
           3850      6.54972e+8 
           3870      6.43591e+8 
           3890      5.55904e+8 
           3910      6.38918e+8 
           3930      6.14479e+8 
           3950      6.16168e+8 
           3970      5.16228e+8 
           3990      5.94339e+8 
           4010      5.87324e+8 
           4030      5.61259e+8 
           4050      5.71003e+8 
           4070      5.52964e+8 
           4090       5.3149e+8 
           4110      4.76105e+8 
           4130      5.23961e+8 
           4150      5.19557e+8 
           4170      5.15712e+8 
           4190      5.11573e+8 
           4210      5.05874e+8 
           4230      4.95943e+8 
           4250      4.86343e+8 
           4270      4.72748e+8 
           4290      4.70745e+8 
           4310      4.60647e+8 
           4330        4.344e+8 
           4350       3.9848e+8 
           4370      4.38419e+8 
           4390      4.30738e+8 
           4410      4.29591e+8 
           4430      4.22304e+8 
           4450      4.18992e+8 
           4470      4.02166e+8 
           4490       4.0444e+8 
           4510      4.02084e+8 
           4530      3.94539e+8 
           4550      3.89586e+8 
           4570      3.83892e+8 
           4590      3.78426e+8 
           4610      3.71144e+8 
           4630      3.65466e+8 
           4650      3.58322e+8 
           4670      3.56175e+8 
           4690      3.52904e+8 
           4710       3.4059e+8 
           4730      3.38996e+8 
           4750      3.34244e+8 
           4770      3.34063e+8 
           4790      3.28389e+8 
           4810      3.21984e+8 
           4830      3.17708e+8 
           4850      3.04154e+8 
           4870        2.738e+8 
           4890      3.05406e+8 
           4910      3.01751e+8 
           4930      2.92162e+8 
           4950      2.93342e+8 
           4970      2.90407e+8 
           4990      2.85784e+8 
           5010      2.74711e+8 
           5030      2.77326e+8 
           5050      2.70244e+8 
           5070       2.7049e+8 
           5090       2.6674e+8 
           5110       2.6255e+8 
           5130      2.57185e+8 
           5150      2.54439e+8 
           5170      2.53024e+8 
           5190      2.49721e+8 
           5210      2.44393e+8 
           5230      2.43092e+8 
           5250      2.40082e+8 
           5270      2.36608e+8 
           5290      2.34149e+8 
           5310      2.30839e+8 
           5330      2.27717e+8 
           5350      2.24228e+8 
           5370       2.2243e+8 
           5390      2.19499e+8 
           5410      2.16746e+8 
           5430      2.13223e+8 
           5450      2.10799e+8 
           5470      2.08089e+8 
           5490      2.05888e+8 
           5510      2.03379e+8 
           5530      2.00678e+8 
           5550      1.98562e+8 
           5570      1.95876e+8 
           5590      1.93693e+8 
           5610      1.90962e+8 
           5630      1.89132e+8 
           5650      1.85069e+8 
           5670      1.82746e+8 
           5690      1.80859e+8 
           5710      1.79629e+8 
           5730      1.77551e+8 
           5750      1.75224e+8 
           5770       1.7357e+8 
           5790      1.71429e+8 
           5810       1.6938e+8 
           5830      1.67134e+8 
           5850      1.65344e+8 
           5870      1.59397e+8 
           5890      1.60119e+8 
           5910      1.59286e+8 
           5930      1.57313e+8 
           5950      1.55065e+8 
           5970      1.54102e+8 
           5990      1.51846e+8 
           6010      1.50524e+8 
           6030      1.48616e+8 
           6050      1.46997e+8 
           6070      1.45406e+8 
           6090       1.4366e+8 
           6110      1.42106e+8 
           6130      1.40548e+8 
           6150      1.38241e+8 
           6170      1.37158e+8 
           6190      1.35772e+8 
           6210      1.34264e+8 
           6230      1.32753e+8 
           6250       1.3094e+8 
           6270      1.29704e+8 
           6290       1.2828e+8 
           6310      1.26702e+8 
           6330      1.25527e+8 
           6350      1.23495e+8 
           6370      1.22377e+8 
           6390      1.21289e+8 
           6410      1.19983e+8 
           6430      1.18837e+8 
           6450      1.17449e+8 
           6470      1.15959e+8 
           6490      1.14781e+8 
           6510      1.13596e+8 
           6530      1.12204e+8 
           6550       1.0892e+8 
           6570      9.71653e+7 
           6590      1.07498e+8 
           6610      1.07616e+8 
           6630      1.06582e+8 
           6650      1.05507e+8 
           6670      1.03614e+8 
           6690      1.02549e+8 
           6710       1.0224e+8 
           6730      1.01076e+8 
           6750      1.00139e+8 
           6770      9.91041e+7 
           6790      9.73935e+7 
           6810      9.69116e+7 
           6830      9.59411e+7 
           6850      9.50284e+7 
           6870      9.40528e+7 
           6890      9.30711e+7 
           6910      9.20992e+7 
           6930      9.10977e+7 
           6950        9.027e+7 
           6970       8.9365e+7 
           6990      8.84225e+7 
           7010      8.75277e+7 
           7030      8.66492e+7 
           7050      8.57035e+7 
           7070      8.35688e+7 
           7090      8.40947e+7 
           7110      8.27578e+7 
           7130      8.20126e+7 
           7150      8.15618e+7 
           7170      8.07556e+7 
           7190      7.99936e+7 
           7210      7.92026e+7 
           7230      7.73236e+7 
           7250      7.75713e+7 
           7270      7.68885e+7 
           7290      7.55527e+7 
           7310      7.53796e+7 
           7330      7.46533e+7 
           7350      7.39477e+7 
           7370      7.32348e+7 
           7390      7.25285e+7 
           7410      7.18288e+7 
           7430      7.10809e+7 
           7450      7.04418e+7 
           7470      6.96601e+7 
           7490      6.90871e+7 
           7510      6.84057e+7 
           7530      6.77704e+7 
           7550      6.71672e+7 
           7570      6.65433e+7 
           7590      6.58922e+7 
           7610      6.52861e+7 
           7630      6.46745e+7 
           7650       6.4076e+7 
           7670      6.34791e+7 
           7690      6.28799e+7 
           7710      6.22968e+7 
           7730      6.17125e+7 
           7750      6.11473e+7 
           7770      6.01733e+7 
           7790      6.00361e+7 
           7810      5.94381e+7 
           7830       5.8945e+7 
           7850      5.83485e+7 
           7870       5.7823e+7 
           7890      5.71653e+7 
           7910      5.67881e+7 
           7930       5.6227e+7 
           7950         5.56e+7 
           7970       5.5154e+7 
           7990      5.45525e+7 
           8010      5.41923e+7 
           8030      5.37299e+7 
           8050      5.32819e+7 
           8070      5.28411e+7 
           8090      5.22711e+7 
           8110      5.18142e+7 
           8130       5.1469e+7 
           8150      5.09172e+7 
           8170      5.06005e+7 
           8190       5.0056e+7 
           8210      4.93955e+7 
           8230      4.90317e+7 
           8250        4.874e+7 
           8270      4.80275e+7 
           8290      4.78136e+7 
           8310      4.74119e+7 
           8330      4.70162e+7 
           8350      4.63925e+7 
           8370      4.60006e+7 
           8390      4.56905e+7 
           8410      4.52439e+7 
           8430      4.48312e+7 
           8450      4.41085e+7 
           8470      4.36547e+7 
           8490      4.40216e+7 
           8510      4.26554e+7 
           8530      4.36169e+7 
           8550      4.12224e+7 
           8570      4.36518e+7 
           8590      4.12718e+7 
