# Kurucz ODFNEW /NOVER (2003)
# teff = 10000 K (value for the effective temperature for the model. Temperatures are given in K)
# logg = 5 log(cm/s2) (value for Log(G) for the model.)
# meta = 0.2  (value for the Metallicity for the model.)
# lh = 1.25  (l/Hp where l is the  mixing length of the convective element and Hp is the pressure scale height)
# vtur = 2 km/s (Microturbulence velocity)
# alpha = 0  (Alpha)
#
# column 1: WAVELENGTH (ANGSTROM), Wavelength in Angstrom
# column 2: FLUX (ERG/CM2/S/A), Flux in erg/cm2/s/A
            264     1.31674e-23 
          268.5     7.49255e-23 
          273.5     3.10823e-22 
          278.5     1.17047e-21 
            284     4.71472e-21 
            290     2.03308e-20 
            296     8.30029e-20 
            301     2.58493e-19 
            308     1.20123e-18 
            318     9.66635e-18 
            328     6.94077e-17 
            338     4.48867e-16 
            348     2.62476e-15 
            357     1.19218e-14 
            366      5.0608e-14 
            375      2.0059e-13 
            385     8.63205e-13 
            395     3.46608e-12 
            405     1.30069e-11 
            414     4.05136e-11 
            422     1.07076e-10 
            430     2.72716e-10 
            441     9.33237e-10 
            451      2.71359e-9 
            460      6.80962e-9 
            470      1.81424e-8 
            480       4.6393e-8 
            490      1.14083e-7 
            500      2.70236e-7 
            506      4.66902e-7 
            512      7.86946e-7 
            520      1.46888e-6 
            530      3.12233e-6 
            540      6.44497e-6 
            550      1.29769e-5 
            560      2.54376e-5 
            570       4.8678e-5 
            580      9.09761e-5 
            590     0.000166536 
            600     0.000298338 
            610     0.000524141 
            620      0.00090319 
            630       0.0015278 
            640      0.00254154 
            650      0.00415829 
            658      0.00609395 
            665      0.00844637 
            675       0.0132997 
            685        0.020646 
            695       0.0316179 
            705       0.0477952 
            716        0.074228 
            726        0.109379 
            735        0.153551 
            745        0.221514 
            755        0.316208 
            765         0.44681 
            775        0.625322 
            785        0.866956 
            795         1.19118 
            805         1.62255 
            815         2.19189 
            825          2.9374 
            835         3.90608 
            845         5.15568 
            855         6.75616 
            865         8.79308 
            875         11.3674 
            885         14.6016 
            895         18.6393 
            905         23.6504 
            915         204.338 
            925         1372.45 
            935         2206.92 
            945         3422.49 
            955         4767.64 
            965         6147.58 
            975         5608.39 
            985         8302.82 
            995         9094.55 
           1005         11304.6 
           1015         12977.5 
           1025         10752.3 
           1035         16714.7 
           1045         19647.4 
           1055         22423.5 
           1065         24720.4 
           1075         29012.4 
           1085         32871.9 
           1095         35827.8 
           1105         58587.8 
           1115          144574 
           1125          213990 
           1135          325253 
           1145          340027 
           1155          383500 
           1165          425686 
           1175          390475 
           1185          358319 
           1195          203351 
           1205          206391 
           1215         52601.4 
           1225          214993 
           1235          416021 
           1245          657103 
           1255      2.53493e+6 
           1265      4.92928e+6 
           1275      1.26363e+7 
           1285      2.73668e+7 
           1295      3.32559e+7 
           1305      1.64411e+7 
           1315      3.84371e+7 
           1325      4.77686e+7 
           1335      4.72734e+7 
           1345      6.16482e+7 
           1355      5.55135e+7 
           1365      5.15752e+7 
           1375      5.69769e+7 
           1385      4.63394e+7 
           1395      5.06565e+7 
           1405      5.98866e+7 
           1415      6.43096e+7 
           1425      7.52615e+7 
           1435      6.27728e+7 
           1442      7.92135e+7 
           1447      8.45577e+7 
           1455       8.5773e+7 
           1465      7.71863e+7 
           1475      7.61242e+7 
           1485      8.09723e+7 
           1495      9.17659e+7 
           1505      9.32948e+7 
           1512      8.05451e+7 
           1517      9.28724e+7 
           1525      8.70683e+7 
           1535       9.0715e+7 
           1545       1.1729e+8 
           1555      7.62597e+7 
           1565      6.50487e+7 
           1575      9.94558e+7 
           1585      1.24719e+8 
           1595       1.3756e+8 
           1605      1.36603e+8 
           1615      1.33414e+8 
           1625      1.09314e+8 
           1635      1.14486e+8 
           1645      1.45915e+8 
           1655      1.04218e+8 
           1665      1.40053e+8 
           1672      9.32194e+7 
           1677      1.33534e+8 
           1685       1.5348e+8 
           1695      1.23242e+8 
           1705      1.24914e+8 
           1715      1.29431e+8 
           1725      1.26985e+8 
           1735      1.39204e+8 
           1745      1.35028e+8 
           1755      1.51877e+8 
           1765      1.20438e+8 
           1775      1.44516e+8 
           1785      1.43398e+8 
           1795      1.59705e+8 
           1805      1.46713e+8 
           1815      1.46439e+8 
           1825      1.38662e+8 
           1835      1.33083e+8 
           1845      1.19924e+8 
           1855      1.29933e+8 
           1865       1.3293e+8 
           1875       1.3771e+8 
           1885      1.36199e+8 
           1895      1.37199e+8 
           1905      1.27697e+8 
           1915      1.36753e+8 
           1925      1.37521e+8 
           1935      1.26978e+8 
           1945      1.40234e+8 
           1955      1.38015e+8 
           1967      1.44106e+8 
           1976      1.41079e+8 
           1984      1.36134e+8 
           1995      1.31381e+8 
           2005      1.27459e+8 
           2015      1.22263e+8 
           2025      1.20526e+8 
           2035      1.26531e+8 
           2045      1.32656e+8 
           2055      1.25855e+8 
           2065      1.23411e+8 
           2074      1.30374e+8 
           2078      1.34392e+8 
           2085      1.31515e+8 
           2095      1.26091e+8 
           2105      1.20874e+8 
           2115      1.21191e+8 
           2125       1.2384e+8 
           2135      1.04343e+8 
           2145      1.17718e+8 
           2155      1.17983e+8 
           2165      1.10851e+8 
           2175      1.09014e+8 
           2185      1.10749e+8 
           2195      1.16771e+8 
           2205      1.11461e+8 
           2215      1.01473e+8 
           2225      1.00144e+8 
           2235      1.12192e+8 
           2245      1.00132e+8 
           2255      9.70379e+7 
           2265      9.75782e+7 
           2275      1.03477e+8 
           2285      1.07271e+8 
           2295      1.00065e+8 
           2305      9.80853e+7 
           2315      9.48075e+7 
           2325      9.37986e+7 
           2335      8.85402e+7 
           2345      8.12647e+7 
           2355      9.37947e+7 
           2365       8.2085e+7 
           2375      8.69588e+7 
           2385      7.62436e+7 
           2395      8.42974e+7 
           2405      7.99309e+7 
           2415      8.19122e+7 
           2425      8.78493e+7 
           2435       8.3317e+7 
           2445      8.92917e+7 
           2455      8.59217e+7 
           2465      8.59638e+7 
           2475      8.17589e+7 
           2485      8.57448e+7 
           2495        8.216e+7 
           2505      9.19816e+7 
           2513      8.15181e+7 
           2518      8.28346e+7 
           2525      7.70639e+7 
           2535      7.58767e+7 
           2545      7.47523e+7 
           2555      8.02047e+7 
           2565      8.01417e+7 
           2575      8.65771e+7 
           2585      8.69966e+7 
           2595      8.53316e+7 
           2605        8.158e+7 
           2615      8.02796e+7 
           2625      8.58472e+7 
           2635       8.5875e+7 
           2645      9.53505e+7 
           2655      9.40778e+7 
           2665       8.5215e+7 
           2675      8.94858e+7 
           2685      8.89825e+7 
           2695      8.48014e+7 
           2705      8.68992e+7 
           2715      8.21665e+7 
           2725      8.29344e+7 
           2735      8.90827e+7 
           2745      7.57706e+7 
           2755      7.67156e+7 
           2765      7.91774e+7 
           2775      8.46154e+7 
           2785      8.15171e+7 
           2795      5.87806e+7 
           2805      6.77038e+7 
           2815      8.61832e+7 
           2825      8.77125e+7 
           2835      8.40856e+7 
           2845       8.0661e+7 
           2855      7.78692e+7 
           2865      8.36098e+7 
           2875      8.11195e+7 
           2885       8.2622e+7 
           2895      7.93597e+7 
           2910      8.73479e+7 
           2930      8.33422e+7 
           2950      8.30558e+7 
           2970       8.3991e+7 
           2990      8.40426e+7 
           3010      8.49212e+7 
           3030      8.36971e+7 
           3050      8.27975e+7 
           3070        8.191e+7 
           3090       8.2388e+7 
           3110       8.0319e+7 
           3130      7.99342e+7 
           3150      8.06271e+7 
           3170      7.98491e+7 
           3190      7.66187e+7 
           3210      7.78459e+7 
           3230      7.59496e+7 
           3250      7.66656e+7 
           3270      7.68052e+7 
           3290      7.69914e+7 
           3310      7.69647e+7 
           3330      7.52378e+7 
           3350      7.39494e+7 
           3370      7.36681e+7 
           3390      7.29358e+7 
           3410      7.36055e+7 
           3430      7.31499e+7 
           3450      7.24276e+7 
           3470      7.14825e+7 
           3490      7.10491e+7 
           3510      7.14007e+7 
           3530      7.10867e+7 
           3550      7.09008e+7 
           3570       6.9408e+7 
           3590      6.88765e+7 
           3610      6.84537e+7 
           3630      6.81389e+7 
           3640      6.76939e+7 
           3650      6.86215e+7 
           3670      6.83706e+7 
           3690      6.69979e+7 
           3710      6.51854e+7 
           3730      6.15287e+7 
           3750        6.841e+7 
           3770      7.06654e+7 
           3790      8.50914e+7 
           3810      1.00239e+8 
           3830      8.00437e+7 
           3850      1.12428e+8 
           3870      1.31133e+8 
           3890      7.01446e+7 
           3910      1.32557e+8 
           3930       1.4268e+8 
           3950      1.32771e+8 
           3970      6.72505e+7 
           3990      1.25782e+8 
           4010      1.53807e+8 
           4030      1.56536e+8 
           4050      1.53852e+8 
           4070      1.40856e+8 
           4090      9.79428e+7 
           4110        7.413e+7 
           4130      1.29271e+8 
           4150      1.43714e+8 
           4170      1.45136e+8 
           4190      1.44009e+8 
           4210      1.42784e+8 
           4230      1.39433e+8 
           4250      1.37863e+8 
           4270      1.33072e+8 
           4290       1.3094e+8 
           4310      1.17097e+8 
           4330      8.00542e+7 
           4350      6.81488e+7 
           4370       1.1199e+8 
           4390      1.20703e+8 
           4410      1.22278e+8 
           4430      1.20999e+8 
           4450      1.22247e+8 
           4470      1.20631e+8 
           4490      1.17279e+8 
           4510       1.1821e+8 
           4530      1.16082e+8 
           4550      1.13622e+8 
           4570      1.14066e+8 
           4590      1.11666e+8 
           4610      1.11859e+8 
           4630      1.08935e+8 
           4650      1.08857e+8 
           4670      1.07336e+8 
           4690      1.04069e+8 
           4710      1.00321e+8 
           4730       1.0293e+8 
           4750       1.0154e+8 
           4770      9.97866e+7 
           4790      9.76826e+7 
           4810      9.38709e+7 
           4830      8.56103e+7 
           4850      6.18494e+7 
           4870       5.0441e+7 
           4890      7.88841e+7 
           4910      8.73203e+7 
           4930      8.81788e+7 
           4950      8.89037e+7 
           4970      8.87768e+7 
           4990       8.7419e+7 
           5010      8.53221e+7 
           5030       8.5312e+7 
           5050      8.36036e+7 
           5070      8.38554e+7 
           5090      8.28822e+7 
           5110      8.19389e+7 
           5130       8.0919e+7 
           5150      7.96043e+7 
           5170      7.77014e+7 
           5190      7.70673e+7 
           5210      7.69181e+7 
           5230      7.54316e+7 
           5250      7.55195e+7 
           5270      7.32952e+7 
           5290      7.37692e+7 
           5310      7.23648e+7 
           5330      7.12087e+7 
           5350      7.13315e+7 
           5370      7.03204e+7 
           5390      6.95738e+7 
           5410      6.83743e+7 
           5430      6.79866e+7 
           5450      6.74505e+7 
           5470      6.66685e+7 
           5490      6.59937e+7 
           5510      6.52946e+7 
           5530      6.44252e+7 
           5550      6.39018e+7 
           5570      6.31487e+7 
           5590      6.24553e+7 
           5610      6.18982e+7 
           5630      6.12929e+7 
           5650      6.05517e+7 
           5670      5.98487e+7 
           5690      5.92926e+7 
           5710      5.86792e+7 
           5730      5.81429e+7 
           5750      5.74121e+7 
           5770      5.68474e+7 
           5790      5.62148e+7 
           5810      5.56566e+7 
           5830      5.50969e+7 
           5850      5.45084e+7 
           5870      5.38763e+7 
           5890       5.2917e+7 
           5910      5.28032e+7 
           5930      5.22795e+7 
           5950      5.16296e+7 
           5970      5.11637e+7 
           5990      5.05381e+7 
           6010      5.00104e+7 
           6030      4.96056e+7 
           6050      4.90744e+7 
           6070      4.86329e+7 
           6090      4.81302e+7 
           6110      4.76158e+7 
           6130       4.7077e+7 
           6150      4.60601e+7 
           6170      4.60589e+7 
           6190      4.57657e+7 
           6210      4.52955e+7 
           6230      4.48023e+7 
           6250      4.40994e+7 
           6270      4.39776e+7 
           6290       4.3546e+7 
           6310      4.30301e+7 
           6330      4.26514e+7 
           6350      4.17759e+7 
           6370      4.15251e+7 
           6390        4.132e+7 
           6410       4.0815e+7 
           6430      4.04394e+7 
           6450      3.96783e+7 
           6470      3.94441e+7 
           6490      3.86826e+7 
           6510      3.77351e+7 
           6530      3.55862e+7 
           6550      2.96352e+7 
           6570      2.42045e+7 
           6590      3.28618e+7 
           6610      3.54836e+7 
           6630      3.60952e+7 
           6650       3.6117e+7 
           6670      3.59295e+7 
           6690      3.57091e+7 
           6710      3.54363e+7 
           6730      3.50879e+7 
           6750      3.48017e+7 
           6770      3.45644e+7 
           6790      3.42458e+7 
           6810      3.39345e+7 
           6830      3.35907e+7 
           6850      3.33017e+7 
           6870      3.30099e+7 
           6890      3.27138e+7 
           6910      3.24103e+7 
           6930      3.21019e+7 
           6950      3.18215e+7 
           6970      3.15298e+7 
           6990      3.12594e+7 
           7010      3.08674e+7 
           7030      3.06684e+7 
           7050      3.03938e+7 
           7070      3.01467e+7 
           7090      2.98884e+7 
           7110      2.93069e+7 
           7130      2.92902e+7 
           7150      2.90337e+7 
           7170      2.88111e+7 
           7190      2.85556e+7 
           7210      2.83148e+7 
           7230      2.80596e+7 
           7250      2.77624e+7 
           7270      2.75856e+7 
           7290      2.73104e+7 
           7310      2.70907e+7 
           7330      2.68624e+7 
           7350      2.66488e+7 
           7370      2.64218e+7 
           7390      2.61734e+7 
           7410      2.59198e+7 
           7430      2.56071e+7 
           7450      2.54488e+7 
           7470      2.51385e+7 
           7490      2.49964e+7 
           7510      2.48327e+7 
           7530      2.46438e+7 
           7550      2.44573e+7 
           7570      2.42447e+7 
           7590      2.40458e+7 
           7610      2.38461e+7 
           7630      2.36391e+7 
           7650      2.34294e+7 
           7670      2.32106e+7 
           7690      2.30283e+7 
           7710      2.28399e+7 
           7730      2.26714e+7 
           7750      2.24761e+7 
           7770      2.18189e+7 
           7790      2.21174e+7 
           7810      2.19363e+7 
           7830      2.17273e+7 
           7850       2.1511e+7 
           7870      2.12631e+7 
           7890      2.10386e+7 
           7910      2.09763e+7 
           7930      2.08425e+7 
           7950      2.05667e+7 
           7970      2.05455e+7 
           7990      2.01388e+7 
           8010      2.02022e+7 
           8030      2.00287e+7 
           8050      1.98822e+7 
           8070      1.97132e+7 
           8090      1.95594e+7 
           8110      1.94104e+7 
           8130      1.92671e+7 
           8150      1.91148e+7 
           8170      1.89655e+7 
           8190      1.86736e+7 
           8210       1.8576e+7 
           8230      1.84046e+7 
           8250      1.83254e+7 
           8270      1.83295e+7 
           8290      1.81742e+7 
           8310       1.8053e+7 
           8330      1.78231e+7 
           8350       1.7794e+7 
           8370      1.76774e+7 
           8390      1.75365e+7 
           8410      1.74063e+7 
           8430      1.72549e+7 
           8450      1.68952e+7 
           8470      1.69484e+7 
           8490      1.68342e+7 
           8510      1.64336e+7 
           8530      1.65819e+7 
           8550      1.57474e+7 
           8570      1.64295e+7 
           8590      1.57818e+7 
           8610      1.55749e+7 
           8630      1.62115e+7 
           8650      1.55953e+7 
           8670      1.40124e+7 
           8690      1.56047e+7 
           8710      1.61057e+7 
           8730      1.53494e+7 
           8750      1.29401e+7 
           8770      1.46062e+7 
           8790      1.58904e+7 
           8810      1.60504e+7 
           8830      1.54303e+7 
           8850      1.35487e+7 
           8870      1.19401e+7 
           8890      1.45034e+7 
           8910      1.55066e+7 
           8930      1.57854e+7 
           8950      1.58156e+7 
           8970      1.52989e+7 
           8990      1.40931e+7 
           9010      1.13826e+7 
           9030      1.21921e+7 
           9050      1.41828e+7 
           9070      1.47299e+7 
           9090      1.48516e+7 
           9110      1.51451e+7 
           9130      1.51308e+7 
           9150      1.49792e+7 
           9170      1.45936e+7 
