# Kurucz ODFNEW /NOVER (2003)
# teff = 7250 K (value for the effective temperature for the model. Temperatures are given in K)
# logg = 0.5 log(cm/s2) (value for Log(G) for the model.)
# meta = -0.5  (value for the Metallicity for the model.)
# lh = 1.25  (l/Hp where l is the  mixing length of the convective element and Hp is the pressure scale height)
# vtur = 2 km/s (Microturbulence velocity)
# alpha = 0  (Alpha)
#
# column 1: WAVELENGTH (ANGSTROM), Wavelength in Angstrom
# column 2: FLUX (ERG/CM2/S/A), Flux in erg/cm2/s/A
            405     3.85606e-23 
            414     2.36154e-22 
            422     1.04474e-21 
            430     4.34186e-21 
            441     2.81964e-20 
            451     1.37943e-20 
            460     5.17398e-20 
            470     2.11115e-19 
            480     8.09102e-19 
            490      2.9266e-18 
            500     1.00115e-17 
            506      2.3017e-16 
            512     6.60682e-16 
            520      1.7205e-15 
            530     5.54325e-15 
            540     1.24804e-15 
            550     3.39692e-15 
            560     8.84029e-15 
            570      2.2184e-14 
            580     5.31845e-14 
            590     1.26201e-13 
            600      2.8711e-13 
            610     6.34537e-13 
            620     1.36334e-12 
            630     2.85266e-12 
            640     5.82266e-12 
            650     1.16059e-11 
            658     1.98204e-11 
            665     3.12782e-11 
            675     5.89885e-11 
            685      1.0899e-10 
            695     1.97511e-10 
            705     3.50803e-10 
            716     6.48182e-10 
            726      1.11137e-9 
            735      1.78077e-9 
            745      2.96266e-9 
            755      4.85596e-9 
            765      7.84583e-9 
            775      1.25032e-8 
            785      1.96647e-8 
            795       3.0397e-8 
            805      4.67539e-8 
            815      7.09361e-8 
            825      1.06306e-7 
            835      1.57597e-7 
            845      2.31195e-7 
            855      3.35721e-7 
            865      4.82789e-7 
            875      6.86958e-7 
            885      9.70701e-7 
            895      1.35839e-6 
            905      1.88055e-6 
            915      0.00279231 
            925      0.00905824 
            935       0.0118527 
            945       0.0165031 
            955       0.0239328 
            965       0.0319657 
            975       0.0404936 
            985       0.0545199 
            995       0.0683271 
           1005       0.0950976 
           1015        0.121778 
           1025        0.152768 
           1035        0.198612 
           1045        0.256839 
           1055         0.32573 
           1065        0.398809 
           1075        0.507511 
           1085        0.634973 
           1095         0.76777 
           1105         2.45033 
           1115         8.13352 
           1125         11.7633 
           1135         15.7786 
           1145         18.9332 
           1155         19.6206 
           1165         23.9227 
           1175         24.0949 
           1185          32.041 
           1195         8.93371 
           1205          6.3908 
           1215         1.75109 
           1225         7.79932 
           1235         21.0955 
           1245         47.8803 
           1255         100.799 
           1265         124.845 
           1275         227.242 
           1285         375.811 
           1295         528.806 
           1305         461.116 
           1315         845.363 
           1325         1136.55 
           1335         1304.71 
           1345         1860.17 
           1355         2066.03 
           1365         2378.99 
           1375          2779.3 
           1385         3334.59 
           1395         4045.63 
           1405         4724.13 
           1415          4960.9 
           1425         5949.94 
           1435         6164.41 
           1442         7337.42 
           1447         8183.01 
           1455          9461.9 
           1465         9801.49 
           1475           11152 
           1485         12873.8 
           1495         15211.1 
           1505         17146.4 
           1512         17436.2 
           1517         19312.1 
           1525         20626.3 
           1535         81086.6 
           1545          260031 
           1555          218666 
           1565          165690 
           1575          323632 
           1585          400164 
           1595          609247 
           1605          484757 
           1615          435686 
           1625          375442 
           1635          441750 
           1645          637176 
           1655          315671 
           1665          522119 
           1672          116305 
           1677          773277 
           1685      1.28379e+6 
           1695      1.38955e+6 
           1705       1.1376e+6 
           1715      1.56444e+6 
           1725      1.76791e+6 
           1735      2.20965e+6 
           1745      1.91345e+6 
           1755      2.55868e+6 
           1765      2.04024e+6 
           1775      2.61626e+6 
           1785      2.23953e+6 
           1795        3.335e+6 
           1805      2.73271e+6 
           1815      3.18963e+6 
           1825      2.67529e+6 
           1835      2.51688e+6 
           1845      2.38398e+6 
           1855       2.7435e+6 
           1865      3.03054e+6 
           1875      2.95683e+6 
           1885      3.12985e+6 
           1895      3.44625e+6 
           1905      3.09385e+6 
           1915        3.362e+6 
           1925      3.44987e+6 
           1935      2.61833e+6 
           1945      3.84773e+6 
           1955      3.96076e+6 
           1967      4.31014e+6 
           1976      4.24462e+6 
           1984      4.13131e+6 
           1995      4.04442e+6 
           2005      3.84102e+6 
           2015      3.53354e+6 
           2025      3.35771e+6 
           2035      3.98697e+6 
           2045      4.43893e+6 
           2055      3.87334e+6 
           2065      3.67186e+6 
           2074      4.81873e+6 
           2078       5.0738e+6 
           2085       4.8435e+6 
           2095      4.59137e+6 
           2105      4.27723e+6 
           2115      4.35596e+6 
           2125      4.50786e+6 
           2135       3.3866e+6 
           2145      4.22105e+6 
           2155        4.416e+6 
           2165      3.91412e+6 
           2175      3.98492e+6 
           2185        4.178e+6 
           2195      4.73928e+6 
           2205       4.4909e+6 
           2215      3.74255e+6 
           2225      3.62185e+6 
           2235      4.73036e+6 
           2245      4.17951e+6 
           2255      3.57813e+6 
           2265      3.58714e+6 
           2275      4.28073e+6 
           2285      4.51919e+6 
           2295      4.12362e+6 
           2305      4.36779e+6 
           2315      4.10315e+6 
           2325      3.87411e+6 
           2335      2.63099e+6 
           2345      2.02751e+6 
           2355      3.50528e+6 
           2365      2.02023e+6 
           2375      2.87158e+6 
           2385       1.5464e+6 
           2395      2.14136e+6 
           2405      2.02608e+6 
           2415      2.70405e+6 
           2425      4.31015e+6 
           2435        4.202e+6 
           2445      4.54065e+6 
           2455      4.49011e+6 
           2465      4.33824e+6 
           2475      4.09569e+6 
           2485      4.28224e+6 
           2495      4.14443e+6 
           2505      5.26843e+6 
           2513      4.08533e+6 
           2518      4.51654e+6 
           2525      3.75475e+6 
           2535      3.64716e+6 
           2545        3.735e+6 
           2555      4.33012e+6 
           2565      3.82717e+6 
           2575       4.4026e+6 
           2585      3.95147e+6 
           2595      3.52706e+6 
           2605      3.05541e+6 
           2615      2.85816e+6 
           2625      3.73732e+6 
           2635       4.6072e+6 
           2645      6.65413e+6 
           2655      6.68907e+6 
           2665      5.55953e+6 
           2675      6.04978e+6 
           2685      5.95255e+6 
           2695        5.674e+6 
           2705      5.96164e+6 
           2715      5.16856e+6 
           2725      5.26514e+6 
           2735      5.69056e+6 
           2745      3.39135e+6 
           2755      4.09884e+6 
           2765      4.71782e+6 
           2775      5.68913e+6 
           2785      4.65536e+6 
           2795      1.72479e+6 
           2805      2.24926e+6 
           2815      5.54286e+6 
           2825      6.70885e+6 
           2835      6.42067e+6 
           2845      6.22714e+6 
           2855      5.70616e+6 
           2865      6.67933e+6 
           2875       6.4365e+6 
           2885       6.6744e+6 
           2895      6.29843e+6 
           2910      7.57053e+6 
           2930      7.22442e+6 
           2950      7.17615e+6 
           2970      7.66451e+6 
           2990      7.83285e+6 
           3010      8.16321e+6 
           3030      8.11982e+6 
           3050      8.11613e+6 
           3070      8.14384e+6 
           3090      8.54734e+6 
           3110      8.23133e+6 
           3130      8.19646e+6 
           3150      8.66715e+6 
           3170      8.66535e+6 
           3190      8.10464e+6 
           3210      8.58748e+6 
           3230      8.25397e+6 
           3250      8.69982e+6 
           3270       8.8636e+6 
           3290      9.05235e+6 
           3310      9.30055e+6 
           3330      9.08317e+6 
           3350      8.96396e+6 
           3370      8.91626e+6 
           3390       9.0923e+6 
           3410      9.42561e+6 
           3430      9.62309e+6 
           3450      9.57673e+6 
           3470      9.41972e+6 
           3490      9.33743e+6 
           3510      9.73495e+6 
           3530      9.89131e+6 
           3550       1.0144e+7 
           3570      9.74006e+6 
           3590      9.79641e+6 
           3610      9.89341e+6 
           3630      1.00729e+7 
           3640      9.88255e+6 
           3650      1.02928e+7 
           3670      1.03683e+7 
           3690      1.17641e+7 
           3710      1.63585e+7 
           3730      2.69242e+7 
           3750      3.83279e+7 
           3770      3.88024e+7 
           3790      4.43396e+7 
           3810      4.82899e+7 
           3830      3.96841e+7 
           3850      4.88674e+7 
           3870      5.01949e+7 
           3890       3.9276e+7 
           3910      4.78351e+7 
           3930      3.39949e+7 
           3950      4.67601e+7 
           3970      3.19198e+7 
           3990      4.83096e+7 
           4010      4.84544e+7 
           4030       4.7629e+7 
           4050      4.73688e+7 
           4070      4.64677e+7 
           4090       4.6163e+7 
           4110      3.77151e+7 
           4130      4.56442e+7 
           4150      4.61481e+7 
           4170      4.45474e+7 
           4190      4.44601e+7 
           4210      4.40705e+7 
           4230      4.34337e+7 
           4250      4.32824e+7 
           4270      4.24275e+7 
           4290      4.24361e+7 
           4310      4.02646e+7 
           4330       3.8718e+7 
           4350      3.40545e+7 
           4370      4.13286e+7 
           4390      4.01553e+7 
           4410      3.91449e+7 
           4430      3.96984e+7 
           4450      3.95782e+7 
           4470      3.92022e+7 
           4490      3.89117e+7 
           4510      3.92341e+7 
           4530      3.79375e+7 
           4550      3.69987e+7 
           4570      3.80988e+7 
           4590      3.67787e+7 
           4610      3.78802e+7 
           4630      3.66275e+7 
           4650       3.7017e+7 
           4670      3.66246e+7 
           4690      3.60149e+7 
           4710      3.48572e+7 
           4730      3.56744e+7 
           4750      3.57185e+7 
           4770      3.50322e+7 
           4790      3.47156e+7 
           4810       3.4351e+7 
           4830      3.38394e+7 
           4850      3.10721e+7 
           4870       2.5566e+7 
           4890      3.26769e+7 
           4910      3.26504e+7 
           4930      3.18481e+7 
           4950      3.21125e+7 
           4970       3.2181e+7 
           4990      3.12124e+7 
           5010      3.02073e+7 
           5030      3.06882e+7 
           5050      3.03791e+7 
           5070      3.04184e+7 
           5090      3.00693e+7 
           5110      2.97998e+7 
           5130      2.91098e+7 
           5150      2.87222e+7 
           5170      2.80297e+7 
           5190      2.77595e+7 
           5210      2.77994e+7 
           5230      2.73764e+7 
           5250      2.76863e+7 
           5270      2.65284e+7 
           5290       2.7187e+7 
           5310      2.65618e+7 
           5330        2.614e+7 
           5350      2.66438e+7 
           5370      2.62328e+7 
           5390      2.59114e+7 
           5410      2.55258e+7 
           5430      2.52768e+7 
           5450      2.54087e+7 
           5470      2.51615e+7 
           5490      2.50223e+7 
           5510      2.47107e+7 
           5530      2.44276e+7 
           5550      2.44854e+7 
           5570      2.41654e+7 
           5590      2.39446e+7 
           5610      2.37909e+7 
           5630      2.36376e+7 
           5650      2.32452e+7 
           5670      2.30241e+7 
           5690      2.30056e+7 
           5710      2.28158e+7 
           5730      2.26867e+7 
           5750      2.24528e+7 
           5770      2.22748e+7 
           5790      2.20414e+7 
           5810      2.18642e+7 
           5830      2.16679e+7 
           5850       2.1487e+7 
           5870      2.13124e+7 
           5890      2.08562e+7 
           5910      2.09332e+7 
           5930      2.07472e+7 
           5950      2.05505e+7 
           5970       2.0412e+7 
           5990      2.01552e+7 
           6010      2.00014e+7 
           6030      1.98648e+7 
           6050      1.96925e+7 
           6070      1.95589e+7 
           6090      1.93514e+7 
           6110      1.91553e+7 
           6130      1.89363e+7 
           6150      1.85573e+7 
           6170      1.86223e+7 
           6190      1.85621e+7 
           6210        1.843e+7 
           6230      1.81954e+7 
           6250      1.77291e+7 
           6270      1.79784e+7 
           6290      1.78214e+7 
           6310      1.75468e+7 
           6330      1.74906e+7 
           6350      1.72601e+7 
           6370      1.71185e+7 
           6390      1.70594e+7 
           6410       1.6833e+7 
           6430      1.67531e+7 
           6450      1.64746e+7 
           6470      1.65367e+7 
           6490      1.62024e+7 
           6510      1.61456e+7 
           6530      1.60186e+7 
           6550      1.48663e+7 
           6570      1.17658e+7 
           6590      1.54637e+7 
           6610      1.55246e+7 
           6630      1.55005e+7 
           6650      1.53989e+7 
           6670      1.52618e+7 
           6690       1.5158e+7 
           6710      1.50402e+7 
           6730       1.4916e+7 
           6750      1.47881e+7 
           6770      1.47049e+7 
           6790      1.45718e+7 
           6810      1.44742e+7 
           6830      1.43257e+7 
           6850      1.42326e+7 
           6870      1.41379e+7 
           6890      1.40305e+7 
           6910      1.39202e+7 
           6930      1.38086e+7 
           6950      1.37058e+7 
           6970      1.35955e+7 
           6990      1.34985e+7 
           7010      1.33388e+7 
           7030      1.32798e+7 
           7050      1.31879e+7 
           7070      1.30923e+7 
           7090      1.29968e+7 
           7110      1.27501e+7 
           7130      1.27632e+7 
           7150      1.26816e+7 
           7170      1.25933e+7 
           7190      1.24724e+7 
           7210       1.2383e+7 
           7230      1.22677e+7 
           7250      1.22109e+7 
           7270      1.21338e+7 
           7290       1.2012e+7 
           7310      1.18886e+7 
           7330      1.18329e+7 
           7350      1.17595e+7 
           7370      1.17034e+7 
           7390       1.1596e+7 
           7410      1.14827e+7 
           7430      1.13875e+7 
           7450      1.13156e+7 
           7470      1.11863e+7 
           7490       1.1138e+7 
           7510      1.10654e+7 
           7530      1.10167e+7 
           7550      1.09623e+7 
           7570      1.08631e+7 
           7590         1.08e+7 
           7610      1.07251e+7 
           7630      1.06476e+7 
           7650      1.05476e+7 
           7670      1.04677e+7 
           7690      1.04114e+7 
           7710      1.02928e+7 
           7730      1.02692e+7 
           7750      1.01937e+7 
           7770      9.92541e+6 
           7790      1.00601e+7 
           7810      9.98644e+6 
           7830        9.898e+6 
           7850      9.80606e+6 
           7870       9.7356e+6 
           7890       9.6506e+6 
           7910      9.61451e+6 
           7930       9.5511e+6 
           7950      9.46614e+6 
           7970      9.44538e+6 
           7990      9.31613e+6 
           8010      9.30431e+6 
           8030      9.23523e+6 
           8050       9.1801e+6 
           8070      9.11209e+6 
           8090      9.04983e+6 
           8110      8.99666e+6 
           8130      8.93934e+6 
           8150      8.87793e+6 
           8170      8.81702e+6 
           8190      8.67966e+6 
           8210      8.66984e+6 
           8230      8.61218e+6 
           8250      8.54224e+6 
           8270         8.55e+6 
           8290      8.47207e+6 
           8310      8.37024e+6 
           8330      8.21336e+6 
           8350      8.30753e+6 
           8370      8.06568e+6 
           8390      8.16267e+6 
           8410      8.15213e+6 
           8430      8.40188e+6 
           8450       8.2466e+6 
           8470      8.03861e+6 
           8490      8.71525e+6 
           8510      7.85086e+6 
           8530      8.88275e+6 
           8550       7.4024e+6 
           8570      9.11395e+6 
           8590      8.66107e+6 
           8610      8.41811e+6 
           8630      9.36248e+6 
           8650      9.22407e+6 
           8670      7.38034e+6 
           8690      9.09894e+6 
           8710      9.24144e+6 
           8730      9.11857e+6 
           8750      7.60077e+6 
           8770      8.90774e+6 
           8790       9.0184e+6 
           8810      8.92217e+6 
           8830      8.78758e+6 
           8850      8.51222e+6 
           8870      7.35772e+6 
           8890      8.65983e+6 
           8910      8.60296e+6 
           8930       8.5366e+6 
           8950      8.55069e+6 
           8970      8.48498e+6 
           8990      8.36989e+6 
           9010      7.19303e+6 
           9030      7.87455e+6 
           9050      8.24134e+6 
           9070      8.02689e+6 
           9090      7.90772e+6 
           9110      8.02102e+6 
           9130      8.02659e+6 
           9150      7.99784e+6 
           9170      7.92894e+6 
           9190      7.84406e+6 
           9210      7.66924e+6 
           9230      6.39299e+6 
           9250      7.46172e+6 
           9270      7.49269e+6 
           9290       7.6211e+6 
           9310      7.57752e+6 
           9330      7.51997e+6 
           9350      7.47792e+6 
           9370      7.43316e+6 
           9390      7.35068e+6 
           9410      7.16759e+6 
           9430      7.24524e+6 
           9450      7.21925e+6 
           9470      7.18249e+6 
           9490      7.14304e+6 
           9510      7.07804e+6 
