# Kurucz ODFNEW /NOVER (2003)
# teff = 23000 K (value for the effective temperature for the model. Temperatures are given in K)
# logg = 4.5 log(cm/s2) (value for Log(G) for the model.)
# meta = -1.5  (value for the Metallicity for the model.)
# lh = 1.25  (l/Hp where l is the  mixing length of the convective element and Hp is the pressure scale height)
# vtur = 2 km/s (Microturbulence velocity)
# alpha = 0  (Alpha)
#
# column 1: WAVELENGTH (ANGSTROM), Wavelength in Angstrom
# column 2: FLUX (ERG/CM2/S/A), Flux in erg/cm2/s/A
          147.2     2.08639e-16 
            151      1.1064e-15 
          155.2     6.39174e-15 
          158.8     2.67995e-14 
            162     9.11262e-14 
            166     3.94817e-13 
          170.3      1.7731e-12 
          173.4     5.00739e-12 
          176.8     1.50122e-11 
          180.2     4.32254e-11 
          181.7     6.80785e-11 
          186.1     2.47565e-10 
            191      9.7254e-10 
          193.9      2.11615e-9 
          198.4      6.75982e-9 
          201.8      1.57044e-8 
            205      3.38353e-8 
          210.5      1.19794e-7 
          216.2      4.14469e-7 
          219.8      8.77413e-7 
            223      1.67354e-6 
          226.8      3.51687e-6 
            230      1.93036e-5 
            234       4.4657e-5 
            240      0.00012073 
          246.5     0.000334592 
          252.4     0.000811876 
          256.8      0.00149449 
            260      0.00236855 
            264      0.00405583 
          268.5      0.00727255 
          273.5       0.0135885 
          278.5         0.02485 
            284       0.0470305 
            290       0.0915753 
            296        0.173135 
            301        0.288756 
            308        0.565785 
            318         1.44919 
            328         3.44307 
            338         7.76087 
            348         16.6393 
            357         31.7939 
            366         58.8003 
            375         105.077 
            385         193.848 
            395         345.473 
            405         597.232 
            414         954.242 
            422         1419.43 
            430         2075.58 
            441         3426.93 
            451         5275.85 
            460         7637.32 
            470         11316.7 
            480         16457.4 
            490         23542.1 
            500         33125.1 
            506          204582 
            512          648136 
            520          817060 
            530      1.12932e+6 
            540        1.251e+6 
            550      1.74902e+6 
            560      2.09243e+6 
            570      2.55988e+6 
            580      2.62188e+6 
            590       3.4384e+6 
            600      4.21602e+6 
            610      4.98789e+6 
            620        5.751e+6 
            630       6.6883e+6 
            640      7.51251e+6 
            650      8.62528e+6 
            658       9.7427e+6 
            665       1.0624e+7 
            675      1.17833e+7 
            685      1.32153e+7 
            695      1.52259e+7 
            705      1.68875e+7 
            716      1.90064e+7 
            726      2.09773e+7 
            735      2.30748e+7 
            745      2.56002e+7 
            755      2.81814e+7 
            765      3.08181e+7 
            775      3.38083e+7 
            785      3.68907e+7 
            795      3.99186e+7 
            805      4.32652e+7 
            815      4.66289e+7 
            825      5.05317e+7 
            835      5.35837e+7 
            845      5.80322e+7 
            855      6.19237e+7 
            865      6.66178e+7 
            875      7.13873e+7 
            885      7.63055e+7 
            895      8.11142e+7 
            905       8.4888e+7 
            915      1.25412e+8 
            925      6.03163e+8 
            935      1.84097e+9 
            945      7.12391e+9 
            955     1.27494e+10 
            965     1.75912e+10 
            975       5.3504e+9 
            985      2.2882e+10 
            995     2.28277e+10 
           1005     2.37874e+10 
           1015     1.96661e+10 
           1025      4.12578e+9 
           1035     1.62522e+10 
           1045     2.37534e+10 
           1055     2.32883e+10 
           1065     2.10239e+10 
           1075     2.22453e+10 
           1085     2.04342e+10 
           1095     2.17179e+10 
           1105      2.0455e+10 
           1115     2.02912e+10 
           1125     1.88742e+10 
           1135     1.95888e+10 
           1145     1.82654e+10 
           1155     1.87514e+10 
           1165     1.85014e+10 
           1175     1.56457e+10 
           1185     1.75368e+10 
           1195     1.58387e+10 
           1205     1.20837e+10 
           1215      3.15348e+9 
           1225     1.17061e+10 
           1235     1.51304e+10 
           1245     1.52998e+10 
           1255     1.49855e+10 
           1265     1.47146e+10 
           1275     1.47654e+10 
           1285     1.44618e+10 
           1295     1.30339e+10 
           1305     1.29564e+10 
           1315     1.35812e+10 
           1325       1.306e+10 
           1335     1.24749e+10 
           1345      1.2611e+10 
           1355     1.25437e+10 
           1365     1.20848e+10 
           1375     1.18782e+10 
           1385     1.17096e+10 
           1395     1.09933e+10 
           1405     1.10063e+10 
           1415     1.09713e+10 
           1425     1.07949e+10 
           1435     1.06488e+10 
           1442     1.06009e+10 
           1447      1.0467e+10 
           1455     1.02908e+10 
           1465      1.0017e+10 
           1475      9.85812e+9 
           1485      9.63458e+9 
           1495      9.47409e+9 
           1505      9.13139e+9 
           1512      8.88126e+9 
           1517      8.90384e+9 
           1525       8.7854e+9 
           1535      8.35425e+9 
           1545      8.36324e+9 
           1555      8.06704e+9 
           1565      8.14239e+9 
           1575      8.10934e+9 
           1585      7.96954e+9 
           1595       7.8754e+9 
           1605      7.62533e+9 
           1615      7.49566e+9 
           1625      7.44606e+9 
           1635      7.39895e+9 
           1645      7.21348e+9 
           1655      7.12038e+9 
           1665      7.08254e+9 
           1672      6.88887e+9 
           1677      6.97497e+9 
           1685      6.87055e+9 
           1695      6.70515e+9 
           1705      6.54456e+9 
           1715      6.37509e+9 
           1725      6.28189e+9 
           1735      6.23998e+9 
           1745      6.11893e+9 
           1755      6.08817e+9 
           1765      5.82734e+9 
           1775      5.81017e+9 
           1785      5.76038e+9 
           1795      5.72023e+9 
           1805      5.65772e+9 
           1815       5.4948e+9 
           1825      5.45228e+9 
           1835      5.35486e+9 
           1845      5.11724e+9 
           1855      5.00135e+9 
           1865      5.00028e+9 
           1875      5.02467e+9 
           1885      4.77005e+9 
           1895      4.59982e+9 
           1905      4.70945e+9 
           1915      4.54544e+9 
           1925      4.45279e+9 
           1935      4.48356e+9 
           1945      4.49164e+9 
           1955      4.27223e+9 
           1967      4.34003e+9 
           1976      4.37005e+9 
           1984      4.21525e+9 
           1995      4.09459e+9 
           2005      4.12619e+9 
           2015      4.11076e+9 
           2025      4.09553e+9 
           2035      3.96932e+9 
           2045      3.91906e+9 
           2055      3.81295e+9 
           2065      3.79934e+9 
           2074      3.84158e+9 
           2078      3.73145e+9 
           2085      3.72871e+9 
           2095      3.62659e+9 
           2105       3.6394e+9 
           2115      3.60557e+9 
           2125      3.59132e+9 
           2135      3.53173e+9 
           2145      3.45933e+9 
           2155      3.44206e+9 
           2165       3.3994e+9 
           2175      3.34894e+9 
           2185      3.31031e+9 
           2195      3.27647e+9 
           2205      3.23016e+9 
           2215      3.18938e+9 
           2225      3.13993e+9 
           2235      3.10149e+9 
           2245      3.07063e+9 
           2255       3.0239e+9 
           2265       2.9949e+9 
           2275       2.9559e+9 
           2285      2.92416e+9 
           2295      2.85632e+9 
           2305      2.84832e+9 
           2315      2.80549e+9 
           2325      2.77389e+9 
           2335      2.72841e+9 
           2345      2.69067e+9 
           2355      2.67323e+9 
           2365       2.6335e+9 
           2375      2.60435e+9 
           2385      2.56481e+9 
           2395      2.53818e+9 
           2405        2.508e+9 
           2415      2.47571e+9 
           2425      2.45777e+9 
           2435      2.42244e+9 
           2445      2.39579e+9 
           2455       2.3725e+9 
           2465      2.34071e+9 
           2475      2.31482e+9 
           2485      2.28726e+9 
           2495      2.23156e+9 
           2505      2.23233e+9 
           2513      2.18903e+9 
           2518      2.19989e+9 
           2525      2.17973e+9 
           2535      2.15102e+9 
           2545       2.1217e+9 
           2555      2.10894e+9 
           2565      2.08222e+9 
           2575      2.06358e+9 
           2585      2.04014e+9 
           2595      2.01628e+9 
           2605      2.00589e+9 
           2615      1.98567e+9 
           2625      1.96521e+9 
           2635      1.94018e+9 
           2645      1.92311e+9 
           2655      1.89914e+9 
           2665      1.87118e+9 
           2675      1.85047e+9 
           2685      1.84366e+9 
           2695      1.80589e+9 
           2705      1.80265e+9 
           2715      1.78245e+9 
           2725      1.74661e+9 
           2735      1.74489e+9 
           2745       1.7151e+9 
           2755      1.69969e+9 
           2765      1.67165e+9 
           2775      1.67186e+9 
           2785      1.65302e+9 
           2795      1.61137e+9 
           2805      1.60876e+9 
           2815       1.6022e+9 
           2825      1.56585e+9 
           2835      1.54766e+9 
           2845      1.55127e+9 
           2855      1.53543e+9 
           2865      1.52032e+9 
           2875      1.50421e+9 
           2885      1.48886e+9 
           2895      1.47352e+9 
           2910      1.45067e+9 
           2930      1.42031e+9 
           2950      1.38068e+9 
           2970      1.36454e+9 
           2990      1.33641e+9 
           3010      1.31022e+9 
           3030      1.28506e+9 
           3050       1.2598e+9 
           3070      1.23517e+9 
           3090      1.21027e+9 
           3110      1.18767e+9 
           3130      1.16619e+9 
           3150      1.14384e+9 
           3170      1.12165e+9 
           3190      1.09034e+9 
           3210      1.07947e+9 
           3230      1.05895e+9 
           3250      1.03915e+9 
           3270      1.02116e+9 
           3290      1.00084e+9 
           3310      9.84075e+8 
           3330       9.6614e+8 
           3350       9.4675e+8 
           3370      9.31466e+8 
           3390      9.14771e+8 
           3410      8.98434e+8 
           3430      8.78541e+8 
           3450      8.59807e+8 
           3470      8.47234e+8 
           3490      8.32355e+8 
           3510      8.19747e+8 
           3530       8.0731e+8 
           3550      7.93665e+8 
           3570      7.84679e+8 
           3590      7.65876e+8 
           3610       7.5513e+8 
           3630      7.40285e+8 
           3640      7.39436e+8 
           3650       7.2767e+8 
           3670      7.18809e+8 
           3690      7.05449e+8 
           3710      6.81141e+8 
           3730      6.52058e+8 
           3750      6.74456e+8 
           3770      6.73548e+8 
           3790      7.18781e+8 
           3810      7.56231e+8 
           3830      6.50478e+8 
           3850      7.87821e+8 
           3870      8.05784e+8 
           3890      6.12268e+8 
           3910      7.95616e+8 
           3930      7.91052e+8 
           3950      7.71737e+8 
           3970      5.70822e+8 
           3990      7.37647e+8 
           4010      7.42279e+8 
           4030      6.90857e+8 
           4050      7.28286e+8 
           4070      7.10707e+8 
           4090      6.35018e+8 
           4110      5.45398e+8 
           4130      6.64034e+8 
           4150      6.62134e+8 
           4170      6.58527e+8 
           4190      6.50324e+8 
           4210      6.39909e+8 
           4230      6.29261e+8 
           4250      6.18744e+8 
           4270      6.06018e+8 
           4290      5.96799e+8 
           4310      5.81883e+8 
           4330      5.10172e+8 
           4350       4.6197e+8 
           4370       5.5187e+8 
           4390      5.30706e+8 
           4410      5.42563e+8 
           4430      5.32185e+8 
           4450      5.26499e+8 
           4470      4.88557e+8 
           4490      5.09012e+8 
           4510      5.02841e+8 
           4530      4.94977e+8 
           4550      4.87305e+8 
           4570      4.79802e+8 
           4590       4.7259e+8 
           4610      4.65379e+8 
           4630      4.58274e+8 
           4650      4.50925e+8 
           4670      4.44653e+8 
           4690      4.38128e+8 
           4710      4.24973e+8 
           4730       4.2462e+8 
           4750      4.17996e+8 
           4770       4.1281e+8 
           4790      4.06398e+8 
           4810      3.99117e+8 
           4830      3.89811e+8 
           4850      3.49847e+8 
           4870      3.09556e+8 
           4890      3.70773e+8 
           4910      3.70102e+8 
           4930      3.55263e+8 
           4950      3.62008e+8 
           4970      3.56995e+8 
           4990      3.51915e+8 
           5010      3.41652e+8 
           5030      3.42037e+8 
           5050      3.34606e+8 
           5070      3.32617e+8 
           5090      3.28001e+8 
           5110      3.23448e+8 
           5130      3.18926e+8 
           5150      3.14522e+8 
           5170      3.10318e+8 
           5190      3.06099e+8 
           5210      3.01796e+8 
           5230      2.97839e+8 
           5250      2.93811e+8 
           5270      2.89863e+8 
           5290      2.85992e+8 
           5310      2.82159e+8 
           5330      2.78387e+8 
           5350      2.74652e+8 
           5370      2.71094e+8 
           5390      2.67517e+8 
           5410      2.63998e+8 
           5430      2.60498e+8 
           5450      2.57118e+8 
           5470      2.53781e+8 
           5490       2.5051e+8 
           5510      2.47268e+8 
           5530      2.44091e+8 
           5550      2.40965e+8 
           5570      2.37878e+8 
           5590      2.34852e+8 
           5610      2.31852e+8 
           5630      2.28948e+8 
           5650      2.25973e+8 
           5670      2.23128e+8 
           5690      2.20317e+8 
           5710      2.17644e+8 
           5730      2.14934e+8 
           5750      2.12256e+8 
           5770      2.09644e+8 
           5790      2.07063e+8 
           5810      2.04513e+8 
           5830      2.01993e+8 
           5850      1.99535e+8 
           5870      1.90098e+8 
           5890       1.9413e+8 
           5910      1.92344e+8 
           5930       1.9002e+8 
           5950      1.87713e+8 
           5970      1.85485e+8 
           5990      1.83251e+8 
           6010      1.81084e+8 
           6030      1.78932e+8 
           6050      1.76814e+8 
           6070       1.7472e+8 
           6090       1.7266e+8 
           6110      1.70644e+8 
           6130       1.6864e+8 
           6150      1.66648e+8 
           6170      1.64739e+8 
           6190       1.6282e+8 
           6210      1.60943e+8 
           6230      1.59086e+8 
           6250       1.5725e+8 
           6270      1.55453e+8 
           6290      1.53676e+8 
           6310      1.51918e+8 
           6330      1.50198e+8 
           6350      1.48431e+8 
           6370      1.46785e+8 
           6390      1.45167e+8 
           6410      1.43529e+8 
           6430      1.41927e+8 
           6450      1.40341e+8 
           6470      1.38755e+8 
           6490      1.37221e+8 
           6510      1.35331e+8 
           6530      1.33072e+8 
           6550      1.25244e+8 
           6570      1.10231e+8 
           6590      1.27389e+8 
           6610       1.2787e+8 
           6630      1.26919e+8 
           6650       1.2574e+8 
           6670      1.22861e+8 
           6690      1.21572e+8 
           6710      1.21711e+8 
           6730      1.20406e+8 
           6750      1.19115e+8 
           6770      1.17845e+8 
           6790      1.16555e+8 
           6810      1.15352e+8 
           6830      1.14128e+8 
           6850      1.12924e+8 
           6870      1.11733e+8 
           6890      1.10554e+8 
           6910      1.09394e+8 
           6930      1.08254e+8 
           6950      1.07124e+8 
           6970      1.06014e+8 
           6990      1.04907e+8 
           7010      1.03827e+8 
           7030      1.02756e+8 
           7050      1.01697e+8 
           7070      9.89213e+7 
           7090      9.96231e+7 
           7110      9.86088e+7 
           7130      9.76044e+7 
           7150      9.66096e+7 
           7170       9.5617e+7 
           7190      9.46704e+7 
           7210      9.37111e+7 
           7230      9.25592e+7 
           7250      9.18413e+7 
           7270      9.09233e+7 
           7290      8.92413e+7 
           7310      8.91061e+7 
           7330      8.82349e+7 
           7350      8.73648e+7 
           7370      8.65029e+7 
           7390       8.5649e+7 
           7410      8.48099e+7 
           7430      8.39786e+7 
           7450      8.31686e+7 
           7470      8.23593e+7 
           7490      8.15574e+7 
           7510      8.07362e+7 
           7530      7.99823e+7 
           7550      7.92088e+7 
           7570       7.8449e+7 
           7590      7.76961e+7 
           7610      7.69499e+7 
           7630       7.6217e+7 
           7650      7.54907e+7 
           7670      7.47709e+7 
           7690      7.40576e+7 
           7710       7.3357e+7 
           7730       7.2669e+7 
           7750      7.19808e+7 
           7770      7.12738e+7 
           7790      7.06351e+7 
           7810      6.99341e+7 
           7830      6.93254e+7 
           7850      6.87402e+7 
           7870      6.81054e+7 
           7890      6.74278e+7 
           7910      6.68584e+7 
           7930       6.6246e+7 
           7950      6.56091e+7 
           7970      6.48948e+7 
           7990      6.42811e+7 
           8010      6.36846e+7 
           8030       6.3099e+7 
           8050      6.25242e+7 
           8070      6.19949e+7 
           8090      6.13376e+7 
           8110      6.08693e+7 
           8130      6.03536e+7 
           8150      5.97515e+7 
           8170      5.93069e+7 
           8190      5.86975e+7 
           8210       5.8043e+7 
           8230      5.76834e+7 
           8250      5.71937e+7 
           8270      5.64106e+7 
           8290      5.61552e+7 
           8310      5.56834e+7 
           8330      5.51666e+7 
           8350      5.44109e+7 
           8370      5.41189e+7 
           8390      5.37328e+7 
           8410      5.32602e+7 
           8430      5.27454e+7 
           8450      5.19214e+7 
           8470       5.1792e+7 
           8490      5.12331e+7 
           8510      5.07731e+7 
           8530      5.03468e+7 
           8550      4.94535e+7 
           8570      4.99662e+7 
