# Kurucz ODFNEW /NOVER (2003)
# teff = 19000 K (value for the effective temperature for the model. Temperatures are given in K)
# logg = 3 log(cm/s2) (value for Log(G) for the model.)
# meta = -1  (value for the Metallicity for the model.)
# lh = 1.25  (l/Hp where l is the  mixing length of the convective element and Hp is the pressure scale height)
# vtur = 2 km/s (Microturbulence velocity)
# alpha = 0  (Alpha)
#
# column 1: WAVELENGTH (ANGSTROM), Wavelength in Angstrom
# column 2: FLUX (ERG/CM2/S/A), Flux in erg/cm2/s/A
          147.2     1.89774e-21 
            151     1.34121e-20 
          155.2     1.04251e-19 
          158.8     5.56845e-19 
            162     2.32693e-18 
            166     1.29035e-17 
          170.3     7.45961e-17 
          173.4     2.50777e-16 
          176.8     9.04033e-16 
          180.2     3.10808e-15 
          181.7     5.28199e-15 
          186.1      2.3845e-14 
            191     1.17807e-13 
          193.9     2.91957e-13 
          198.4     1.13318e-12 
          201.8     3.03275e-12 
            205     7.43392e-12 
          210.5     3.25553e-11 
          216.2     1.38876e-10 
          219.8     3.33771e-10 
            223     7.10323e-10 
          226.8      1.69322e-9 
            230      1.07799e-8 
            234      2.82244e-8 
            240      9.14288e-8 
          246.5      3.05148e-7 
          252.4      8.69297e-7 
          256.8      1.79652e-6 
            260      3.09147e-6 
            264      5.84856e-6 
          268.5      1.16903e-5 
          273.5      2.45486e-5 
          278.5      5.02615e-5 
            284     0.000107279 
            290     0.000236847 
            296     0.000505267 
            301     0.000928674 
            308      0.00207431 
            318      0.00634365 
            328       0.0177737 
            338       0.0469312 
            348        0.116627 
            357        0.253331 
            366        0.528804 
            375         1.05798 
            385         2.20121 
            395         4.39689 
            405         8.47351 
            414         14.8629 
            422         23.9216 
            430          37.728 
            441         68.9356 
            451         115.802 
            460         180.673 
            470         290.094 
            480         455.378 
            490         701.288 
            500            1059 
            506         8714.62 
            512         30952.4 
            520           40798 
            530         61804.3 
            540         70439.1 
            550          110413 
            560          139351 
            570          181663 
            580          184512 
            590          259490 
            600          346633 
            610          435826 
            620          523266 
            630          636055 
            640          734052 
            650          858667 
            658      1.03979e+6 
            665      1.15176e+6 
            675      1.31335e+6 
            685      1.52257e+6 
            695      1.83558e+6 
            705      2.09533e+6 
            716      2.44972e+6 
            726      2.76517e+6 
            735      3.10352e+6 
            745        3.588e+6 
            755      4.06579e+6 
            765      4.57888e+6 
            775      5.16755e+6 
            785      5.79854e+6 
            795      6.40355e+6 
            805      7.09363e+6 
            815      7.76911e+6 
            825      8.67343e+6 
            835      9.29686e+6 
            845      1.02874e+7 
            855      1.12237e+7 
            865      1.23367e+7 
            875      1.35768e+7 
            885       1.4883e+7 
            895       1.6117e+7 
            905      1.70103e+7 
            915      3.34497e+7 
            925       4.2472e+8 
            935      1.52747e+9 
            945       3.6411e+9 
            955      4.75814e+9 
            965      5.69731e+9 
            975      1.48243e+9 
            985      5.86397e+9 
            995      5.63596e+9 
           1005      6.25691e+9 
           1015      6.04318e+9 
           1025      2.57899e+9 
           1035      4.58733e+9 
           1045       7.0266e+9 
           1055      6.64999e+9 
           1065      5.86339e+9 
           1075      6.62392e+9 
           1085      5.96508e+9 
           1095      6.68893e+9 
           1105      6.14078e+9 
           1115      6.13143e+9 
           1125      5.58177e+9 
           1135      6.41907e+9 
           1145      5.99422e+9 
           1155      6.20632e+9 
           1165      6.34033e+9 
           1175      5.05462e+9 
           1185       6.2974e+9 
           1195       5.4704e+9 
           1205      3.72857e+9 
           1215       1.8557e+9 
           1225      4.94666e+9 
           1235      5.81263e+9 
           1245      5.94299e+9 
           1255      5.77499e+9 
           1265      5.59765e+9 
           1275      5.81215e+9 
           1285      5.71884e+9 
           1295      4.60403e+9 
           1305      4.71159e+9 
           1315      5.55021e+9 
           1325      5.30345e+9 
           1335      4.92625e+9 
           1345      5.24248e+9 
           1355      5.22633e+9 
           1365      4.95553e+9 
           1375      4.90124e+9 
           1385       4.9244e+9 
           1395      4.42971e+9 
           1405      4.60524e+9 
           1415      4.65233e+9 
           1425      4.61546e+9 
           1435      4.65271e+9 
           1442      4.70295e+9 
           1447      4.62192e+9 
           1455       4.5433e+9 
           1465      4.38073e+9 
           1475      4.34335e+9 
           1485      4.27002e+9 
           1495      4.21376e+9 
           1505       4.0347e+9 
           1512      3.75997e+9 
           1517      3.86111e+9 
           1525      3.89101e+9 
           1535      3.59793e+9 
           1545      3.68077e+9 
           1555      3.50925e+9 
           1565      3.60883e+9 
           1575       3.6974e+9 
           1585      3.65584e+9 
           1595      3.67115e+9 
           1605      3.57231e+9 
           1615      3.53052e+9 
           1625      3.47779e+9 
           1635        3.546e+9 
           1645      3.50163e+9 
           1655      3.40883e+9 
           1665      3.49221e+9 
           1672      3.37369e+9 
           1677      3.45969e+9 
           1685      3.42878e+9 
           1695      3.31055e+9 
           1705      3.19822e+9 
           1715      3.08213e+9 
           1725      3.05713e+9 
           1735      3.11023e+9 
           1745      3.03732e+9 
           1755      3.07913e+9 
           1765       2.9234e+9 
           1775      2.90885e+9 
           1785      2.90875e+9 
           1795       2.9495e+9 
           1805      2.93784e+9 
           1815      2.76066e+9 
           1825      2.81386e+9 
           1835      2.75082e+9 
           1845      2.57522e+9 
           1855      2.51381e+9 
           1865      2.54996e+9 
           1875      2.64371e+9 
           1885      2.43168e+9 
           1895      2.29876e+9 
           1905      2.44161e+9 
           1915      2.33431e+9 
           1925      2.26762e+9 
           1935      2.33983e+9 
           1945       2.3702e+9 
           1955      2.20516e+9 
           1967      2.32215e+9 
           1976       2.3874e+9 
           1984      2.25353e+9 
           1995      2.19723e+9 
           2005      2.23834e+9 
           2015      2.22889e+9 
           2025      2.27041e+9 
           2035      2.13854e+9 
           2045      2.14181e+9 
           2055      2.08382e+9 
           2065       2.1015e+9 
           2074      2.17202e+9 
           2078      2.04318e+9 
           2085      2.08339e+9 
           2095      1.99805e+9 
           2105      2.03132e+9 
           2115      2.01948e+9 
           2125      2.04599e+9 
           2135       2.0062e+9 
           2145       1.9299e+9 
           2155      1.97498e+9 
           2165      1.95163e+9 
           2175      1.92696e+9 
           2185      1.89579e+9 
           2195      1.90115e+9 
           2205      1.87279e+9 
           2215      1.84586e+9 
           2225       1.8067e+9 
           2235      1.80271e+9 
           2245      1.79708e+9 
           2255      1.75376e+9 
           2265      1.76056e+9 
           2275      1.73959e+9 
           2285      1.73594e+9 
           2295      1.68015e+9 
           2305      1.68801e+9 
           2315      1.65321e+9 
           2325      1.63881e+9 
           2335      1.59523e+9 
           2345       1.5722e+9 
           2355      1.58584e+9 
           2365      1.55198e+9 
           2375      1.54288e+9 
           2385       1.5158e+9 
           2395      1.51663e+9 
           2405      1.49232e+9 
           2415      1.47288e+9 
           2425      1.47979e+9 
           2435       1.4465e+9 
           2445      1.44188e+9 
           2455      1.43897e+9 
           2465      1.41045e+9 
           2475      1.39858e+9 
           2485       1.3879e+9 
           2495      1.34466e+9 
           2505      1.36186e+9 
           2513      1.31902e+9 
           2518      1.34065e+9 
           2525      1.32011e+9 
           2535      1.29834e+9 
           2545      1.28042e+9 
           2555       1.2935e+9 
           2565      1.27124e+9 
           2575      1.27292e+9 
           2585      1.26083e+9 
           2595      1.24806e+9 
           2605      1.24244e+9 
           2615      1.22976e+9 
           2625      1.21658e+9 
           2635      1.20204e+9 
           2645      1.20773e+9 
           2655      1.19662e+9 
           2665      1.17582e+9 
           2675      1.17089e+9 
           2685      1.16516e+9 
           2695       1.1416e+9 
           2705      1.13909e+9 
           2715       1.1255e+9 
           2725      1.10645e+9 
           2735      1.10714e+9 
           2745      1.07499e+9 
           2755      1.07082e+9 
           2765      1.06339e+9 
           2775      1.06757e+9 
           2785      1.05404e+9 
           2795      1.02163e+9 
           2805      1.02935e+9 
           2815      1.02837e+9 
           2825      1.01067e+9 
           2835        9.901e+8 
           2845      9.94369e+8 
           2855      9.86861e+8 
           2865      9.81315e+8 
           2875       9.7058e+8 
           2885      9.62596e+8 
           2895      9.53395e+8 
           2910        9.403e+8 
           2930      9.20398e+8 
           2950      8.99389e+8 
           2970      8.89409e+8 
           2990      8.71145e+8 
           3010      8.56156e+8 
           3030      8.43455e+8 
           3050      8.28258e+8 
           3070      8.13544e+8 
           3090      7.97484e+8 
           3110       7.8465e+8 
           3130      7.71732e+8 
           3150      7.58243e+8 
           3170      7.44206e+8 
           3190      7.26204e+8 
           3210      7.19011e+8 
           3230      7.06632e+8 
           3250      6.94787e+8 
           3270      6.83566e+8 
           3290      6.71208e+8 
           3310      6.61024e+8 
           3330       6.4988e+8 
           3350      6.37914e+8 
           3370      6.28374e+8 
           3390      6.18064e+8 
           3410      6.07984e+8 
           3430      5.95439e+8 
           3450      5.83871e+8 
           3470      5.76034e+8 
           3490      5.67347e+8 
           3510      5.60961e+8 
           3530      5.52476e+8 
           3550      5.43788e+8 
           3570      5.36973e+8 
           3590      5.25979e+8 
           3610      5.17797e+8 
           3630      5.09676e+8 
           3640      5.08273e+8 
           3650      5.00232e+8 
           3670      4.93704e+8 
           3690      4.76027e+8 
           3710      4.81254e+8 
           3730      4.88807e+8 
           3750      5.51626e+8 
           3770      5.55278e+8 
           3790      5.72408e+8 
           3810      5.95143e+8 
           3830      5.27949e+8 
           3850      6.03682e+8 
           3870      5.96075e+8 
           3890      5.06485e+8 
           3910      5.87096e+8 
           3930      5.71159e+8 
           3950      5.68456e+8 
           3970      4.71028e+8 
           3990      5.48644e+8 
           4010      5.40749e+8 
           4030      5.17905e+8 
           4050       5.2757e+8 
           4070      5.16826e+8 
           4090      4.93182e+8 
           4110       4.3701e+8 
           4130      4.87584e+8 
           4150      4.82656e+8 
           4170      4.77972e+8 
           4190      4.72411e+8 
           4210      4.65595e+8 
           4230      4.58108e+8 
           4250       4.5074e+8 
           4270      4.41032e+8 
           4290      4.37032e+8 
           4310      4.29456e+8 
           4330      4.03215e+8 
           4350      3.68995e+8 
           4370      4.09775e+8 
           4390      3.98367e+8 
           4410      3.98888e+8 
           4430      3.91589e+8 
           4450      3.87735e+8 
           4470      3.71245e+8 
           4490      3.75083e+8 
           4510      3.71134e+8 
           4530      3.65386e+8 
           4550      3.60015e+8 
           4570      3.54779e+8 
           4590      3.49905e+8 
           4610      3.44696e+8 
           4630      3.39633e+8 
           4650      3.34121e+8 
           4670      3.30212e+8 
           4690      3.25894e+8 
           4710      3.17053e+8 
           4730      3.15405e+8 
           4750      3.10667e+8 
           4770      3.08067e+8 
           4790      3.03678e+8 
           4810       2.9909e+8 
           4830      2.94535e+8 
           4850      2.80115e+8 
           4870      2.51911e+8 
           4890      2.82357e+8 
           4910      2.79374e+8 
           4930      2.70927e+8 
           4950      2.71879e+8 
           4970      2.68353e+8 
           4990      2.64663e+8 
           5010      2.57571e+8 
           5030      2.57522e+8 
           5050      2.51956e+8 
           5070      2.50807e+8 
           5090      2.47488e+8 
           5110       2.4414e+8 
           5130       2.4068e+8 
           5150      2.37536e+8 
           5170      2.34757e+8 
           5190      2.31707e+8 
           5210      2.28252e+8 
           5230      2.25738e+8 
           5250      2.22819e+8 
           5270      2.19924e+8 
           5290      2.17173e+8 
           5310      2.14365e+8 
           5330      2.11605e+8 
           5350      2.08776e+8 
           5370      2.06348e+8 
           5390       2.0373e+8 
           5410      2.01171e+8 
           5430      1.98453e+8 
           5450      1.96073e+8 
           5470      1.93647e+8 
           5490      1.91301e+8 
           5510      1.88922e+8 
           5530      1.86585e+8 
           5550      1.84326e+8 
           5570      1.82045e+8 
           5590       1.7984e+8 
           5610      1.77579e+8 
           5630      1.75511e+8 
           5650      1.73055e+8 
           5670      1.70993e+8 
           5690      1.68955e+8 
           5710       1.6715e+8 
           5730      1.65159e+8 
           5750      1.63146e+8 
           5770       1.6127e+8 
           5790       1.5936e+8 
           5810      1.57472e+8 
           5830      1.55596e+8 
           5850      1.53785e+8 
           5870      1.48409e+8 
           5890      1.49912e+8 
           5910      1.48435e+8 
           5930      1.46696e+8 
           5950      1.44924e+8 
           5970      1.43352e+8 
           5990      1.41651e+8 
           6010      1.40074e+8 
           6030      1.38462e+8 
           6050       1.3689e+8 
           6070      1.35335e+8 
           6090      1.33787e+8 
           6110      1.32287e+8 
           6130      1.30793e+8 
           6150      1.29237e+8 
           6170      1.27856e+8 
           6190      1.26441e+8 
           6210      1.25032e+8 
           6230      1.23629e+8 
           6250      1.22222e+8 
           6270      1.20897e+8 
           6290      1.19568e+8 
           6310      1.18224e+8 
           6330      1.16961e+8 
           6350      1.15469e+8 
           6370      1.14309e+8 
           6390      1.13151e+8 
           6410      1.11924e+8 
           6430      1.10737e+8 
           6450      1.09535e+8 
           6470       1.0831e+8 
           6490      1.07169e+8 
           6510      1.06032e+8 
           6530      1.04738e+8 
           6550      1.01544e+8 
           6570       9.0925e+7 
           6590      1.00766e+8 
           6610      1.00502e+8 
           6630      9.94684e+7 
           6650      9.84876e+7 
           6670      9.67547e+7 
           6690      9.57562e+7 
           6710      9.54372e+7 
           6730      9.44383e+7 
           6750      9.34661e+7 
           6770      9.25037e+7 
           6790      9.14529e+7 
           6810      9.05916e+7 
           6830      8.96661e+7 
           6850      8.87499e+7 
           6870      8.78428e+7 
           6890      8.69447e+7 
           6910      8.60634e+7 
           6930      8.51751e+7 
           6950      8.43347e+7 
           6970      8.34869e+7 
           6990       8.2632e+7 
           7010      8.18162e+7 
           7030      8.09931e+7 
           7050      8.01779e+7 
           7070      7.82402e+7 
           7090      7.86013e+7 
           7110      7.78169e+7 
           7130      7.70549e+7 
           7150      7.62928e+7 
           7170      7.55307e+7 
           7190       7.4805e+7 
           7210      7.40717e+7 
           7230       7.2949e+7 
           7250      7.26259e+7 
           7270      7.19275e+7 
           7290       7.0716e+7 
           7310      7.05291e+7 
           7330      6.98629e+7 
           7350      6.91917e+7 
           7370      6.85282e+7 
           7390      6.78722e+7 
           7410      6.72236e+7 
           7430      6.65776e+7 
           7450      6.59593e+7 
           7470      6.53264e+7 
           7490      6.47134e+7 
           7510      6.40786e+7 
           7530      6.35015e+7 
           7550      6.29064e+7 
           7570      6.23174e+7 
           7590      6.17331e+7 
           7610      6.11586e+7 
           7630      6.05899e+7 
           7650      6.00269e+7 
           7670      5.94722e+7 
           7690      5.89212e+7 
           7710      5.83745e+7 
           7730      5.78427e+7 
           7750      5.73055e+7 
           7770      5.66914e+7 
           7790      5.62697e+7 
           7810      5.57138e+7 
           7830      5.52507e+7 
           7850       5.4788e+7 
           7870      5.42952e+7 
           7890      5.37558e+7 
           7910      5.33296e+7 
           7930      5.27578e+7 
           7950      5.22447e+7 
           7970      5.17563e+7 
           7990      5.13128e+7 
           8010       5.0859e+7 
           8030      5.04353e+7 
           8050      5.00101e+7 
           8070      4.96005e+7 
           8090      4.90689e+7 
           8110       4.8672e+7 
           8130       4.8316e+7 
           8150      4.78006e+7 
           8170      4.74851e+7 
           8190      4.70366e+7 
           8210      4.64484e+7 
           8230      4.61762e+7 
           8250      4.57959e+7 
           8270      4.51825e+7 
           8290      4.49466e+7 
           8310      4.45751e+7 
           8330      4.41865e+7 
           8350      4.36157e+7 
           8370      4.32623e+7 
           8390      4.29348e+7 
           8410      4.25141e+7 
           8430      4.21382e+7 
           8450       4.1614e+7 
           8470      4.10044e+7 
           8490       4.1425e+7 
           8510      4.00903e+7 
           8530      4.10457e+7 
           8550      3.87503e+7 
           8570      4.10892e+7 
           8590      3.88421e+7 
