# Kurucz ODFNEW /NOVER (2003)
# teff = 10500 K (value for the effective temperature for the model. Temperatures are given in K)
# logg = 2 log(cm/s2) (value for Log(G) for the model.)
# meta = 0.2  (value for the Metallicity for the model.)
# lh = 1.25  (l/Hp where l is the  mixing length of the convective element and Hp is the pressure scale height)
# vtur = 2 km/s (Microturbulence velocity)
# alpha = 0.4  (Alpha)
#
# column 1: WAVELENGTH (ANGSTROM), Wavelength in Angstrom
# column 2: FLUX (ERG/CM2/S/A), Flux in erg/cm2/s/A
          273.5     4.74237e-23 
          278.5     2.03217e-22 
            284     8.48641e-22 
            290     3.76259e-21 
            296     1.55957e-20 
            301     4.92321e-20 
            308     2.31782e-19 
            318     1.88979e-18 
            328     1.36658e-17 
            338     8.81939e-17 
            348     5.15956e-16 
            357     2.53748e-15 
            366     1.06304e-14 
            375     4.12748e-14 
            385     1.75747e-13 
            395     6.89063e-13 
            405     2.56596e-12 
            414     7.91898e-12 
            422     2.07131e-11 
            430     5.18253e-11 
            441     1.77826e-10 
            451     5.13305e-10 
            460      1.28277e-9 
            470      3.40523e-9 
            480      8.69405e-9 
            490       2.1416e-8 
            500      5.07696e-8 
            506      7.78705e-7 
            512       1.7984e-6 
            520      3.14647e-6 
            530       6.1921e-6 
            540      1.16238e-5 
            550      2.24194e-5 
            560      4.11087e-5 
            570      7.44299e-5 
            580     0.000127219 
            590     0.000226839 
            600     0.000383814 
            610     0.000647709 
            620      0.00105355 
            630      0.00170397 
            640      0.00267353 
            650      0.00423114 
            658      0.00601529 
            665      0.00802307 
            675        0.012157 
            685       0.0182799 
            695       0.0272487 
            705       0.0395076 
            716       0.0597256 
            726       0.0859062 
            735        0.117316 
            745        0.164932 
            755        0.229868 
            765        0.317174 
            775        0.437116 
            785        0.596501 
            795        0.794558 
            805         1.06631 
            815         1.42649 
            825         1.88042 
            835         2.44212 
            845         3.21707 
            855         4.15929 
            865         5.36678 
            875         6.79774 
            885         8.72818 
            895         11.0288 
            905         13.6902 
            915         2069.43 
            925         14583.1 
            935         18759.2 
            945           29579 
            955           56322 
            965           78018 
            975         62190.8 
            985          100342 
            995         93689.1 
           1005          122434 
           1015          153061 
           1025          113848 
           1035          149151 
           1045          235319 
           1055          289564 
           1065          284613 
           1075          364757 
           1085          395794 
           1095          442357 
           1105       1.7087e+6 
           1115      1.05074e+7 
           1125      1.16088e+7 
           1135      1.89174e+7 
           1145      1.77042e+7 
           1155      2.15412e+7 
           1165      2.49533e+7 
           1175      2.02725e+7 
           1185      9.15757e+6 
           1195          239678 
           1205          698183 
           1215          138437 
           1225          913013 
           1235      1.03883e+7 
           1245       4.1775e+7 
           1255      4.77805e+7 
           1265      1.54263e+7 
           1275      6.74191e+7 
           1285      1.08397e+8 
           1295      5.81193e+7 
           1305      1.20182e+7 
           1315      7.25845e+7 
           1325      1.09346e+8 
           1335      6.54543e+7 
           1345      1.28542e+8 
           1355      1.27941e+8 
           1365      9.72301e+7 
           1375      1.14599e+8 
           1385      1.16405e+8 
           1395      1.16303e+8 
           1405      1.17365e+8 
           1415      1.09454e+8 
           1425      1.31952e+8 
           1435      1.22086e+8 
           1442      1.39619e+8 
           1447      1.58581e+8 
           1455      1.53502e+8 
           1465      1.40636e+8 
           1475       1.3263e+8 
           1485       1.5281e+8 
           1495      1.65899e+8 
           1505      1.61797e+8 
           1512      1.37184e+8 
           1517      1.56935e+8 
           1525      1.24895e+8 
           1535      1.03177e+8 
           1545      1.62085e+8 
           1555      1.38169e+8 
           1565      1.28655e+8 
           1575      1.36328e+8 
           1585      1.58221e+8 
           1595      1.70252e+8 
           1605      1.55823e+8 
           1615      1.57496e+8 
           1625      1.40287e+8 
           1635      1.50933e+8 
           1645       1.5612e+8 
           1655      1.37569e+8 
           1665      1.49769e+8 
           1672      7.58382e+7 
           1677      1.47446e+8 
           1685      1.72706e+8 
           1695      1.63528e+8 
           1705      1.45429e+8 
           1715      1.35348e+8 
           1725       1.3567e+8 
           1735      1.50918e+8 
           1745      1.50196e+8 
           1755      1.75227e+8 
           1765      1.40728e+8 
           1775      1.58398e+8 
           1785      1.55683e+8 
           1795      1.86188e+8 
           1805      1.76904e+8 
           1815      1.69974e+8 
           1825      1.65334e+8 
           1835      1.56634e+8 
           1845      1.41162e+8 
           1855       1.3498e+8 
           1865      1.40967e+8 
           1875      1.66782e+8 
           1885      1.56036e+8 
           1895      1.49589e+8 
           1905      1.46268e+8 
           1915      1.48217e+8 
           1925      1.56187e+8 
           1935      1.61469e+8 
           1945      1.63019e+8 
           1955      1.58527e+8 
           1967      1.77173e+8 
           1976       1.8248e+8 
           1984      1.68771e+8 
           1995      1.61074e+8 
           2005      1.67128e+8 
           2015      1.51528e+8 
           2025      1.65396e+8 
           2035       1.5677e+8 
           2045      1.67861e+8 
           2055      1.46525e+8 
           2065      1.53069e+8 
           2074      1.70127e+8 
           2078      1.66035e+8 
           2085      1.67695e+8 
           2095      1.58347e+8 
           2105      1.53794e+8 
           2115      1.53362e+8 
           2125      1.58004e+8 
           2135      1.30634e+8 
           2145      1.45917e+8 
           2155       1.5585e+8 
           2165      1.45557e+8 
           2175      1.42039e+8 
           2185      1.37957e+8 
           2195      1.51027e+8 
           2205      1.41804e+8 
           2215       1.2586e+8 
           2225      1.18172e+8 
           2235      1.37004e+8 
           2245      1.22436e+8 
           2255      1.13374e+8 
           2265      1.21356e+8 
           2275      1.28924e+8 
           2285      1.34588e+8 
           2295      1.27188e+8 
           2305      1.18308e+8 
           2315      1.09155e+8 
           2325      1.07925e+8 
           2335      9.48142e+7 
           2345      8.75195e+7 
           2355      1.07061e+8 
           2365      8.62476e+7 
           2375      9.55611e+7 
           2385      7.92968e+7 
           2395      9.38536e+7 
           2405      8.65484e+7 
           2415      9.28222e+7 
           2425      1.05415e+8 
           2435      9.92396e+7 
           2445      1.09962e+8 
           2455      1.05161e+8 
           2465      1.04893e+8 
           2475      1.00074e+8 
           2485      1.09165e+8 
           2495      1.04213e+8 
           2505      1.19064e+8 
           2513      9.99037e+7 
           2518      1.06465e+8 
           2525      9.47315e+7 
           2535      9.71689e+7 
           2545      9.41733e+7 
           2555      1.04091e+8 
           2565       9.8906e+7 
           2575      1.11565e+8 
           2585      1.06746e+8 
           2595      1.02988e+8 
           2605      9.60917e+7 
           2615      9.51434e+7 
           2625      1.05043e+8 
           2635      1.06461e+8 
           2645      1.24316e+8 
           2655      1.21917e+8 
           2665      1.05955e+8 
           2675      1.15004e+8 
           2685      1.09634e+8 
           2695      1.07339e+8 
           2705      1.12797e+8 
           2715       1.0517e+8 
           2725       1.0715e+8 
           2735      1.17498e+8 
           2745      9.04748e+7 
           2755      9.17251e+7 
           2765      9.63305e+7 
           2775      1.08225e+8 
           2785      1.05094e+8 
           2795      6.38393e+7 
           2805      7.85106e+7 
           2815      1.09664e+8 
           2825      1.14893e+8 
           2835      1.06261e+8 
           2845      1.02444e+8 
           2855      9.96752e+7 
           2865      1.08968e+8 
           2875      1.03908e+8 
           2885      1.05769e+8 
           2895      9.97671e+7 
           2910      1.14681e+8 
           2930       1.0872e+8 
           2950      1.08714e+8 
           2970      1.11265e+8 
           2990      1.11973e+8 
           3010      1.15675e+8 
           3030      1.12934e+8 
           3050      1.10214e+8 
           3070      1.08283e+8 
           3090      1.10958e+8 
           3110      1.06123e+8 
           3130      1.05106e+8 
           3150      1.07223e+8 
           3170      1.05211e+8 
           3190      1.00568e+8 
           3210      1.02993e+8 
           3230      1.00591e+8 
           3250      1.01029e+8 
           3270       1.0059e+8 
           3290      1.01055e+8 
           3310      1.01292e+8 
           3330      9.82346e+7 
           3350      9.66287e+7 
           3370      9.61486e+7 
           3390       9.4929e+7 
           3410      9.68868e+7 
           3430      9.60836e+7 
           3450      9.49792e+7 
           3470      9.30959e+7 
           3490      9.21402e+7 
           3510      9.30808e+7 
           3530      9.33441e+7 
           3550      9.31055e+7 
           3570      9.12168e+7 
           3590      9.04255e+7 
           3610      8.97183e+7 
           3630      8.87266e+7 
           3640       8.8345e+7 
           3650      8.93829e+7 
           3670      8.71192e+7 
           3690      8.85125e+7 
           3710      1.08387e+8 
           3730      1.32188e+8 
           3750      1.64365e+8 
           3770      1.62766e+8 
           3790       1.7446e+8 
           3810      1.86329e+8 
           3830      1.60709e+8 
           3850      1.84815e+8 
           3870      1.87118e+8 
           3890      1.55583e+8 
           3910       1.8171e+8 
           3930      1.77131e+8 
           3950      1.79787e+8 
           3970      1.44791e+8 
           3990      1.75154e+8 
           4010      1.72362e+8 
           4030      1.68575e+8 
           4050      1.69059e+8 
           4070      1.65118e+8 
           4090      1.61451e+8 
           4110      1.37999e+8 
           4130       1.5663e+8 
           4150      1.58383e+8 
           4170      1.54772e+8 
           4190      1.53637e+8 
           4210      1.52742e+8 
           4230      1.50377e+8 
           4250      1.47522e+8 
           4270      1.45279e+8 
           4290      1.44458e+8 
           4310      1.40944e+8 
           4330      1.34005e+8 
           4350      1.19407e+8 
           4370      1.37426e+8 
           4390      1.33506e+8 
           4410      1.33708e+8 
           4430      1.31769e+8 
           4450      1.30832e+8 
           4470      1.28591e+8 
           4490      1.25628e+8 
           4510      1.25687e+8 
           4530      1.23452e+8 
           4550      1.20524e+8 
           4570      1.21671e+8 
           4590      1.18469e+8 
           4610      1.19809e+8 
           4630       1.1555e+8 
           4650      1.16684e+8 
           4670      1.14628e+8 
           4690      1.13887e+8 
           4710      1.10773e+8 
           4730      1.10877e+8 
           4750      1.09482e+8 
           4770      1.09011e+8 
           4790      1.07546e+8 
           4810      1.05624e+8 
           4830      1.04004e+8 
           4850      9.88585e+7 
           4870      8.58474e+7 
           4890      1.00882e+8 
           4910      9.96341e+7 
           4930      9.75889e+7 
           4950      9.74323e+7 
           4970      9.66848e+7 
           4990      9.50247e+7 
           5010      9.19096e+7 
           5030      9.17415e+7 
           5050      8.97459e+7 
           5070      9.02088e+7 
           5090      8.91683e+7 
           5110      8.77488e+7 
           5130      8.72249e+7 
           5150      8.54152e+7 
           5170      8.43229e+7 
           5190      8.35232e+7 
           5210      8.22934e+7 
           5230      8.11859e+7 
           5250      8.12382e+7 
           5270      7.92121e+7 
           5290      7.99093e+7 
           5310      7.78588e+7 
           5330       7.7627e+7 
           5350      7.73399e+7 
           5370      7.64435e+7 
           5390      7.56076e+7 
           5410       7.4397e+7 
           5430      7.35241e+7 
           5450      7.32011e+7 
           5470      7.21544e+7 
           5490      7.16958e+7 
           5510      7.07097e+7 
           5530      7.01598e+7 
           5550      6.95327e+7 
           5570      6.87174e+7 
           5590      6.81301e+7 
           5610      6.75913e+7 
           5630      6.69135e+7 
           5650      6.55106e+7 
           5670      6.50809e+7 
           5690      6.47429e+7 
           5710      6.41399e+7 
           5730      6.34876e+7 
           5750      6.27869e+7 
           5770      6.21623e+7 
           5790      6.13245e+7 
           5810      6.07145e+7 
           5830      6.01091e+7 
           5850      5.95722e+7 
           5870      5.85568e+7 
           5890      5.80752e+7 
           5910       5.7673e+7 
           5930      5.72225e+7 
           5950      5.60819e+7 
           5970       5.5878e+7 
           5990      5.50865e+7 
           6010      5.48968e+7 
           6030      5.43436e+7 
           6050      5.36926e+7 
           6070      5.31768e+7 
           6090      5.26209e+7 
           6110       5.2175e+7 
           6130      5.16246e+7 
           6150      5.03322e+7 
           6170      5.05645e+7 
           6190        5.014e+7 
           6210      4.96466e+7 
           6230      4.90469e+7 
           6250      4.79735e+7 
           6270      4.81835e+7 
           6290      4.76805e+7 
           6310      4.70068e+7 
           6330      4.67206e+7 
           6350      4.54093e+7 
           6370      4.52509e+7 
           6390      4.52965e+7 
           6410       4.4786e+7 
           6430      4.45033e+7 
           6450      4.36373e+7 
           6470      4.37216e+7 
           6490      4.30537e+7 
           6510      4.26224e+7 
           6530      4.21674e+7 
           6550      4.03428e+7 
           6570      3.43469e+7 
           6590      4.08756e+7 
           6610      4.07821e+7 
           6630      4.04079e+7 
           6650      4.01166e+7 
           6670      3.96096e+7 
           6690      3.92629e+7 
           6710      3.89782e+7 
           6730      3.85397e+7 
           6750      3.82488e+7 
           6770      3.79254e+7 
           6790      3.75201e+7 
           6810      3.71952e+7 
           6830      3.67483e+7 
           6850      3.64883e+7 
           6870       3.6162e+7 
           6890      3.58524e+7 
           6910      3.54984e+7 
           6930      3.50985e+7 
           6950      3.48796e+7 
           6970      3.45556e+7 
           6990      3.42764e+7 
           7010      3.38373e+7 
           7030      3.36466e+7 
           7050        3.324e+7 
           7070      3.29542e+7 
           7090        3.277e+7 
           7110      3.23862e+7 
           7130      3.21173e+7 
           7150      3.18421e+7 
           7170      3.15753e+7 
           7190       3.1311e+7 
           7210      3.10556e+7 
           7230       3.0675e+7 
           7250      3.04272e+7 
           7270      3.02258e+7 
           7290      2.99354e+7 
           7310      2.96414e+7 
           7330      2.94238e+7 
           7350      2.92144e+7 
           7370      2.89665e+7 
           7390      2.87065e+7 
           7410      2.84372e+7 
           7430      2.80693e+7 
           7450      2.78862e+7 
           7470      2.75744e+7 
           7490      2.74085e+7 
           7510      2.71358e+7 
           7530      2.70052e+7 
           7550      2.67863e+7 
           7570      2.65549e+7 
           7590      2.63033e+7 
           7610      2.61333e+7 
           7630      2.58917e+7 
           7650      2.56251e+7 
           7670      2.54449e+7 
           7690      2.52204e+7 
           7710      2.49743e+7 
           7730      2.48119e+7 
           7750      2.46056e+7 
           7770      2.38962e+7 
           7790      2.41934e+7 
           7810      2.40196e+7 
           7830      2.38049e+7 
           7850      2.34655e+7 
           7870      2.32691e+7 
           7890      2.29897e+7 
           7910      2.30127e+7 
           7930      2.28488e+7 
           7950      2.24694e+7 
           7970      2.24753e+7 
           7990      2.19399e+7 
           8010      2.21117e+7 
           8030      2.19281e+7 
           8050      2.17378e+7 
           8070      2.15718e+7 
           8090      2.13945e+7 
           8110      2.11963e+7 
           8130      2.10534e+7 
           8150      2.08918e+7 
           8170      2.07337e+7 
           8190      2.04978e+7 
           8210      2.02421e+7 
           8230      1.99709e+7 
           8250      2.00419e+7 
           8270      1.99665e+7 
           8290      1.97146e+7 
           8310      1.95904e+7 
           8330      1.93471e+7 
           8350      1.92248e+7 
           8370      1.88879e+7 
           8390      1.88273e+7 
           8410      1.86149e+7 
           8430      1.88458e+7 
           8450      1.84427e+7 
           8470       1.7995e+7 
           8490      1.92154e+7 
           8510      1.76145e+7 
           8530      1.93669e+7 
           8550      1.71975e+7 
           8570      1.94502e+7 
           8590      1.84224e+7 
           8610      1.79044e+7 
           8630      1.94933e+7 
           8650      1.91994e+7 
           8670      1.64802e+7 
           8690      1.90455e+7 
           8710      1.91528e+7 
           8730      1.88382e+7 
           8750      1.60941e+7 
           8770      1.84224e+7 
           8790      1.86019e+7 
           8810      1.84705e+7 
           8830      1.81477e+7 
           8850      1.76762e+7 
           8870      1.55146e+7 
           8890      1.78183e+7 
           8910      1.77165e+7 
           8930      1.75258e+7 
           8950      1.75359e+7 
           8970      1.73984e+7 
           8990      1.71616e+7 
           9010      1.50385e+7 
           9030       1.6224e+7 
           9050      1.68263e+7 
           9070      1.65355e+7 
           9090        1.641e+7 
           9110      1.63907e+7 
           9130       1.6304e+7 
           9150      1.62486e+7 
           9170      1.60671e+7 
           9190      1.58465e+7 
