# Kurucz ODFNEW /NOVER (2003)
# teff = 23000 K (value for the effective temperature for the model. Temperatures are given in K)
# logg = 3.5 log(cm/s2) (value for Log(G) for the model.)
# meta = -2  (value for the Metallicity for the model.)
# lh = 1.25  (l/Hp where l is the  mixing length of the convective element and Hp is the pressure scale height)
# vtur = 2 km/s (Microturbulence velocity)
# alpha = 0.4  (Alpha)
#
# column 1: WAVELENGTH (ANGSTROM), Wavelength in Angstrom
# column 2: FLUX (ERG/CM2/S/A), Flux in erg/cm2/s/A
          147.2     2.54139e-16 
            151     1.41211e-15 
          155.2     8.51882e-15 
          158.8     3.68461e-14 
            162     1.28206e-13 
            166     5.69319e-13 
          170.3     2.61068e-12 
          173.4     7.46115e-12 
          176.8     2.25785e-11 
          180.2     6.54658e-11 
          181.7     1.03356e-10 
          186.1     3.77837e-10 
            191      1.48849e-9 
          193.9      3.23801e-9 
          198.4      1.03144e-8 
          201.8      2.38953e-8 
            205      5.13338e-8 
          210.5       1.8044e-7 
          216.2      6.18823e-7 
          219.8       1.3006e-6 
            223      2.46466e-6 
          226.8      5.13765e-6 
            230      5.16703e-5 
            234     0.000123148 
            240     0.000323523 
          246.5     0.000872596 
          252.4      0.00207348 
          256.8      0.00365885 
            260      0.00585825 
            264      0.00986309 
          268.5       0.0173758 
          273.5       0.0318412 
          278.5       0.0571732 
            284        0.106191 
            290        0.202502 
            296        0.375246 
            301        0.613738 
            308         1.15599 
            318           2.942 
            328         6.78669 
            338         14.9519 
            348         31.3039 
            357         58.7904 
            366         106.973 
            375         187.316 
            385         339.482 
            395          593.64 
            405         1008.81 
            414         1590.35 
            422         2332.72 
            430         3366.52 
            441         5479.87 
            451         8335.05 
            460         11922.9 
            470         17460.2 
            480         25095.7 
            490         35510.8 
            500         49469.1 
            506          372012 
            512      1.08066e+6 
            520      1.32181e+6 
            530      1.79862e+6 
            540      1.95341e+6 
            550      2.73238e+6 
            560      3.23836e+6 
            570      3.91444e+6 
            580      3.94838e+6 
            590      5.16155e+6 
            600      6.29002e+6 
            610      7.39821e+6 
            620      8.44534e+6 
            630       9.7756e+6 
            640      1.08843e+7 
            650      1.24637e+7 
            658      1.40185e+7 
            665      1.51757e+7 
            675      1.66534e+7 
            685      1.85119e+7 
            695       2.1357e+7 
            705      2.34182e+7 
            716      2.63674e+7 
            726      2.88918e+7 
            735      3.17011e+7 
            745      3.50743e+7 
            755      3.83983e+7 
            765      4.17713e+7 
            775      4.57275e+7 
            785      4.97052e+7 
            795      5.34881e+7 
            805      5.78647e+7 
            815      6.20486e+7 
            825      6.70129e+7 
            835      7.02749e+7 
            845      7.63932e+7 
            855       8.1311e+7 
            865      8.71252e+7 
            875      9.30869e+7 
            885      9.92106e+7 
            895      1.05156e+8 
            905       1.0992e+8 
            915      2.00499e+8 
            925      2.26665e+9 
            935      6.34285e+9 
            945     1.41537e+10 
            955     1.69181e+10 
            965     2.05691e+10 
            975      9.11403e+9 
            985     2.08357e+10 
            995     1.98326e+10 
           1005     2.04585e+10 
           1015     1.94522e+10 
           1025      9.28247e+9 
           1035     1.76558e+10 
           1045     2.06617e+10 
           1055     2.00068e+10 
           1065     1.83245e+10 
           1075     1.91044e+10 
           1085     1.78943e+10 
           1095     1.88719e+10 
           1105     1.78636e+10 
           1115     1.77288e+10 
           1125     1.66447e+10 
           1135     1.74005e+10 
           1145     1.63761e+10 
           1155     1.67675e+10 
           1165     1.66139e+10 
           1175     1.44364e+10 
           1185     1.59655e+10 
           1195     1.49096e+10 
           1205      1.2773e+10 
           1215      6.42384e+9 
           1225     1.36249e+10 
           1235     1.45253e+10 
           1245     1.43072e+10 
           1255     1.40299e+10 
           1265     1.37809e+10 
           1275     1.38083e+10 
           1285     1.35189e+10 
           1295     1.21807e+10 
           1305     1.23067e+10 
           1315      1.2801e+10 
           1325      1.2401e+10 
           1335     1.19299e+10 
           1345     1.19929e+10 
           1355     1.19842e+10 
           1365     1.15816e+10 
           1375     1.14217e+10 
           1385     1.13051e+10 
           1395     1.04935e+10 
           1405     1.05283e+10 
           1415     1.06558e+10 
           1425     1.04856e+10 
           1435     1.03828e+10 
           1442     1.03346e+10 
           1447     1.02257e+10 
           1455     1.00668e+10 
           1465      9.86468e+9 
           1475      9.70938e+9 
           1485      9.53618e+9 
           1495      9.36301e+9 
           1505       9.0627e+9 
           1512      8.95541e+9 
           1517      8.94068e+9 
           1525       8.8063e+9 
           1535      8.43435e+9 
           1545      8.39938e+9 
           1555       8.1613e+9 
           1565      8.21791e+9 
           1575      8.16279e+9 
           1585      8.03148e+9 
           1595      7.93375e+9 
           1605      7.68193e+9 
           1615      7.55647e+9 
           1625      7.51297e+9 
           1635      7.45447e+9 
           1645      7.24689e+9 
           1655      7.22354e+9 
           1665      7.12942e+9 
           1672      7.00463e+9 
           1677      7.05615e+9 
           1685      6.95136e+9 
           1695      6.80231e+9 
           1705      6.66612e+9 
           1715      6.50638e+9 
           1725      6.43281e+9 
           1735      6.37026e+9 
           1745      6.26492e+9 
           1755      6.21574e+9 
           1765      6.01127e+9 
           1775      5.95581e+9 
           1785       5.9012e+9 
           1795      5.85797e+9 
           1805      5.79648e+9 
           1815      5.65536e+9 
           1825      5.59943e+9 
           1835      5.51485e+9 
           1845      5.29299e+9 
           1855      5.17827e+9 
           1865      5.17455e+9 
           1875      5.17994e+9 
           1885      4.94912e+9 
           1895      4.78142e+9 
           1905      4.88447e+9 
           1915      4.72408e+9 
           1925      4.63599e+9 
           1935      4.66386e+9 
           1945      4.65676e+9 
           1955       4.4468e+9 
           1967      4.50556e+9 
           1976      4.52231e+9 
           1984      4.38226e+9 
           1995       4.2573e+9 
           2005       4.2916e+9 
           2015      4.27722e+9 
           2025      4.25189e+9 
           2035      4.13588e+9 
           2045      4.08166e+9 
           2055      3.95987e+9 
           2065      3.93478e+9 
           2074      3.97935e+9 
           2078      3.87811e+9 
           2085      3.87872e+9 
           2095      3.78298e+9 
           2105      3.79082e+9 
           2115      3.75986e+9 
           2125      3.73741e+9 
           2135      3.68115e+9 
           2145      3.61121e+9 
           2155      3.58759e+9 
           2165      3.54665e+9 
           2175      3.49516e+9 
           2185      3.45535e+9 
           2195      3.41713e+9 
           2205      3.37296e+9 
           2215      3.33144e+9 
           2225      3.28429e+9 
           2235      3.24078e+9 
           2245      3.20854e+9 
           2255      3.16318e+9 
           2265      3.12965e+9 
           2275      3.09099e+9 
           2285      3.05534e+9 
           2295      2.98435e+9 
           2305      2.97915e+9 
           2315      2.93877e+9 
           2325      2.90449e+9 
           2335      2.86177e+9 
           2345      2.83104e+9 
           2355       2.8025e+9 
           2365      2.76787e+9 
           2375      2.73346e+9 
           2385      2.69952e+9 
           2395       2.6679e+9 
           2405      2.63716e+9 
           2415      2.60219e+9 
           2425      2.57814e+9 
           2435      2.54469e+9 
           2445       2.5166e+9 
           2455      2.48895e+9 
           2465      2.45938e+9 
           2475      2.43069e+9 
           2485      2.40213e+9 
           2495      2.32779e+9 
           2505      2.34604e+9 
           2513       2.3106e+9 
           2518      2.30774e+9 
           2525      2.29218e+9 
           2535      2.26645e+9 
           2545      2.22593e+9 
           2555      2.21351e+9 
           2565      2.18752e+9 
           2575       2.1675e+9 
           2585      2.14309e+9 
           2595      2.11933e+9 
           2605      2.11042e+9 
           2615      2.08753e+9 
           2625      2.06346e+9 
           2635      2.03546e+9 
           2645      2.01509e+9 
           2655      1.99074e+9 
           2665      1.96591e+9 
           2675      1.94392e+9 
           2685      1.93412e+9 
           2695      1.89868e+9 
           2705      1.89147e+9 
           2715      1.87122e+9 
           2725      1.83722e+9 
           2735      1.83086e+9 
           2745       1.8083e+9 
           2755      1.79003e+9 
           2765      1.75848e+9 
           2775      1.75449e+9 
           2785       1.7353e+9 
           2795      1.69566e+9 
           2805      1.69039e+9 
           2815      1.68145e+9 
           2825       1.6487e+9 
           2835       1.6346e+9 
           2845      1.62909e+9 
           2855      1.61197e+9 
           2865      1.59555e+9 
           2875      1.57904e+9 
           2885      1.56291e+9 
           2895      1.54674e+9 
           2910      1.52269e+9 
           2930       1.4914e+9 
           2950      1.45255e+9 
           2970      1.43254e+9 
           2990      1.40349e+9 
           3010      1.37555e+9 
           3030      1.34899e+9 
           3050      1.32253e+9 
           3070      1.29672e+9 
           3090       1.2695e+9 
           3110      1.24679e+9 
           3130      1.22403e+9 
           3150      1.20052e+9 
           3170      1.17717e+9 
           3190       1.1461e+9 
           3210      1.13303e+9 
           3230      1.11149e+9 
           3250      1.09065e+9 
           3270      1.07164e+9 
           3290      1.05034e+9 
           3310      1.03259e+9 
           3330       1.0137e+9 
           3350      9.93444e+8 
           3370      9.77243e+8 
           3390      9.59681e+8 
           3410      9.42528e+8 
           3430       9.2129e+8 
           3450      9.01682e+8 
           3470      8.88471e+8 
           3490       8.7312e+8 
           3510       8.6222e+8 
           3530      8.47973e+8 
           3550      8.33603e+8 
           3570      8.22752e+8 
           3590      8.04402e+8 
           3610      7.91669e+8 
           3630      7.77109e+8 
           3640      7.75119e+8 
           3650      7.66919e+8 
           3670      7.57017e+8 
           3690      7.35441e+8 
           3710      7.18556e+8 
           3730      7.04589e+8 
           3750      7.67631e+8 
           3770      7.71806e+8 
           3790      8.00741e+8 
           3810      8.30922e+8 
           3830      7.34331e+8 
           3850      8.44092e+8 
           3870      8.38032e+8 
           3890      7.00649e+8 
           3910      8.22304e+8 
           3930      8.05199e+8 
           3950       7.9523e+8 
           3970      6.50443e+8 
           3990      7.65972e+8 
           4010      7.55258e+8 
           4030      7.19991e+8 
           4050        7.366e+8 
           4070      7.21305e+8 
           4090      6.81591e+8 
           4110      6.02692e+8 
           4130      6.79252e+8 
           4150      6.71365e+8 
           4170      6.64529e+8 
           4190      6.55389e+8 
           4210      6.45117e+8 
           4230      6.34609e+8 
           4250      6.24083e+8 
           4270      6.12713e+8 
           4290      6.04066e+8 
           4310      5.92835e+8 
           4330      5.51805e+8 
           4350      5.05233e+8 
           4370      5.64476e+8 
           4390      5.46501e+8 
           4410      5.48897e+8 
           4430      5.38711e+8 
           4450      5.32567e+8 
           4470      5.07091e+8 
           4490      5.15814e+8 
           4510      5.08508e+8 
           4530      5.00723e+8 
           4550      4.92874e+8 
           4570       4.8525e+8 
           4590      4.78116e+8 
           4610      4.71069e+8 
           4630      4.64056e+8 
           4650      4.56065e+8 
           4670      4.50146e+8 
           4690      4.43592e+8 
           4710      4.31868e+8 
           4730      4.30581e+8 
           4750      4.24057e+8 
           4770      4.18373e+8 
           4790      4.12276e+8 
           4810      4.06168e+8 
           4830      3.99081e+8 
           4850      3.76737e+8 
           4870      3.38942e+8 
           4890       3.8158e+8 
           4910      3.77775e+8 
           4930      3.65571e+8 
           4950      3.67328e+8 
           4970      3.62288e+8 
           4990      3.57196e+8 
           5010      3.48271e+8 
           5030      3.47293e+8 
           5050      3.40382e+8 
           5070      3.37761e+8 
           5090       3.3309e+8 
           5110      3.28526e+8 
           5130      3.24008e+8 
           5150      3.19579e+8 
           5170      3.15279e+8 
           5190      3.11022e+8 
           5210      3.06737e+8 
           5230      3.02701e+8 
           5250       2.9865e+8 
           5270      2.94651e+8 
           5290      2.90731e+8 
           5310      2.86875e+8 
           5330      2.83069e+8 
           5350      2.79324e+8 
           5370      2.75693e+8 
           5390      2.72068e+8 
           5410      2.68529e+8 
           5430      2.65008e+8 
           5450      2.61583e+8 
           5470      2.58213e+8 
           5490      2.54898e+8 
           5510      2.51624e+8 
           5530      2.48403e+8 
           5550      2.45246e+8 
           5570      2.42128e+8 
           5590       2.3906e+8 
           5610       2.3603e+8 
           5630      2.33072e+8 
           5650      2.30103e+8 
           5670      2.27217e+8 
           5690      2.24366e+8 
           5710      2.21642e+8 
           5730      2.18892e+8 
           5750      2.16153e+8 
           5770      2.13537e+8 
           5790      2.10918e+8 
           5810       2.0833e+8 
           5830      2.05784e+8 
           5850      2.03289e+8 
           5870      1.95587e+8 
           5890      1.98257e+8 
           5910      1.96001e+8 
           5930      1.93642e+8 
           5950       1.9131e+8 
           5970      1.89047e+8 
           5990      1.86779e+8 
           6010      1.84578e+8 
           6030      1.82392e+8 
           6050      1.80241e+8 
           6070      1.78125e+8 
           6090      1.76033e+8 
           6110      1.73974e+8 
           6130      1.71948e+8 
           6150      1.69935e+8 
           6170      1.67975e+8 
           6190      1.66035e+8 
           6210      1.64128e+8 
           6230      1.62241e+8 
           6250      1.60375e+8 
           6270      1.58548e+8 
           6290      1.56742e+8 
           6310      1.54955e+8 
           6330      1.53206e+8 
           6350      1.51439e+8 
           6370      1.49756e+8 
           6390      1.48091e+8 
           6410      1.46426e+8 
           6430      1.44797e+8 
           6450      1.43185e+8 
           6470       1.4159e+8 
           6490      1.40021e+8 
           6510      1.38478e+8 
           6530      1.36676e+8 
           6550      1.32155e+8 
           6570      1.18504e+8 
           6590      1.31666e+8 
           6610      1.31043e+8 
           6630      1.29645e+8 
           6650       1.2833e+8 
           6670      1.25876e+8 
           6690      1.24544e+8 
           6710      1.24237e+8 
           6730      1.22893e+8 
           6750      1.21595e+8 
           6770      1.20294e+8 
           6790      1.19006e+8 
           6810      1.17756e+8 
           6830       1.1651e+8 
           6850      1.15285e+8 
           6870      1.14072e+8 
           6890      1.12871e+8 
           6910      1.11698e+8 
           6930      1.10521e+8 
           6950      1.09386e+8 
           6970      1.08248e+8 
           6990       1.0712e+8 
           7010      1.06027e+8 
           7030      1.04929e+8 
           7050      1.03857e+8 
           7070      1.01197e+8 
           7090      1.01744e+8 
           7110      1.00703e+8 
           7130      9.96793e+7 
           7150      9.86729e+7 
           7170      9.76542e+7 
           7190       9.6689e+7 
           7210      9.57185e+7 
           7230      9.46276e+7 
           7250      9.38052e+7 
           7270      9.28763e+7 
           7290       9.1219e+7 
           7310      9.10237e+7 
           7330       9.0135e+7 
           7350      8.92477e+7 
           7370      8.83617e+7 
           7390      8.74978e+7 
           7410       8.6635e+7 
           7430      8.57871e+7 
           7450      8.49673e+7 
           7470      8.41349e+7 
           7490      8.33235e+7 
           7510      8.24796e+7 
           7530      8.17164e+7 
           7550      8.09272e+7 
           7570      8.01517e+7 
           7590      7.93833e+7 
           7610      7.86218e+7 
           7630      7.78736e+7 
           7650      7.71322e+7 
           7670      7.63975e+7 
           7690      7.56694e+7 
           7710      7.49541e+7 
           7730      7.42515e+7 
           7750      7.35426e+7 
           7770        7.284e+7 
           7790      7.21809e+7 
           7810      7.14473e+7 
           7830       7.0837e+7 
           7850      7.02564e+7 
           7870      6.96017e+7 
           7890      6.88983e+7 
           7910      6.83276e+7 
           7930       6.7582e+7 
           7950      6.69086e+7 
           7970       6.6247e+7 
           7990      6.56679e+7 
           8010      6.50468e+7 
           8030      6.44719e+7 
           8050      6.39427e+7 
           8070      6.33948e+7 
           8090      6.26845e+7 
           8110      6.21982e+7 
           8130      6.17272e+7 
           8150      6.10503e+7 
           8170      6.06333e+7 
           8190      6.00117e+7 
           8210      5.93676e+7 
           8230      5.90349e+7 
           8250      5.85221e+7 
           8270       5.7683e+7 
           8290      5.74105e+7 
           8310      5.69218e+7 
           8330      5.64099e+7 
           8350      5.56321e+7 
           8370      5.52805e+7 
           8390      5.48727e+7 
           8410      5.43617e+7 
           8430      5.38019e+7 
           8450      5.30357e+7 
           8470      5.26333e+7 
           8490      5.24797e+7 
           8510      5.14696e+7 
           8530      5.17867e+7 
           8550      4.98054e+7 
           8570      5.17096e+7 
