# Kurucz ODFNEW /NOVER (2003)
# teff = 35000 K (value for the effective temperature for the model. Temperatures are given in K)
# logg = 4.5 log(cm/s2) (value for Log(G) for the model.)
# meta = 0.2  (value for the Metallicity for the model.)
# lh = 1.25  (l/Hp where l is the  mixing length of the convective element and Hp is the pressure scale height)
# vtur = 2 km/s (Microturbulence velocity)
# alpha = 0.4  (Alpha)
#
# column 1: WAVELENGTH (ANGSTROM), Wavelength in Angstrom
# column 2: FLUX (ERG/CM2/S/A), Flux in erg/cm2/s/A
          147.2      8.84159e-5 
            151     0.000222855 
          155.2     0.000583478 
          158.8      0.00128044 
            162      0.00249387 
            166      0.00557397 
          170.3       0.0125829 
          173.4       0.0222686 
          176.8       0.0410135 
          180.2       0.0728758 
          181.7       0.0948519 
          186.1        0.191578 
            191        0.404498 
          193.9         0.61678 
          198.4         1.17156 
          201.8         1.85084 
            205           2.809 
          210.5         5.59667 
          216.2         10.8911 
          219.8         16.6024 
            223         23.6527 
          226.8         37.4164 
            230         14715.2 
            234         31779.4 
            240         46779.9 
          246.5         72553.1 
          252.4          118899 
          256.8          162309 
            260          257831 
            264          424610 
          268.5          650751 
          273.5          848371 
          278.5          969579 
            284      1.99724e+6 
            290      2.76222e+6 
            296      3.39988e+6 
            301        5.875e+6 
            308      1.20929e+7 
            318      2.48378e+7 
            328      3.40084e+7 
            338      5.98281e+7 
            348      8.80634e+7 
            357      1.69159e+8 
            366      3.77444e+8 
            375      4.19633e+8 
            385       5.9471e+8 
            395      1.29234e+9 
            405      1.65901e+9 
            414      2.10525e+9 
            422       2.2701e+9 
            430      2.28686e+9 
            441      2.65828e+9 
            451      2.84583e+9 
            460      2.64245e+9 
            470      2.99678e+9 
            480      3.42458e+9 
            490      3.08366e+9 
            500      3.95355e+9 
            506      4.23378e+9 
            512     2.47801e+10 
            520      2.2842e+10 
            530     2.05357e+10 
            540       1.933e+10 
            550     1.96173e+10 
            560     2.68348e+10 
            570      3.0521e+10 
            580     2.83813e+10 
            590     2.93018e+10 
            600     1.95973e+10 
            610      2.5146e+10 
            620     3.22582e+10 
            630     3.08379e+10 
            640      3.1736e+10 
            650     2.95142e+10 
            658     2.07532e+10 
            665     2.80188e+10 
            675     3.32928e+10 
            685     2.48538e+10 
            695     3.28837e+10 
            705     2.27633e+10 
            716     3.50123e+10 
            726     3.41981e+10 
            735     3.41872e+10 
            745      2.9896e+10 
            755     3.01179e+10 
            765     3.07654e+10 
            775     3.22822e+10 
            785     3.10535e+10 
            795     3.25697e+10 
            805     3.03273e+10 
            815     3.01372e+10 
            825     3.21509e+10 
            835     2.41515e+10 
            845     3.03373e+10 
            855     2.95725e+10 
            865     3.06237e+10 
            875      3.0502e+10 
            885     3.05568e+10 
            895     3.04346e+10 
            905     2.92515e+10 
            915     2.78412e+10 
            925      6.1668e+10 
            935     9.16803e+10 
            945     1.13982e+11 
            955     1.26754e+11 
            965     1.41864e+11 
            975     7.08935e+10 
            985     1.16157e+11 
            995      1.0216e+11 
           1005     1.03561e+11 
           1015     1.10146e+11 
           1025     9.05298e+10 
           1035     1.08423e+11 
           1045     1.21658e+11 
           1055     1.15575e+11 
           1065     9.95577e+10 
           1075     1.03158e+11 
           1085     9.45452e+10 
           1095     1.00876e+11 
           1105     9.59051e+10 
           1115     9.40683e+10 
           1125     7.49158e+10 
           1135     8.94722e+10 
           1145     8.66461e+10 
           1155     7.97132e+10 
           1165      7.8495e+10 
           1175     5.54497e+10 
           1185     7.18166e+10 
           1195     6.83536e+10 
           1205     6.59187e+10 
           1215     5.32828e+10 
           1225      6.3578e+10 
           1235     6.72851e+10 
           1245     6.49301e+10 
           1255     6.46625e+10 
           1265     6.57889e+10 
           1275     6.77435e+10 
           1285     6.73868e+10 
           1295      6.3149e+10 
           1305     6.24813e+10 
           1315      6.5345e+10 
           1325       6.315e+10 
           1335     6.12478e+10 
           1345     6.03175e+10 
           1355     5.90119e+10 
           1365      5.6543e+10 
           1375     5.45918e+10 
           1385     5.28302e+10 
           1395     4.10487e+10 
           1405     4.19932e+10 
           1415     5.08057e+10 
           1425     4.53977e+10 
           1435     4.83621e+10 
           1442      4.7361e+10 
           1447     4.72088e+10 
           1455     4.48226e+10 
           1465     4.38828e+10 
           1475     4.40655e+10 
           1485     4.40156e+10 
           1495     4.25489e+10 
           1505     4.14248e+10 
           1512     4.10075e+10 
           1517       4.107e+10 
           1525     3.95435e+10 
           1535      3.4793e+10 
           1545     2.87571e+10 
           1555     2.91331e+10 
           1565     3.27028e+10 
           1575     3.41204e+10 
           1585     3.37796e+10 
           1595     3.39645e+10 
           1605     3.20056e+10 
           1615     3.05257e+10 
           1625     3.11228e+10 
           1635     3.11575e+10 
           1645     3.09066e+10 
           1655     3.10844e+10 
           1665     3.01794e+10 
           1672     2.80581e+10 
           1677     3.25273e+10 
           1685      3.1078e+10 
           1695     3.00384e+10 
           1705      2.9564e+10 
           1715     2.82417e+10 
           1725     2.70631e+10 
           1735     2.79773e+10 
           1745     2.77577e+10 
           1755     2.71977e+10 
           1765     2.66933e+10 
           1775     2.57859e+10 
           1785     2.61103e+10 
           1795      2.5384e+10 
           1805     2.52307e+10 
           1815     2.46504e+10 
           1825      2.4131e+10 
           1835     2.40802e+10 
           1845     2.31215e+10 
           1855      2.3266e+10 
           1865     2.31796e+10 
           1875     2.24326e+10 
           1885     2.16131e+10 
           1895     2.13898e+10 
           1905     2.16537e+10 
           1915     2.10491e+10 
           1925       1.979e+10 
           1935     2.07782e+10 
           1945      2.0826e+10 
           1955      1.9133e+10 
           1967     1.97756e+10 
           1976     1.99741e+10 
           1984     1.94564e+10 
           1995     1.89386e+10 
           2005     1.91859e+10 
           2015     1.90201e+10 
           2025     1.88281e+10 
           2035     1.82214e+10 
           2045      1.7904e+10 
           2055     1.40869e+10 
           2065     1.35108e+10 
           2074     1.39403e+10 
           2078     1.39338e+10 
           2085     1.47625e+10 
           2095     1.58064e+10 
           2105     1.62976e+10 
           2115     1.64387e+10 
           2125     1.59731e+10 
           2135      1.5923e+10 
           2145     1.56611e+10 
           2155     1.56069e+10 
           2165     1.47912e+10 
           2175      1.5201e+10 
           2185     1.46376e+10 
           2195     1.49588e+10 
           2205     1.47111e+10 
           2215     1.40257e+10 
           2225     1.42439e+10 
           2235     1.40383e+10 
           2245     1.37924e+10 
           2255     1.32644e+10 
           2265     1.34192e+10 
           2275     1.32928e+10 
           2285     1.28209e+10 
           2295     1.18061e+10 
           2305     1.22591e+10 
           2315      1.2242e+10 
           2325     1.22324e+10 
           2335     1.20732e+10 
           2345     1.18835e+10 
           2355     1.16279e+10 
           2365     1.14213e+10 
           2375     1.11524e+10 
           2385      1.0616e+10 
           2395     1.07409e+10 
           2405     1.07521e+10 
           2415     1.05664e+10 
           2425     1.05178e+10 
           2435     1.03242e+10 
           2445     1.02078e+10 
           2455     1.00417e+10 
           2465      9.93497e+9 
           2475      9.79766e+9 
           2485      9.42064e+9 
           2495       6.8047e+9 
           2505      8.90699e+9 
           2513      8.69348e+9 
           2518      8.84853e+9 
           2525      9.11921e+9 
           2535      9.06851e+9 
           2545      8.86535e+9 
           2555      8.77993e+9 
           2565      8.64747e+9 
           2575      8.57987e+9 
           2585      8.47754e+9 
           2595       8.2747e+9 
           2605      8.26736e+9 
           2615      8.08195e+9 
           2625      8.04127e+9 
           2635      7.95756e+9 
           2645      7.81673e+9 
           2655      7.74406e+9 
           2665      7.57466e+9 
           2675      7.36335e+9 
           2685      7.40528e+9 
           2695      7.27314e+9 
           2705       7.2277e+9 
           2715      7.11374e+9 
           2725      7.01749e+9 
           2735       6.8187e+9 
           2745       6.8981e+9 
           2755      6.78905e+9 
           2765      6.69026e+9 
           2775      6.65583e+9 
           2785      6.51777e+9 
           2795      6.30147e+9 
           2805      6.35813e+9 
           2815      6.31826e+9 
           2825      6.23065e+9 
           2835      6.12678e+9 
           2845      6.10985e+9 
           2855      6.00935e+9 
           2865      5.90964e+9 
           2875      5.83943e+9 
           2885      5.78409e+9 
           2895      5.70464e+9 
           2910      5.55523e+9 
           2930      5.48842e+9 
           2950       5.3398e+9 
           2970      5.21175e+9 
           2990       5.0466e+9 
           3010      4.88911e+9 
           3030      4.75133e+9 
           3050      4.70421e+9 
           3070      4.61873e+9 
           3090      4.48338e+9 
           3110      4.43174e+9 
           3130      4.30377e+9 
           3150      4.23714e+9 
           3170      4.13211e+9 
           3190      4.05232e+9 
           3210      3.91972e+9 
           3230      3.86447e+9 
           3250      3.80314e+9 
           3270      3.67502e+9 
           3290      3.62317e+9 
           3310      3.53825e+9 
           3330      3.45239e+9 
           3350       3.3606e+9 
           3370      3.30113e+9 
           3390      3.25849e+9 
           3410       3.1863e+9 
           3430      3.13833e+9 
           3450      3.04346e+9 
           3470      3.00038e+9 
           3490      2.94283e+9 
           3510      2.88532e+9 
           3530      2.83282e+9 
           3550      2.77134e+9 
           3570      2.71909e+9 
           3590      2.65787e+9 
           3610      2.60523e+9 
           3630      2.55218e+9 
           3640      2.51171e+9 
           3650      2.36113e+9 
           3670      2.32313e+9 
           3690      2.27796e+9 
           3710      2.20231e+9 
           3730      2.18173e+9 
           3750      2.17773e+9 
           3770      2.13799e+9 
           3790      2.20069e+9 
           3810      2.23485e+9 
           3830      2.04736e+9 
           3850      2.21425e+9 
           3870      2.14327e+9 
           3890      1.91961e+9 
           3910      2.14799e+9 
           3930      2.08318e+9 
           3950      2.02262e+9 
           3970      1.76276e+9 
           3990      1.98752e+9 
           4010      1.95202e+9 
           4030      1.87846e+9 
           4050      1.89287e+9 
           4070      1.81127e+9 
           4090      1.71171e+9 
           4110       1.5876e+9 
           4130      1.73018e+9 
           4150       1.7091e+9 
           4170      1.70234e+9 
           4190      1.66508e+9 
           4210      1.62734e+9 
           4230      1.61673e+9 
           4250      1.57064e+9 
           4270      1.53937e+9 
           4290      1.50664e+9 
           4310      1.46748e+9 
           4330      1.39024e+9 
           4350      1.30156e+9 
           4370      1.40616e+9 
           4390       1.3761e+9 
           4410      1.35849e+9 
           4430      1.34957e+9 
           4450       1.3235e+9 
           4470      1.28303e+9 
           4490      1.28513e+9 
           4510      1.25567e+9 
           4530      1.24356e+9 
           4550      1.21118e+9 
           4570      1.20772e+9 
           4590      1.18293e+9 
           4610      1.16058e+9 
           4630      1.13446e+9 
           4650      1.07758e+9 
           4670       1.1011e+9 
           4690      1.07282e+9 
           4710      1.06295e+9 
           4730      1.07129e+9 
           4750      1.05247e+9 
           4770      1.04022e+9 
           4790      1.02369e+9 
           4810       1.0048e+9 
           4830      9.84807e+8 
           4850       9.3836e+8 
           4870      8.59586e+8 
           4890      9.38558e+8 
           4910       9.2674e+8 
           4930      9.03379e+8 
           4950      8.96432e+8 
           4970      8.91352e+8 
           4990      8.77958e+8 
           5010      8.49769e+8 
           5030       8.4572e+8 
           5050      8.33923e+8 
           5070      8.26741e+8 
           5090      8.13743e+8 
           5110      8.01542e+8 
           5130      7.89321e+8 
           5150      7.77975e+8 
           5170      7.65527e+8 
           5190      7.55596e+8 
           5210      7.45198e+8 
           5230      7.34965e+8 
           5250      7.22145e+8 
           5270      7.10896e+8 
           5290      7.04009e+8 
           5310      6.93505e+8 
           5330      6.83961e+8 
           5350      6.74526e+8 
           5370      6.64978e+8 
           5390       6.5493e+8 
           5410      6.37688e+8 
           5430      6.37663e+8 
           5450      6.28679e+8 
           5470      6.19797e+8 
           5490      6.11402e+8 
           5510      6.02418e+8 
           5530      5.94705e+8 
           5550      5.87026e+8 
           5570      5.78666e+8 
           5590      5.68878e+8 
           5610      5.63548e+8 
           5630      5.56021e+8 
           5650      5.48339e+8 
           5670      5.40388e+8 
           5690      5.25832e+8 
           5710      5.08763e+8 
           5730      5.02636e+8 
           5750      4.95283e+8 
           5770      4.90124e+8 
           5790      4.83687e+8 
           5810      4.76312e+8 
           5830      4.70622e+8 
           5850       4.6687e+8 
           5870      4.53319e+8 
           5890       4.5624e+8 
           5910       4.5224e+8 
           5930       4.4792e+8 
           5950      4.43786e+8 
           5970      4.40437e+8 
           5990      4.36083e+8 
           6010      4.32059e+8 
           6030      4.26825e+8 
           6050      4.22279e+8 
           6070      4.17292e+8 
           6090       4.1227e+8 
           6110        4.068e+8 
           6130      4.01885e+8 
           6150      3.96237e+8 
           6170      3.91268e+8 
           6190      3.87377e+8 
           6210      3.82883e+8 
           6230      3.77575e+8 
           6250      3.73012e+8 
           6270      3.68901e+8 
           6290      3.64407e+8 
           6310      3.58978e+8 
           6330      3.55754e+8 
           6350      3.51097e+8 
           6370      3.47373e+8 
           6390      3.43219e+8 
           6410      3.38348e+8 
           6430      3.35171e+8 
           6450      3.30922e+8 
           6470      3.26486e+8 
           6490      3.22634e+8 
           6510      3.18015e+8 
           6530       3.1341e+8 
           6550       3.0508e+8 
           6570       2.7713e+8 
           6590      3.02741e+8 
           6610      3.01059e+8 
           6630      2.97968e+8 
           6650      2.94287e+8 
           6670      2.87868e+8 
           6690      2.83969e+8 
           6710      2.83551e+8 
           6730      2.80188e+8 
           6750      2.77645e+8 
           6770      2.74971e+8 
           6790      2.71572e+8 
           6810      2.68915e+8 
           6830      2.65776e+8 
           6850      2.62829e+8 
           6870      2.59753e+8 
           6890      2.55271e+8 
           6910      2.53235e+8 
           6930       2.5154e+8 
           6950      2.48738e+8 
           6970      2.46025e+8 
           6990      2.43262e+8 
           7010      2.40205e+8 
           7030      2.37392e+8 
           7050       2.3491e+8 
           7070      2.29859e+8 
           7090      2.30363e+8 
           7110      2.27645e+8 
           7130      2.25273e+8 
           7150      2.23049e+8 
           7170      2.19821e+8 
           7190       2.1782e+8 
           7210       2.1599e+8 
           7230      2.12707e+8 
           7250      2.11105e+8 
           7270      2.09211e+8 
           7290      2.05803e+8 
           7310      2.04643e+8 
           7330      2.02651e+8 
           7350      2.00525e+8 
           7370      1.98405e+8 
           7390      1.96422e+8 
           7410      1.94299e+8 
           7430      1.92374e+8 
           7450      1.90196e+8 
           7470      1.87957e+8 
           7490      1.85786e+8 
           7510       1.8445e+8 
           7530      1.82555e+8 
           7550      1.80809e+8 
           7570      1.78934e+8 
           7590      1.75835e+8 
           7610      1.74918e+8 
           7630      1.73446e+8 
           7650      1.71658e+8 
           7670       1.7013e+8 
           7690        1.678e+8 
           7710      1.66494e+8 
           7730      1.64278e+8 
           7750      1.63356e+8 
           7770      1.61835e+8 
           7790      1.60242e+8 
           7810      1.58644e+8 
           7830      1.57103e+8 
           7850      1.55375e+8 
           7870      1.53649e+8 
           7890       1.5223e+8 
           7910      1.51028e+8 
           7930      1.49578e+8 
           7950      1.48224e+8 
           7970      1.46568e+8 
           7990      1.45274e+8 
           8010       1.4391e+8 
           8030      1.42423e+8 
           8050       1.4121e+8 
           8070      1.39851e+8 
           8090      1.38441e+8 
           8110      1.36528e+8 
           8130       1.3588e+8 
           8150      1.34493e+8 
           8170      1.33254e+8 
           8190      1.31402e+8 
           8210      1.28527e+8 
           8230       1.2683e+8 
           8250      1.26216e+8 
           8270       1.2457e+8 
           8290       1.2397e+8 
           8310      1.22998e+8 
           8330      1.21534e+8 
           8350      1.20152e+8 
           8370      1.19385e+8 
           8390      1.18581e+8 
           8410      1.17427e+8 
           8430      1.16462e+8 
           8450      1.15067e+8 
           8470      1.14404e+8 
           8490      1.13306e+8 
           8510      1.11921e+8 
           8530       1.1135e+8 
           8550       1.1015e+8 
           8570       1.0979e+8 
