# Kurucz ODFNEW /NOVER (2003)
# teff = 22000 K (value for the effective temperature for the model. Temperatures are given in K)
# logg = 4 log(cm/s2) (value for Log(G) for the model.)
# meta = -1.5  (value for the Metallicity for the model.)
# lh = 1.25  (l/Hp where l is the  mixing length of the convective element and Hp is the pressure scale height)
# vtur = 2 km/s (Microturbulence velocity)
# alpha = 0.4  (Alpha)
#
# column 1: WAVELENGTH (ANGSTROM), Wavelength in Angstrom
# column 2: FLUX (ERG/CM2/S/A), Flux in erg/cm2/s/A
          147.2     9.77769e-18 
            151     5.49803e-17 
          155.2     3.38519e-16 
          158.8     1.49796e-15 
            162     5.33844e-15 
            166     2.45033e-14 
          170.3     1.16939e-13 
          173.4      3.4471e-13 
          176.8     1.08219e-12 
          180.2      3.2596e-12 
          181.7     5.23498e-12 
          186.1     2.01368e-11 
            191       8.404e-11 
          193.9     1.89321e-10 
          198.4      6.3725e-10 
          201.8      1.53834e-9 
            205      3.43283e-9 
          210.5      1.28841e-8 
          216.2      4.72233e-8 
          219.8       1.0354e-7 
            223       2.0358e-7 
          226.8      4.43053e-7 
            230      3.26402e-6 
            234      7.84612e-6 
            240      2.19615e-5 
          246.5      6.31414e-5 
          252.4     0.000158342 
          256.8     0.000297288 
            260     0.000480486 
            264     0.000839231 
          268.5      0.00153755 
          273.5      0.00293981 
          278.5      0.00550069 
            284       0.0106728 
            290       0.0213159 
            296       0.0412925 
            301        0.070243 
            308        0.141051 
            318        0.376156 
            328         0.92372 
            338         2.15682 
            348         4.77351 
            357         9.39658 
            366         17.8772 
            375         32.7209 
            385         62.0228 
            395         113.312 
            405         200.727 
            414         327.789 
            422         495.948 
            430         737.302 
            441         1247.03 
            451         1960.69 
            460         2887.96 
            470         4360.78 
            480         6456.72 
            490         9399.72 
            500         13454.1 
            506          106240 
            512          327072 
            520          413608 
            530          583361 
            540          648179 
            550          933168 
            560      1.13097e+6 
            570      1.40117e+6 
            580      1.43211e+6 
            590      1.91536e+6 
            600      2.39202e+6 
            610      2.87321e+6 
            620      3.33578e+6 
            630      3.92752e+6 
            640      4.43393e+6 
            650      5.12129e+6 
            658      5.88043e+6 
            665      6.42099e+6 
            675      7.15581e+6 
            685      8.08657e+6 
            695      9.42867e+6 
            705      1.05062e+7 
            716      1.19635e+7 
            726      1.32522e+7 
            735      1.46828e+7 
            745       1.6443e+7 
            755       1.8221e+7 
            765      2.00272e+7 
            775      2.21575e+7 
            785      2.43256e+7 
            795      2.64105e+7 
            805      2.88297e+7 
            815      3.11984e+7 
            825       3.4014e+7 
            835      3.60636e+7 
            845        3.938e+7 
            855      4.22474e+7 
            865      4.56707e+7 
            875      4.91336e+7 
            885      5.28665e+7 
            895      5.64512e+7 
            905      5.91525e+7 
            915      9.60064e+7 
            925      6.21304e+8 
            935      2.22791e+9 
            945       7.7858e+9 
            955     1.19489e+10 
            965     1.58576e+10 
            975      4.92121e+9 
            985     1.85382e+10 
            995      1.7839e+10 
           1005     1.86144e+10 
           1015     1.66273e+10 
           1025      4.51161e+9 
           1035     1.38559e+10 
           1045     1.91558e+10 
           1055     1.85785e+10 
           1065     1.65917e+10 
           1075     1.77609e+10 
           1085     1.64308e+10 
           1095     1.75567e+10 
           1105     1.62293e+10 
           1115     1.60761e+10 
           1125     1.49632e+10 
           1135     1.59716e+10 
           1145     1.47476e+10 
           1155     1.52739e+10 
           1165     1.52024e+10 
           1175     1.28087e+10 
           1185     1.45814e+10 
           1195     1.30629e+10 
           1205      9.70062e+9 
           1215      3.24892e+9 
           1225     1.04353e+10 
           1235     1.27825e+10 
           1245     1.29024e+10 
           1255     1.25232e+10 
           1265     1.23201e+10 
           1275      1.2459e+10 
           1285      1.2176e+10 
           1295     1.04333e+10 
           1305     1.04355e+10 
           1315     1.15039e+10 
           1325     1.10616e+10 
           1335     1.05993e+10 
           1345     1.06572e+10 
           1355     1.06679e+10 
           1365     1.02069e+10 
           1375     1.00679e+10 
           1385      9.99571e+9 
           1395      9.11612e+9 
           1405      9.23376e+9 
           1415      9.37578e+9 
           1425      9.20458e+9 
           1435      9.14077e+9 
           1442      9.14772e+9 
           1447       9.0274e+9 
           1455      8.86185e+9 
           1465       8.6342e+9 
           1475      8.49848e+9 
           1485      8.30189e+9 
           1495      8.16238e+9 
           1505      7.82391e+9 
           1512      7.62343e+9 
           1517      7.67672e+9 
           1525      7.57938e+9 
           1535       7.1802e+9 
           1545      7.22344e+9 
           1555      6.94964e+9 
           1565      7.03399e+9 
           1575      7.04048e+9 
           1585      6.91354e+9 
           1595      6.85599e+9 
           1605      6.63628e+9 
           1615      6.52705e+9 
           1625      6.48206e+9 
           1635      6.46502e+9 
           1645      6.31399e+9 
           1655      6.22568e+9 
           1665       6.1999e+9 
           1672      6.03827e+9 
           1677      6.12944e+9 
           1685      6.03741e+9 
           1695      5.88443e+9 
           1705      5.73616e+9 
           1715      5.56815e+9 
           1725      5.50099e+9 
           1735      5.47268e+9 
           1745      5.37401e+9 
           1755      5.35808e+9 
           1765      5.12762e+9 
           1775      5.10002e+9 
           1785      5.05262e+9 
           1795      5.04664e+9 
           1805      4.98983e+9 
           1815       4.8291e+9 
           1825      4.81411e+9 
           1835       4.7262e+9 
           1845      4.48951e+9 
           1855      4.40204e+9 
           1865      4.40825e+9 
           1875      4.43979e+9 
           1885      4.19677e+9 
           1895      4.02398e+9 
           1905      4.15386e+9 
           1915      4.00478e+9 
           1925       3.9158e+9 
           1935      3.96246e+9 
           1945      3.97221e+9 
           1955       3.7654e+9 
           1967      3.84627e+9 
           1976      3.89024e+9 
           1984      3.73556e+9 
           1995       3.6304e+9 
           2005      3.66316e+9 
           2015      3.65212e+9 
           2025      3.65252e+9 
           2035      3.52465e+9 
           2045      3.48513e+9 
           2055      3.37877e+9 
           2065      3.38482e+9 
           2074        3.424e+9 
           2078      3.32332e+9 
           2085      3.32583e+9 
           2095      3.22832e+9 
           2105      3.24805e+9 
           2115      3.21892e+9 
           2125      3.21615e+9 
           2135      3.16097e+9 
           2145      3.08817e+9 
           2155      3.08399e+9 
           2165      3.04689e+9 
           2175      3.00165e+9 
           2185      2.96753e+9 
           2195      2.94032e+9 
           2205      2.89938e+9 
           2215      2.86327e+9 
           2225      2.81659e+9 
           2235      2.78337e+9 
           2245      2.75975e+9 
           2255       2.7154e+9 
           2265      2.69324e+9 
           2275      2.65848e+9 
           2285      2.63187e+9 
           2295      2.56714e+9 
           2305      2.56385e+9 
           2315      2.52403e+9 
           2325      2.49686e+9 
           2335      2.44926e+9 
           2345      2.41766e+9 
           2355      2.40811e+9 
           2365      2.37108e+9 
           2375      2.34495e+9 
           2385      2.30983e+9 
           2395      2.28736e+9 
           2405       2.2605e+9 
           2415      2.22825e+9 
           2425      2.21818e+9 
           2435      2.18443e+9 
           2445      2.16193e+9 
           2455      2.14242e+9 
           2465       2.1136e+9 
           2475      2.09047e+9 
           2485      2.06611e+9 
           2495      2.00577e+9 
           2505      2.01704e+9 
           2513      1.97541e+9 
           2518      1.98349e+9 
           2525      1.96784e+9 
           2535      1.94332e+9 
           2545       1.9083e+9 
           2555      1.90511e+9 
           2565      1.87803e+9 
           2575      1.86728e+9 
           2585      1.84637e+9 
           2595      1.82529e+9 
           2605      1.81624e+9 
           2615      1.79847e+9 
           2625      1.78031e+9 
           2635      1.75608e+9 
           2645      1.74331e+9 
           2655      1.72197e+9 
           2665      1.69682e+9 
           2675      1.68026e+9 
           2685      1.67378e+9 
           2695      1.64017e+9 
           2705      1.63661e+9 
           2715      1.61865e+9 
           2725      1.58715e+9 
           2735      1.58504e+9 
           2745      1.55606e+9 
           2755      1.54295e+9 
           2765      1.51988e+9 
           2775      1.52005e+9 
           2785      1.50275e+9 
           2795      1.45584e+9 
           2805      1.46042e+9 
           2815      1.45748e+9 
           2825      1.42669e+9 
           2835      1.40891e+9 
           2845      1.41154e+9 
           2855      1.39733e+9 
           2865      1.38401e+9 
           2875      1.36952e+9 
           2885      1.35588e+9 
           2895      1.34204e+9 
           2910      1.32121e+9 
           2930      1.29283e+9 
           2950      1.25947e+9 
           2970      1.24406e+9 
           2990      1.21833e+9 
           3010      1.19492e+9 
           3030      1.17267e+9 
           3050      1.14993e+9 
           3070       1.1278e+9 
           3090      1.10417e+9 
           3110      1.08484e+9 
           3130       1.0654e+9 
           3150      1.04539e+9 
           3170      1.02519e+9 
           3190      9.97568e+8 
           3210       9.8726e+8 
           3230      9.68789e+8 
           3250      9.50981e+8 
           3270      9.34768e+8 
           3290      9.16407e+8 
           3310      9.01275e+8 
           3330      8.85045e+8 
           3350      8.67527e+8 
           3370      8.53678e+8 
           3390      8.38619e+8 
           3410      8.23886e+8 
           3430       8.0566e+8 
           3450      7.88687e+8 
           3470      7.77369e+8 
           3490      7.63907e+8 
           3510      7.53514e+8 
           3530      7.42248e+8 
           3550      7.29843e+8 
           3570      7.21127e+8 
           3590      7.04638e+8 
           3610      6.94192e+8 
           3630       6.8136e+8 
           3640      6.80095e+8 
           3650      6.68824e+8 
           3670      6.60799e+8 
           3690      6.45465e+8 
           3710      6.24867e+8 
           3730       6.0367e+8 
           3750      6.49997e+8 
           3770      6.56717e+8 
           3790      6.98245e+8 
           3810      7.32276e+8 
           3830      6.33143e+8 
           3850      7.57602e+8 
           3870      7.65286e+8 
           3890      5.99447e+8 
           3910      7.54711e+8 
           3930       7.4239e+8 
           3950      7.30883e+8 
           3970      5.57819e+8 
           3990       7.0111e+8 
           4010      6.98327e+8 
           4030      6.56248e+8 
           4050      6.83108e+8 
           4070      6.67132e+8 
           4090      6.10808e+8 
           4110      5.28203e+8 
           4130      6.25272e+8 
           4150      6.21645e+8 
           4170      6.16952e+8 
           4190      6.08952e+8 
           4210      5.99546e+8 
           4230      5.89637e+8 
           4250      5.79637e+8 
           4270       5.6767e+8 
           4290      5.60137e+8 
           4310      5.47853e+8 
           4330      4.91927e+8 
           4350      4.46182e+8 
           4370      5.20819e+8 
           4390       5.0201e+8 
           4410      5.09264e+8 
           4430      4.99512e+8 
           4450       4.9429e+8 
           4470      4.63914e+8 
           4490      4.77581e+8 
           4510      4.72076e+8 
           4530      4.64668e+8 
           4550      4.57316e+8 
           4570      4.50256e+8 
           4590      4.43694e+8 
           4610      4.37069e+8 
           4630      4.30525e+8 
           4650      4.23014e+8 
           4670      4.17636e+8 
           4690      4.11753e+8 
           4710      3.99602e+8 
           4730      3.99059e+8 
           4750      3.92817e+8 
           4770      3.88172e+8 
           4790      3.82425e+8 
           4810      3.75979e+8 
           4830      3.68334e+8 
           4850      3.37419e+8 
           4870       2.9939e+8 
           4890      3.51489e+8 
           4910      3.49178e+8 
           4930      3.36384e+8 
           4950      3.40621e+8 
           4970      3.36009e+8 
           4990      3.31248e+8 
           5010       3.2202e+8 
           5030       3.2201e+8 
           5050      3.14826e+8 
           5070      3.13227e+8 
           5090       3.0888e+8 
           5110       3.0462e+8 
           5130       3.0036e+8 
           5150       2.9627e+8 
           5170      2.92333e+8 
           5190      2.88378e+8 
           5210       2.8417e+8 
           5230      2.80665e+8 
           5250      2.76904e+8 
           5270      2.73192e+8 
           5290      2.69568e+8 
           5310      2.65992e+8 
           5330      2.62434e+8 
           5350      2.58883e+8 
           5370      2.55626e+8 
           5390      2.52267e+8 
           5410      2.48964e+8 
           5430      2.45613e+8 
           5450      2.42482e+8 
           5470      2.39365e+8 
           5490      2.36336e+8 
           5510      2.33284e+8 
           5530      2.30293e+8 
           5550      2.27377e+8 
           5570      2.24472e+8 
           5590      2.21639e+8 
           5610      2.18793e+8 
           5630      2.16088e+8 
           5650       2.1318e+8 
           5670      2.10542e+8 
           5690      2.07959e+8 
           5710      2.05477e+8 
           5730      2.02943e+8 
           5750      2.00394e+8 
           5770      1.97978e+8 
           5790      1.95545e+8 
           5810      1.93152e+8 
           5830      1.90787e+8 
           5850      1.88472e+8 
           5870      1.80411e+8 
           5890      1.83586e+8 
           5910       1.8172e+8 
           5930      1.79543e+8 
           5950      1.77338e+8 
           5970      1.75285e+8 
           5990      1.73161e+8 
           6010      1.71144e+8 
           6030       1.6912e+8 
           6050      1.67129e+8 
           6070       1.6516e+8 
           6090      1.63224e+8 
           6110       1.6133e+8 
           6130      1.59446e+8 
           6150      1.57555e+8 
           6170      1.55773e+8 
           6190      1.53981e+8 
           6210      1.52209e+8 
           6230      1.50457e+8 
           6250      1.48724e+8 
           6270      1.47039e+8 
           6290      1.45363e+8 
           6310      1.43705e+8 
           6330      1.42093e+8 
           6350       1.4034e+8 
           6370      1.38847e+8 
           6390      1.37352e+8 
           6410      1.35809e+8 
           6430      1.34318e+8 
           6450      1.32816e+8 
           6470       1.3133e+8 
           6490      1.29878e+8 
           6510      1.28344e+8 
           6530      1.26357e+8 
           6550      1.20274e+8 
           6570      1.06286e+8 
           6590        1.213e+8 
           6610      1.21282e+8 
           6630      1.20277e+8 
           6650      1.19061e+8 
           6670      1.16578e+8 
           6690      1.15352e+8 
           6710      1.15268e+8 
           6730      1.14035e+8 
           6750      1.12831e+8 
           6770      1.11631e+8 
           6790      1.10402e+8 
           6810      1.09275e+8 
           6830      1.08119e+8 
           6850      1.06983e+8 
           6870      1.05866e+8 
           6890      1.04753e+8 
           6910      1.03666e+8 
           6930      1.02574e+8 
           6950      1.01524e+8 
           6970       1.0047e+8 
           6990      9.94252e+7 
           7010      9.84064e+7 
           7030      9.73975e+7 
           7050      9.63985e+7 
           7070      9.38566e+7 
           7090      9.44445e+7 
           7110      9.34891e+7 
           7130      9.25355e+7 
           7150      9.15985e+7 
           7170      9.06632e+7 
           7190       8.9766e+7 
           7210      8.88701e+7 
           7230      8.77449e+7 
           7250      8.70966e+7 
           7270      8.62332e+7 
           7290      8.46761e+7 
           7310      8.45165e+7 
           7330      8.36983e+7 
           7350      8.28738e+7 
           7370      8.20571e+7 
           7390      8.12548e+7 
           7410        8.046e+7 
           7430      7.96726e+7 
           7450      7.89128e+7 
           7470      7.81397e+7 
           7490      7.73872e+7 
           7510      7.66149e+7 
           7530      7.59028e+7 
           7550      7.51774e+7 
           7570      7.44585e+7 
           7590      7.37396e+7 
           7610      7.30403e+7 
           7630      7.23473e+7 
           7650      7.16541e+7 
           7670      7.09799e+7 
           7690      7.03054e+7 
           7710      6.96432e+7 
           7730       6.8987e+7 
           7750      6.83429e+7 
           7770      6.76233e+7 
           7790      6.70717e+7 
           7810      6.63951e+7 
           7830       6.5829e+7 
           7850      6.52739e+7 
           7870      6.46749e+7 
           7890      6.40207e+7 
           7910      6.35046e+7 
           7930      6.29151e+7 
           7950      6.22413e+7 
           7970      6.15972e+7 
           7990      6.10355e+7 
           8010      6.04786e+7 
           8030      5.99323e+7 
           8050      5.93965e+7 
           8070      5.89232e+7 
           8090      5.82638e+7 
           8110      5.78336e+7 
           8130      5.73613e+7 
           8150      5.67682e+7 
           8170      5.63726e+7 
           8190      5.57842e+7 
           8210       5.5135e+7 
           8230      5.48111e+7 
           8250      5.43548e+7 
           8270      5.35898e+7 
           8290      5.33507e+7 
           8310      5.29033e+7 
           8330      5.24226e+7 
           8350      5.16963e+7 
           8370      5.14065e+7 
           8390      5.10403e+7 
           8410      5.05794e+7 
           8430      5.00656e+7 
           8450      4.92902e+7 
           8470      4.90756e+7 
           8490      4.86847e+7 
           8510      4.80264e+7 
           8530       4.7949e+7 
           8550      4.65464e+7 
           8570      4.78031e+7 
