# Kurucz ODFNEW /NOVER (2003)
# teff = 6750 K (value for the effective temperature for the model. Temperatures are given in K)
# logg = 3 log(cm/s2) (value for Log(G) for the model.)
# meta = -4  (value for the Metallicity for the model.)
# lh = 1.25  (l/Hp where l is the  mixing length of the convective element and Hp is the pressure scale height)
# vtur = 2 km/s (Microturbulence velocity)
# alpha = 0.4  (Alpha)
#
# column 1: WAVELENGTH (ANGSTROM), Wavelength in Angstrom
# column 2: FLUX (ERG/CM2/S/A), Flux in erg/cm2/s/A
          147.2     1.73866e-35 
            151     1.65225e-35 
          155.2     1.56403e-35 
          158.8     1.49392e-35 
            162     1.43549e-35 
            166     1.36714e-35 
          170.3     1.29897e-35 
          173.4     1.25294e-35 
          176.8     1.20522e-35 
          180.2     1.16017e-35 
          181.7     1.14109e-35 
          186.1     1.08777e-35 
            191     1.03267e-35 
          193.9     1.00201e-35 
          198.4     9.57076e-36 
          201.8     9.25097e-36 
            205     8.96441e-36 
          210.5     8.50208e-36 
          216.2     8.05969e-36 
          219.8     7.79784e-36 
            223     7.57565e-36 
          226.8     7.32392e-36 
            230     7.12154e-36 
            234     6.88015e-36 
            240     6.54044e-36 
          246.5     6.20006e-36 
          252.4     5.91358e-36 
          256.8     5.71267e-36 
            260     5.57292e-36 
            264     5.40532e-36 
          268.5     5.22566e-36 
          273.5     5.03634e-36 
          278.5     4.85712e-36 
            284     4.67082e-36 
            290     4.47954e-36 
            296     4.29978e-36 
            301     4.15812e-36 
            308     3.97126e-36 
            318     3.72542e-36 
            328     2.23053e-23 
            338     3.12011e-22 
            348     3.02456e-21 
            357     2.07748e-20 
            366     1.29325e-19 
            375     7.35188e-19 
            385     4.59344e-18 
            395     2.60723e-17 
            405     1.35398e-16 
            414       5.557e-16 
            422     1.84984e-15 
            430     5.87792e-15 
            441     2.68327e-14 
            451     9.97902e-14 
            460     3.09288e-13 
            470     1.03092e-12 
            480      3.2609e-12 
            490      9.8196e-12 
            500     2.82366e-11 
            506     4.95079e-11 
            512     9.31606e-11 
            520     2.05529e-10 
            530     5.22754e-10 
            540       1.2822e-9 
            550      3.03887e-9 
            560      6.97238e-9 
            570      1.55133e-8 
            580      3.35282e-8 
            590      7.04909e-8 
            600      1.44371e-7 
            610      2.88424e-7 
            620      5.62732e-7 
            630      1.07352e-6 
            640       2.0045e-6 
            650      3.66734e-6 
            658      5.86285e-6 
            665      8.75237e-6 
            675      1.52767e-5 
            685      2.62067e-5 
            695       4.4217e-5 
            705      7.34313e-5 
            716     0.000126065 
            726      0.00020294 
            735      0.00030782 
            745     0.000482864 
            755     0.000747808 
            765      0.00114398 
            775      0.00172946 
            785       0.0025851 
            795      0.00382204 
            805      0.00559195 
            815      0.00809921 
            825        0.011617 
            835       0.0165075 
            845       0.0232461 
            855       0.0324522 
            865     5.03498e-37 
            875     4.92055e-37 
            885     4.80998e-37 
            895     4.70309e-37 
            905     4.59973e-37 
            915          0.2237 
            925        0.758456 
            935         1.15614 
            945           1.835 
            955         2.63988 
            965         3.03402 
            975         2.07691 
            985         5.97812 
            995         7.29162 
           1005         8.03048 
           1015         5.35095 
           1025         8.44842 
           1035         12.7059 
           1045          20.295 
           1055         26.0364 
           1065         33.6332 
           1075         40.5605 
           1085         49.1831 
           1095         56.6276 
           1105         65.3632 
           1115         74.9474 
           1125         84.2147 
           1135          93.505 
           1145         104.988 
           1155         56.4434 
           1165           39.94 
           1175         32.1876 
           1185         197.617 
           1195         151.143 
           1205         141.821 
           1215         118.578 
           1225         182.823 
           1235         260.881 
           1245         57.1574 
           1255         76.9568 
           1265         109.999 
           1275         160.089 
           1285         257.583 
           1295         414.216 
           1305         763.889 
           1315         956.821 
           1325         1124.66 
           1335         1332.59 
           1345         1567.89 
           1355         1828.92 
           1365          2112.3 
           1375         2443.95 
           1385         2803.14 
           1395         3208.93 
           1405         3654.08 
           1415         4145.44 
           1425          4676.5 
           1435         5267.05 
           1442         5753.58 
           1447         6035.78 
           1455         6625.16 
           1465          7310.7 
           1475         8156.49 
           1485          9032.9 
           1495         10065.1 
           1505         11129.3 
           1512         11951.6 
           1517         12287.8 
           1525         13285.8 
           1535         14474.1 
           1545         15574.4 
           1555         16877.9 
           1565         17814.9 
           1575         19449.8 
           1585         20929.7 
           1595         22551.7 
           1605         24272.2 
           1615         26865.7 
           1625         30362.3 
           1635           35756 
           1645         56261.1 
           1655          114186 
           1665          343282 
           1672          552551 
           1677          783457 
           1685      1.14572e+6 
           1695      1.65023e+6 
           1705      2.13595e+6 
           1715      2.61744e+6 
           1725      2.94319e+6 
           1735      3.26429e+6 
           1745       3.3919e+6 
           1755      3.62195e+6 
           1765      3.68576e+6 
           1775      3.87165e+6 
           1785      4.00338e+6 
           1795      4.22759e+6 
           1805      4.25719e+6 
           1815      4.38813e+6 
           1825      4.46131e+6 
           1835      4.63312e+6 
           1845      4.56587e+6 
           1855      4.81632e+6 
           1865      5.00526e+6 
           1875      5.09968e+6 
           1885      5.21768e+6 
           1895      5.33334e+6 
           1905       5.3374e+6 
           1915      5.54941e+6 
           1925       5.6933e+6 
           1935      5.68079e+6 
           1945      5.89817e+6 
           1955      5.99225e+6 
           1967      6.12656e+6 
           1976      6.10262e+6 
           1984      6.15562e+6 
           1995      6.35902e+6 
           2005      6.38646e+6 
           2015      6.46185e+6 
           2025      6.46305e+6 
           2035      6.70908e+6 
           2045      6.79397e+6 
           2055      6.76352e+6 
           2065      6.85958e+6 
           2074      7.07851e+6 
           2078      7.10598e+6 
           2085      7.12022e+6 
           2095      7.20194e+6 
           2105      7.26588e+6 
           2115      7.37133e+6 
           2125      7.36319e+6 
           2135      7.45487e+6 
           2145      7.59178e+6 
           2155      7.64601e+6 
           2165      7.58671e+6 
           2175      7.70202e+6 
           2185      7.83898e+6 
           2195      7.96851e+6 
           2205        7.915e+6 
           2215      7.75232e+6 
           2225      8.00392e+6 
           2235      8.24016e+6 
           2245      8.23793e+6 
           2255      8.14132e+6 
           2265      8.08134e+6 
           2275      8.33072e+6 
           2285      8.41959e+6 
           2295      8.40502e+6 
           2305      8.54214e+6 
           2315      8.55145e+6 
           2325      8.59373e+6 
           2335      8.59836e+6 
           2345      8.37173e+6 
           2355      8.75182e+6 
           2365      8.50823e+6 
           2375        8.766e+6 
           2385       8.4072e+6 
           2395      8.78572e+6 
           2405      8.84438e+6 
           2415      8.89337e+6 
           2425      9.21416e+6 
           2435      9.12783e+6 
           2445      9.22977e+6 
           2455      9.30475e+6 
           2465      9.24181e+6 
           2475      9.24415e+6 
           2485      9.20467e+6 
           2495      9.20669e+6 
           2505      9.45512e+6 
           2513      9.22142e+6 
           2518      9.20563e+6 
           2525      9.16116e+6 
           2535      9.26959e+6 
           2545      9.43827e+6 
           2555      9.69117e+6 
           2565      9.63178e+6 
           2575      9.74234e+6 
           2585      9.80016e+6 
           2595      9.79079e+6 
           2605      9.72687e+6 
           2615      9.71487e+6 
           2625       9.7651e+6 
           2635      9.89459e+6 
           2645      1.02227e+7 
           2655      1.02485e+7 
           2665      1.01563e+7 
           2675      1.02137e+7 
           2685      1.03426e+7 
           2695      1.03257e+7 
           2705      1.03818e+7 
           2715      1.02252e+7 
           2725      1.02563e+7 
           2735      1.03174e+7 
           2745      9.99392e+6 
           2755      1.01017e+7 
           2765      1.03485e+7 
           2775      1.05446e+7 
           2785      1.05166e+7 
           2795      9.82232e+6 
           2805      1.02284e+7 
           2815      1.07282e+7 
           2825      1.07459e+7 
           2835      1.06786e+7 
           2845      1.07303e+7 
           2855      1.05563e+7 
           2865      1.06994e+7 
           2875      1.07924e+7 
           2885      1.07467e+7 
           2895      1.09022e+7 
           2910      1.09543e+7 
           2930      1.09027e+7 
           2950      1.09008e+7 
           2970      1.09954e+7 
           2990      1.10135e+7 
           3010      1.10943e+7 
           3030      1.11256e+7 
           3050      1.11814e+7 
           3070      1.11561e+7 
           3090       1.1243e+7 
           3110      1.12811e+7 
           3130      1.13101e+7 
           3150      1.13214e+7 
           3170      1.13537e+7 
           3190      1.13155e+7 
           3210      1.13873e+7 
           3230       1.1307e+7 
           3250      1.14062e+7 
           3270      1.14859e+7 
           3290      1.15165e+7 
           3310      1.15363e+7 
           3330      1.15048e+7 
           3350      1.14689e+7 
           3370      1.15057e+7 
           3390      1.15195e+7 
           3410      1.15937e+7 
           3430      1.16039e+7 
           3450      1.15917e+7 
           3470      1.16061e+7 
           3490      1.16247e+7 
           3510      1.16385e+7 
           3530      1.16484e+7 
           3550      1.16581e+7 
           3570      1.16363e+7 
           3590      1.16438e+7 
           3610      1.16475e+7 
           3630      1.16559e+7 
           3640      1.16574e+7 
           3650      1.17089e+7 
           3670      1.16205e+7 
           3690      1.13652e+7 
           3710      1.29522e+7 
           3730      1.41478e+7 
           3750      1.74497e+7 
           3770      1.80735e+7 
           3790      2.00585e+7 
           3810      2.21873e+7 
           3830      1.90567e+7 
           3850      2.34781e+7 
           3870      2.47377e+7 
           3890      1.80217e+7 
           3910      2.46225e+7 
           3930      2.48699e+7 
           3950      2.45149e+7 
           3970      1.76517e+7 
           3990      2.39998e+7 
           4010      2.48809e+7 
           4030      2.48526e+7 
           4050      2.46881e+7 
           4070      2.42846e+7 
           4090      2.18262e+7 
           4110      1.83504e+7 
           4130      2.37299e+7 
           4150       2.3972e+7 
           4170      2.39073e+7 
           4190      2.38126e+7 
           4210      2.36762e+7 
           4230      2.35223e+7 
           4250      2.33828e+7 
           4270      2.31911e+7 
           4290      2.29979e+7 
           4310      2.25943e+7 
           4330      1.98879e+7 
           4350      1.77332e+7 
           4370      2.21162e+7 
           4390      2.22964e+7 
           4410      2.22321e+7 
           4430      2.21604e+7 
           4450      2.20245e+7 
           4470      2.18919e+7 
           4490      2.17627e+7 
           4510      2.16294e+7 
           4530      2.14958e+7 
           4550        2.136e+7 
           4570      2.12348e+7 
           4590      2.11073e+7 
           4610      2.09795e+7 
           4630      2.08496e+7 
           4650      2.07229e+7 
           4670      2.05959e+7 
           4690      2.04669e+7 
           4710      2.03376e+7 
           4730      2.02131e+7 
           4750      2.00883e+7 
           4770        1.996e+7 
           4790      1.97871e+7 
           4810      1.96098e+7 
           4830       1.9275e+7 
           4850      1.74075e+7 
           4870      1.50929e+7 
           4890      1.87765e+7 
           4910      1.89864e+7 
           4930      1.89334e+7 
           4950      1.88668e+7 
           4970       1.8758e+7 
           4990      1.86412e+7 
           5010      1.85227e+7 
           5030      1.84099e+7 
           5050      1.82954e+7 
           5070      1.81822e+7 
           5090      1.80701e+7 
           5110      1.79578e+7 
           5130      1.78452e+7 
           5150      1.77339e+7 
           5170      1.75998e+7 
           5190      1.75035e+7 
           5210      1.74041e+7 
           5230      1.72947e+7 
           5250      1.71905e+7 
           5270      1.70792e+7 
           5290      1.69759e+7 
           5310      1.68697e+7 
           5330      1.67632e+7 
           5350      1.66618e+7 
           5370      1.65575e+7 
           5390      1.64543e+7 
           5410      1.63522e+7 
           5430      1.62498e+7 
           5450      1.61485e+7 
           5470      1.60496e+7 
           5490      1.59503e+7 
           5510      1.58521e+7 
           5530      1.57537e+7 
           5550      1.56562e+7 
           5570      1.55586e+7 
           5590      1.54619e+7 
           5610      1.53674e+7 
           5630      1.52727e+7 
           5650      1.51777e+7 
           5670      1.50849e+7 
           5690      1.49919e+7 
           5710      1.48986e+7 
           5730      1.48074e+7 
           5750      1.47159e+7 
           5770      1.46254e+7 
           5790      1.45358e+7 
           5810      1.44459e+7 
           5830       1.4357e+7 
           5850      1.42689e+7 
           5870      1.41817e+7 
           5890      1.40909e+7 
           5910      1.40076e+7 
           5930      1.39218e+7 
           5950      1.38358e+7 
           5970      1.37507e+7 
           5990      1.36664e+7 
           6010      1.35829e+7 
           6030      1.35002e+7 
           6050      1.34172e+7 
           6070      1.33351e+7 
           6090      1.32538e+7 
           6110      1.31732e+7 
           6130      1.30924e+7 
           6150      1.30123e+7 
           6170      1.29331e+7 
           6190      1.28545e+7 
           6210      1.27768e+7 
           6230      1.26997e+7 
           6250      1.26224e+7 
           6270      1.25459e+7 
           6290        1.247e+7 
           6310      1.23949e+7 
           6330      1.23195e+7 
           6350      1.22457e+7 
           6370      1.21718e+7 
           6390      1.20985e+7 
           6410      1.20249e+7 
           6430       1.1953e+7 
           6450      1.18798e+7 
           6470      1.18083e+7 
           6490       1.1716e+7 
           6510      1.16156e+7 
           6530      1.14554e+7 
           6550      1.07823e+7 
           6570      9.20508e+6 
           6590      1.11289e+7 
           6610      1.12479e+7 
           6630      1.12221e+7 
           6650      1.11837e+7 
           6670      1.11209e+7 
           6690      1.10546e+7 
           6710      1.09888e+7 
           6730      1.09235e+7 
           6750      1.08581e+7 
           6770      1.07932e+7 
           6790      1.07297e+7 
           6810       1.0666e+7 
           6830      1.06028e+7 
           6850      1.05402e+7 
           6870      1.04773e+7 
           6890      1.04157e+7 
           6910       1.0354e+7 
           6930      1.02927e+7 
           6950       1.0232e+7 
           6970      1.01718e+7 
           6990      1.01121e+7 
           7010       1.0053e+7 
           7030      9.99359e+6 
           7050      9.93545e+6 
           7070      9.87706e+6 
           7090      9.81917e+6 
           7110      9.76177e+6 
           7130      9.70486e+6 
           7150      9.64843e+6 
           7170      9.59175e+6 
           7190      9.53627e+6 
           7210      9.48054e+6 
           7230      9.42528e+6 
           7250      9.37048e+6 
           7270      9.31615e+6 
           7290      9.26226e+6 
           7310      9.20813e+6 
           7330      9.15514e+6 
           7350       9.1019e+6 
           7370       9.0491e+6 
           7390      8.99673e+6 
           7410       8.9448e+6 
           7430       8.8933e+6 
           7450      8.84222e+6 
           7470      8.79089e+6 
           7490      8.74064e+6 
           7510      8.69014e+6 
           7530      8.64072e+6 
           7550      8.59104e+6 
           7570      8.54176e+6 
           7590      8.49288e+6 
           7610      8.44439e+6 
           7630       8.3963e+6 
           7650      8.34795e+6 
           7670      8.30063e+6 
           7690      8.25305e+6 
           7710      8.20648e+6 
           7730      8.15966e+6 
           7750      8.11321e+6 
           7770       8.0665e+6 
           7790      8.02141e+6 
           7810      7.97606e+6 
           7830      7.93106e+6 
           7850      7.88642e+6 
           7870      7.84152e+6 
           7890      7.79758e+6 
           7910      7.75338e+6 
           7930      7.71013e+6 
           7950      7.66662e+6 
           7970      7.62344e+6 
           7990      7.58061e+6 
           8010       7.5381e+6 
           8030      7.49592e+6 
           8050      7.45407e+6 
           8070      7.41254e+6 
           8090      7.37133e+6 
           8110      7.32987e+6 
           8130      7.28929e+6 
           8150      7.24845e+6 
           8170      7.20849e+6 
           8190      7.16827e+6 
           8210      7.13171e+6 
           8230      7.09376e+6 
           8250      7.05608e+6 
           8270      7.01869e+6 
           8290      6.98048e+6 
           8310      6.94147e+6 
           8330      6.90111e+6 
           8350      6.86269e+6 
           8370      6.81219e+6 
           8390      6.77386e+6 
           8410      6.72677e+6 
           8430      6.70602e+6 
           8450      6.67062e+6 
           8470      6.55409e+6 
           8490      6.64816e+6 
           8510      6.41511e+6 
           8530      6.60925e+6 
           8550      6.23721e+6 
           8570      6.58258e+6 
           8590      6.37225e+6 
