# Kurucz ODFNEW /NOVER (2003)
# teff = 8000 K (value for the effective temperature for the model. Temperatures are given in K)
# logg = 3 log(cm/s2) (value for Log(G) for the model.)
# meta = -0.5  (value for the Metallicity for the model.)
# lh = 1.25  (l/Hp where l is the  mixing length of the convective element and Hp is the pressure scale height)
# vtur = 2 km/s (Microturbulence velocity)
# alpha = 0  (Alpha)
#
# column 1: WAVELENGTH (ANGSTROM), Wavelength in Angstrom
# column 2: FLUX (ERG/CM2/S/A), Flux in erg/cm2/s/A
            348     7.17442e-23 
            357     5.68956e-22 
            366     3.88074e-21 
            375     2.40089e-20 
            385     1.63964e-19 
            395     1.01256e-18 
            405     5.69762e-18 
            414     2.50507e-17 
            422     8.84389e-17 
            430      2.9737e-16 
            441      1.4624e-15 
            451     5.79075e-16 
            460     1.76441e-15 
            470     5.76827e-15 
            480     1.78783e-14 
            490     5.27468e-14 
            500     1.48391e-13 
            506     2.96118e-12 
            512     7.60345e-12 
            520     1.71465e-11 
            530     3.84615e-12 
            540      9.0915e-12 
            550     2.10632e-11 
            560     4.69182e-11 
            570     1.01329e-10 
            580      2.1009e-10 
            590     4.33526e-10 
            600     8.61455e-10 
            610      1.67033e-9 
            620      3.16163e-9 
            630      5.85188e-9 
            640      1.06066e-8 
            650      1.88418e-8 
            658      2.94187e-8 
            665      4.30011e-8 
            675      7.28869e-8 
            685      1.21411e-7 
            695      1.98962e-7 
            705      3.20462e-7 
            716      5.33419e-7 
            726      8.34046e-7 
            735      1.23272e-6 
            745      1.87908e-6 
            755      2.82845e-6 
            765      4.20629e-6 
            775      6.18253e-6 
            785      8.98746e-6 
            795      1.28637e-5 
            805      1.83619e-5 
            815       2.5897e-5 
            825      3.61417e-5 
            835      4.99792e-5 
            845      6.85054e-5 
            855      9.30969e-5 
            865     0.000125482 
            875     0.000167594 
            885      0.00022262 
            895     0.000293242 
            905     0.000382698 
            915        0.342898 
            925         1.30817 
            935         1.72178 
            945         2.27677 
            955           3.148 
            965         4.02833 
            975         4.69611 
            985         6.20955 
            995         7.42633 
           1005         9.77756 
           1015         11.8779 
           1025         13.0934 
           1035         17.8591 
           1045         22.0057 
           1055         26.7144 
           1065         31.5198 
           1075         38.6077 
           1085         46.5238 
           1095         54.3246 
           1105         148.739 
           1115         431.691 
           1125         599.106 
           1135         804.417 
           1145         963.242 
           1155         1012.74 
           1165         1266.43 
           1175         1353.92 
           1185         1469.44 
           1195         605.157 
           1205         423.761 
           1215         100.517 
           1225         477.318 
           1235         1268.61 
           1245         2691.75 
           1255         5119.37 
           1265         5977.62 
           1275         9203.96 
           1285         13847.2 
           1295         18108.8 
           1305         17134.4 
           1315         28864.3 
           1325         38908.4 
           1335         46064.3 
           1345         67862.4 
           1355         72271.1 
           1365           82824 
           1375         90670.1 
           1385         89577.6 
           1395          101054 
           1405          133310 
           1415          161569 
           1425          190496 
           1435          182931 
           1442          230238 
           1447          246174 
           1455          319780 
           1465          318642 
           1475          341401 
           1485          381457 
           1495          438552 
           1505          479830 
           1512          446658 
           1517          482336 
           1525          541859 
           1535      1.88682e+6 
           1545      3.95349e+6 
           1555      3.54244e+6 
           1565      2.82606e+6 
           1575      4.37519e+6 
           1585      4.90139e+6 
           1595      5.55552e+6 
           1605      5.16594e+6 
           1615      5.68281e+6 
           1625       5.8054e+6 
           1635       7.4835e+6 
           1645      1.07218e+7 
           1655       6.6035e+6 
           1665      1.15749e+7 
           1672      5.78048e+6 
           1677      1.24368e+7 
           1685      1.51768e+7 
           1695      1.35794e+7 
           1705      1.35321e+7 
           1715       1.5679e+7 
           1725      1.57927e+7 
           1735      1.80754e+7 
           1745      1.71451e+7 
           1755      2.00203e+7 
           1765        1.527e+7 
           1775      1.86928e+7 
           1785      1.82593e+7 
           1795      2.19722e+7 
           1805       1.9315e+7 
           1815      2.03802e+7 
           1825      1.80819e+7 
           1835      1.76325e+7 
           1845      1.56302e+7 
           1855      1.70846e+7 
           1865      1.81269e+7 
           1875      1.81205e+7 
           1885      1.84398e+7 
           1895      1.93147e+7 
           1905      1.76861e+7 
           1915      1.92904e+7 
           1925      1.95368e+7 
           1935       1.6324e+7 
           1945      2.03391e+7 
           1955      2.03415e+7 
           1967      2.16364e+7 
           1976      2.10615e+7 
           1984       2.0312e+7 
           1995      1.96191e+7 
           2005      1.87033e+7 
           2015      1.82667e+7 
           2025      1.70642e+7 
           2035      1.89946e+7 
           2045      2.06065e+7 
           2055      1.93752e+7 
           2065      1.86323e+7 
           2074      2.13725e+7 
           2078      2.20493e+7 
           2085       2.1275e+7 
           2095      2.02646e+7 
           2105      1.89826e+7 
           2115      1.93114e+7 
           2125      1.99376e+7 
           2135      1.58346e+7 
           2145      1.87414e+7 
           2155      1.88469e+7 
           2165      1.75351e+7 
           2175       1.7344e+7 
           2185      1.80686e+7 
           2195      1.96378e+7 
           2205      1.87899e+7 
           2215      1.67225e+7 
           2225      1.65664e+7 
           2235      1.94065e+7 
           2245      1.71934e+7 
           2255      1.62849e+7 
           2265      1.62765e+7 
           2275      1.77547e+7 
           2285      1.84864e+7 
           2295       1.7006e+7 
           2305      1.74658e+7 
           2315      1.69904e+7 
           2325       1.6593e+7 
           2335      1.47162e+7 
           2345       1.2511e+7 
           2355      1.65988e+7 
           2365      1.29994e+7 
           2375      1.52245e+7 
           2385      1.13657e+7 
           2395      1.33254e+7 
           2405      1.27751e+7 
           2415      1.34873e+7 
           2425      1.61534e+7 
           2435      1.56512e+7 
           2445      1.67826e+7 
           2455      1.63811e+7 
           2465      1.63644e+7 
           2475      1.53106e+7 
           2485       1.5913e+7 
           2495      1.51889e+7 
           2505      1.80745e+7 
           2513      1.53056e+7 
           2518      1.57725e+7 
           2525      1.42322e+7 
           2535      1.35855e+7 
           2545      1.35464e+7 
           2555      1.51499e+7 
           2565      1.49015e+7 
           2575      1.65484e+7 
           2585      1.65091e+7 
           2595      1.58613e+7 
           2605      1.49259e+7 
           2615      1.42963e+7 
           2625       1.6655e+7 
           2635      1.71587e+7 
           2645      2.05407e+7 
           2655      2.05557e+7 
           2665      1.80132e+7 
           2675      1.91939e+7 
           2685      1.91672e+7 
           2695      1.79069e+7 
           2705      1.85532e+7 
           2715      1.71197e+7 
           2725      1.74301e+7 
           2735      1.90847e+7 
           2745      1.46277e+7 
           2755      1.57313e+7 
           2765      1.66278e+7 
           2775      1.86989e+7 
           2785      1.76785e+7 
           2795      1.01044e+7 
           2805      1.22188e+7 
           2815      1.94497e+7 
           2825      2.02497e+7 
           2835       1.9368e+7 
           2845       1.8566e+7 
           2855      1.74873e+7 
           2865      1.93867e+7 
           2875      1.88478e+7 
           2885      1.93026e+7 
           2895      1.83348e+7 
           2910      2.09846e+7 
           2930      2.01488e+7 
           2950      1.99943e+7 
           2970      2.06433e+7 
           2990      2.08438e+7 
           3010      2.11806e+7 
           3030      2.10484e+7 
           3050      2.10057e+7 
           3070      2.10507e+7 
           3090      2.14613e+7 
           3110      2.08827e+7 
           3130      2.08251e+7 
           3150      2.14617e+7 
           3170      2.14283e+7 
           3190       2.0336e+7 
           3210      2.09484e+7 
           3230      2.03085e+7 
           3250      2.09246e+7 
           3270      2.11898e+7 
           3290      2.14811e+7 
           3310      2.17302e+7 
           3330      2.12712e+7 
           3350      2.09908e+7 
           3370      2.09172e+7 
           3390      2.09596e+7 
           3410      2.13229e+7 
           3430      2.14861e+7 
           3450      2.13219e+7 
           3470      2.10558e+7 
           3490       2.1002e+7 
           3510       2.1434e+7 
           3530      2.14787e+7 
           3550      2.17536e+7 
           3570      2.11026e+7 
           3590      2.10254e+7 
           3610      2.10908e+7 
           3630      2.12593e+7 
           3640      2.10224e+7 
           3650      2.16262e+7 
           3670      2.13942e+7 
           3690      2.07634e+7 
           3710      2.38323e+7 
           3730      2.67696e+7 
           3750      3.59865e+7 
           3770      3.87361e+7 
           3790      4.82448e+7 
           3810      5.66881e+7 
           3830      4.42196e+7 
           3850       6.2465e+7 
           3870      7.01571e+7 
           3890      3.96046e+7 
           3910      6.94288e+7 
           3930      6.47554e+7 
           3950      6.92443e+7 
           3970      3.69179e+7 
           3990      6.74441e+7 
           4010      7.43521e+7 
           4030      7.38989e+7 
           4050      7.30721e+7 
           4070      6.97471e+7 
           4090      5.56645e+7 
           4110      4.21264e+7 
           4130        6.643e+7 
           4150      6.92233e+7 
           4170      6.85024e+7 
           4190      6.76483e+7 
           4210      6.72982e+7 
           4230      6.56717e+7 
           4250      6.53387e+7 
           4270      6.36619e+7 
           4290      6.32744e+7 
           4310      5.87927e+7 
           4330      4.59898e+7 
           4350      3.90696e+7 
           4370      5.86629e+7 
           4390      5.96211e+7 
           4410      5.87271e+7 
           4430      5.86722e+7 
           4450      5.86672e+7 
           4470      5.80379e+7 
           4490      5.73164e+7 
           4510      5.75593e+7 
           4530      5.60406e+7 
           4550      5.47684e+7 
           4570      5.56682e+7 
           4590      5.42722e+7 
           4610      5.48482e+7 
           4630      5.33877e+7 
           4650       5.3541e+7 
           4670      5.29866e+7 
           4690      5.16142e+7 
           4710      4.99524e+7 
           4730      5.11996e+7 
           4750      5.08261e+7 
           4770      5.00448e+7 
           4790      4.93798e+7 
           4810      4.84018e+7 
           4830      4.63611e+7 
           4850      3.68329e+7 
           4870      2.95101e+7 
           4890      4.37352e+7 
           4910      4.56002e+7 
           4930      4.49892e+7 
           4950      4.52014e+7 
           4970       4.5212e+7 
           4990      4.42375e+7 
           5010      4.30836e+7 
           5030      4.34802e+7 
           5050      4.28144e+7 
           5070      4.28481e+7 
           5090      4.23346e+7 
           5110      4.19924e+7 
           5130      4.12991e+7 
           5150      4.06693e+7 
           5170      3.95927e+7 
           5190      3.92784e+7 
           5210      3.93216e+7 
           5230      3.86675e+7 
           5250      3.90459e+7 
           5270      3.75551e+7 
           5290      3.81561e+7 
           5310      3.74924e+7 
           5330       3.6778e+7 
           5350      3.71471e+7 
           5370      3.65548e+7 
           5390      3.62347e+7 
           5410      3.56404e+7 
           5430      3.54639e+7 
           5450      3.53145e+7 
           5470      3.49887e+7 
           5490      3.47655e+7 
           5510      3.44255e+7 
           5530      3.39428e+7 
           5550      3.38528e+7 
           5570      3.34024e+7 
           5590      3.30348e+7 
           5610      3.28117e+7 
           5630       3.2617e+7 
           5650      3.22437e+7 
           5670      3.18854e+7 
           5690      3.16861e+7 
           5710      3.13871e+7 
           5730      3.11993e+7 
           5750      3.08459e+7 
           5770      3.05861e+7 
           5790      3.02819e+7 
           5810      3.00247e+7 
           5830      2.97625e+7 
           5850      2.94646e+7 
           5870      2.92041e+7 
           5890      2.86304e+7 
           5910      2.86796e+7 
           5930      2.84222e+7 
           5950      2.81527e+7 
           5970      2.79179e+7 
           5990      2.76162e+7 
           6010      2.73378e+7 
           6030      2.71392e+7 
           6050      2.69096e+7 
           6070       2.6705e+7 
           6090      2.64425e+7 
           6110      2.61839e+7 
           6130      2.58619e+7 
           6150      2.54749e+7 
           6170      2.53793e+7 
           6190       2.5307e+7 
           6210      2.50954e+7 
           6230      2.48229e+7 
           6250      2.43836e+7 
           6270      2.44554e+7 
           6290       2.4243e+7 
           6310      2.39543e+7 
           6330      2.37919e+7 
           6350      2.34759e+7 
           6370      2.33046e+7 
           6390      2.31876e+7 
           6410      2.29055e+7 
           6430      2.27678e+7 
           6450       2.2395e+7 
           6470      2.23297e+7 
           6490      2.19892e+7 
           6510      2.17797e+7 
           6530      2.12303e+7 
           6550      1.87256e+7 
           6570      1.49208e+7 
           6590      2.01602e+7 
           6610      2.08178e+7 
           6630      2.08441e+7 
           6650      2.07309e+7 
           6670      2.05754e+7 
           6690      2.04576e+7 
           6710      2.02923e+7 
           6730      2.01245e+7 
           6750      1.99327e+7 
           6770      1.98167e+7 
           6790      1.96503e+7 
           6810       1.9492e+7 
           6830      1.93134e+7 
           6850      1.91654e+7 
           6870      1.90253e+7 
           6890      1.88729e+7 
           6910      1.87197e+7 
           6930      1.85647e+7 
           6950      1.84198e+7 
           6970      1.82685e+7 
           6990      1.81309e+7 
           7010       1.7941e+7 
           7030      1.78215e+7 
           7050      1.76963e+7 
           7070      1.75616e+7 
           7090      1.74252e+7 
           7110      1.71105e+7 
           7130       1.7111e+7 
           7150      1.69896e+7 
           7170       1.6862e+7 
           7190       1.6718e+7 
           7210      1.65978e+7 
           7230      1.64651e+7 
           7250      1.63342e+7 
           7270      1.62338e+7 
           7290      1.60768e+7 
           7310      1.59565e+7 
           7330      1.58401e+7 
           7350      1.57393e+7 
           7370       1.5627e+7 
           7390      1.54873e+7 
           7410        1.534e+7 
           7430      1.52152e+7 
           7450      1.51153e+7 
           7470      1.49535e+7 
           7490      1.48663e+7 
           7510      1.47826e+7 
           7530      1.46876e+7 
           7550      1.45973e+7 
           7570      1.44769e+7 
           7590      1.43758e+7 
           7610      1.42672e+7 
           7630      1.41614e+7 
           7650      1.40444e+7 
           7670      1.39213e+7 
           7690      1.38336e+7 
           7710      1.37144e+7 
           7730      1.36436e+7 
           7750      1.35343e+7 
           7770      1.32114e+7 
           7790      1.33504e+7 
           7810      1.32488e+7 
           7830      1.31308e+7 
           7850      1.30181e+7 
           7870      1.29149e+7 
           7890      1.28096e+7 
           7910      1.27401e+7 
           7930      1.26435e+7 
           7950      1.25401e+7 
           7970      1.25009e+7 
           7990      1.23464e+7 
           8010      1.23089e+7 
           8030      1.22149e+7 
           8050      1.21357e+7 
           8070      1.20461e+7 
           8090      1.19584e+7 
           8110      1.18858e+7 
           8130      1.18051e+7 
           8150        1.172e+7 
           8170      1.16379e+7 
           8190      1.14665e+7 
           8210      1.14392e+7 
           8230      1.13542e+7 
           8250      1.12743e+7 
           8270      1.12761e+7 
           8290       1.1196e+7 
           8310      1.11143e+7 
           8330       1.0953e+7 
           8350      1.09503e+7 
           8370      1.08394e+7 
           8390      1.07251e+7 
           8410      1.06252e+7 
           8430      1.05945e+7 
           8450      1.04341e+7 
           8470      1.01375e+7 
           8490       1.0602e+7 
           8510      9.73138e+6 
           8530      1.06426e+7 
           8550      9.12571e+6 
           8570      1.07651e+7 
           8590      9.92418e+6 
           8610      9.60015e+6 
           8630      1.08714e+7 
           8650      1.04707e+7 
           8670      8.45937e+6 
           8690      1.05986e+7 
           8710      1.09959e+7 
           8730         1.06e+7 
           8750       8.3295e+6 
           8770      1.01239e+7 
           8790      1.08625e+7 
           8810      1.08656e+7 
           8830      1.05971e+7 
           8850      9.60119e+6 
           8870      8.07644e+6 
           8890      1.01723e+7 
           8910      1.04964e+7 
           8930      1.05127e+7 
           8950       1.0525e+7 
           8970      1.03569e+7 
           8990      9.93377e+6 
           9010      7.95409e+6 
           9030      8.77963e+6 
           9050       9.8908e+6 
           9070       9.8857e+6 
           9090      9.79665e+6 
           9110      9.94161e+6 
           9130      9.94691e+6 
           9150      9.88638e+6 
           9170      9.76534e+6 
           9190      9.55026e+6 
           9210      8.93146e+6 
           9230      7.00987e+6 
           9250      8.61222e+6 
           9270      9.12046e+6 
           9290       9.3785e+6 
           9310      9.37172e+6 
           9330      9.32293e+6 
           9350      9.27619e+6 
           9370      9.22376e+6 
           9390      9.14007e+6 
           9410      8.91449e+6 
