# Kurucz ODFNEW /NOVER (2003)
# teff = 28000 K (value for the effective temperature for the model. Temperatures are given in K)
# logg = 4.5 log(cm/s2) (value for Log(G) for the model.)
# meta = -2  (value for the Metallicity for the model.)
# lh = 1.25  (l/Hp where l is the  mixing length of the convective element and Hp is the pressure scale height)
# vtur = 2 km/s (Microturbulence velocity)
# alpha = 0.4  (Alpha)
#
# column 1: WAVELENGTH (ANGSTROM), Wavelength in Angstrom
# column 2: FLUX (ERG/CM2/S/A), Flux in erg/cm2/s/A
          147.2     5.91491e-11 
            151     2.28341e-10 
          155.2     9.40985e-10 
          158.8       2.9865e-9 
            162      7.98892e-9 
            166      2.59005e-8 
          170.3      8.62271e-8 
          173.4      1.97714e-7 
          176.8      4.74831e-7 
          180.2      1.10292e-6 
          181.7       1.5836e-6 
          186.1      4.42515e-6 
            191      1.31284e-5 
          193.9      2.43399e-5 
          198.4      6.11744e-5 
          201.8     0.000119365 
            205     0.000219359 
          210.5     0.000597832 
          216.2      0.00159888 
          219.8      0.00289635 
            223      0.00483152 
          226.8      0.00870301 
            230        0.477606 
            234         1.12951 
            240         2.36542 
          246.5         5.07828 
          252.4         9.91472 
          256.8          14.561 
            260         21.8966 
            264         32.1909 
          268.5         49.9123 
          273.5         79.2015 
          278.5         123.662 
            284          199.07 
            290         324.767 
            296         517.994 
            301         744.843 
            308         1157.07 
            318         2473.72 
            328         4623.68 
            338         8454.02 
            348         14750.1 
            357         23916.4 
            366         37806.2 
            375         57008.4 
            385         89469.6 
            395          135514 
            405          200844 
            414          282795 
            422          373357 
            430          489076 
            441          701308 
            451          959414 
            460      1.24306e+6 
            470      1.64888e+6 
            480      2.14821e+6 
            490      2.76796e+6 
            500      3.53252e+6 
            506      2.00124e+7 
            512      6.75412e+7 
            520      7.43887e+7 
            530      8.87695e+7 
            540      8.92949e+7 
            550       1.1092e+8 
            560      1.20851e+8 
            570      1.34864e+8 
            580      1.32628e+8 
            590       1.5777e+8 
            600      1.72678e+8 
            610      1.89934e+8 
            620      2.03516e+8 
            630      2.21937e+8 
            640      2.32881e+8 
            650      2.55258e+8 
            658      2.71155e+8 
            665      2.83886e+8 
            675      2.96819e+8 
            685       3.1203e+8 
            695       3.4662e+8 
            705      3.59641e+8 
            716      3.90151e+8 
            726      4.10411e+8 
            735      4.35074e+8 
            745      4.61904e+8 
            755      4.86237e+8 
            765       5.1072e+8 
            775      5.39793e+8 
            785      5.68379e+8 
            795      5.91156e+8 
            805      6.19952e+8 
            815       6.4459e+8 
            825      6.75774e+8 
            835      6.78759e+8 
            845      7.27685e+8 
            855      7.53794e+8 
            865      7.85607e+8 
            875      8.17254e+8 
            885      8.48143e+8 
            895      8.77127e+8 
            905      8.97959e+8 
            915      1.15409e+9 
            925      6.46004e+9 
            935      1.5332e+10 
            945     3.60882e+10 
            955     4.54335e+10 
            965     5.88422e+10 
            975     2.67342e+10 
            985     6.16101e+10 
            995     5.75392e+10 
           1005     5.99619e+10 
           1015     5.55097e+10 
           1025     2.35527e+10 
           1035     5.08953e+10 
           1045     5.74568e+10 
           1055      5.5909e+10 
           1065     5.16322e+10 
           1075       5.228e+10 
           1085     4.80694e+10 
           1095     5.07867e+10 
           1105      4.8548e+10 
           1115      4.7472e+10 
           1125     4.42505e+10 
           1135     4.56354e+10 
           1145     4.31176e+10 
           1155     4.32384e+10 
           1165     4.24881e+10 
           1175     3.69546e+10 
           1185       4.006e+10 
           1195      3.7973e+10 
           1205     3.37883e+10 
           1215     1.56811e+10 
           1225     3.34045e+10 
           1235     3.56716e+10 
           1245     3.47776e+10 
           1255     3.44122e+10 
           1265     3.35336e+10 
           1275     3.31209e+10 
           1285     3.23656e+10 
           1295      2.9911e+10 
           1305     3.00052e+10 
           1315     3.02041e+10 
           1325     2.91877e+10 
           1335     2.82385e+10 
           1345     2.80013e+10 
           1355     2.76962e+10 
           1365     2.67682e+10 
           1375     2.63404e+10 
           1385     2.58534e+10 
           1395     2.40167e+10 
           1405     2.38611e+10 
           1415     2.40575e+10 
           1425      2.3556e+10 
           1435     2.31867e+10 
           1442     2.29767e+10 
           1447     2.27084e+10 
           1455     2.23028e+10 
           1465      2.1815e+10 
           1475     2.13748e+10 
           1485     2.09546e+10 
           1495     2.05067e+10 
           1505     1.98342e+10 
           1512     1.96658e+10 
           1517     1.95053e+10 
           1525     1.91602e+10 
           1535     1.83934e+10 
           1545     1.80109e+10 
           1555     1.75696e+10 
           1565     1.75504e+10 
           1575     1.73464e+10 
           1585     1.70428e+10 
           1595     1.67557e+10 
           1605     1.62083e+10 
           1615     1.58738e+10 
           1625     1.56891e+10 
           1635     1.54371e+10 
           1645     1.48212e+10 
           1655     1.49645e+10 
           1665     1.46983e+10 
           1672     1.44812e+10 
           1677     1.44941e+10 
           1685     1.42506e+10 
           1695     1.39518e+10 
           1705     1.36578e+10 
           1715     1.33312e+10 
           1725      1.3096e+10 
           1735     1.29705e+10 
           1745     1.27258e+10 
           1755      1.2531e+10 
           1765     1.21996e+10 
           1775     1.20219e+10 
           1785     1.18533e+10 
           1795     1.17052e+10 
           1805     1.15356e+10 
           1815     1.12893e+10 
           1825     1.11138e+10 
           1835     1.09288e+10 
           1845     1.05737e+10 
           1855     1.03172e+10 
           1865     1.02327e+10 
           1875     1.01759e+10 
           1885      9.82774e+9 
           1895      9.54406e+9 
           1905      9.60243e+9 
           1915      9.30753e+9 
           1925      9.12985e+9 
           1935      9.09801e+9 
           1945      9.03896e+9 
           1955      8.69449e+9 
           1967      8.71141e+9 
           1976      8.67131e+9 
           1984      8.45442e+9 
           1995      8.20725e+9 
           2005      8.23711e+9 
           2015      8.15611e+9 
           2025      8.05913e+9 
           2035      7.87959e+9 
           2045      7.75804e+9 
           2055      7.41144e+9 
           2065      7.27922e+9 
           2074      7.30648e+9 
           2078      7.16871e+9 
           2085      7.18219e+9 
           2095      7.08864e+9 
           2105      7.09966e+9 
           2115      7.03024e+9 
           2125      6.94263e+9 
           2135      6.83526e+9 
           2145      6.71936e+9 
           2155      6.63767e+9 
           2165      6.54065e+9 
           2175      6.44743e+9 
           2185      6.35281e+9 
           2195      6.27261e+9 
           2205      6.18269e+9 
           2215      6.08844e+9 
           2225      6.00575e+9 
           2235      5.91819e+9 
           2245      5.84092e+9 
           2255      5.74834e+9 
           2265       5.6786e+9 
           2275      5.60003e+9 
           2285       5.5219e+9 
           2295      5.38205e+9 
           2305      5.36254e+9 
           2315       5.2948e+9 
           2325      5.22321e+9 
           2335      5.14865e+9 
           2345      5.08367e+9 
           2355       5.0162e+9 
           2365      4.94881e+9 
           2375      4.88064e+9 
           2385      4.80881e+9 
           2395      4.75107e+9 
           2405      4.68956e+9 
           2415       4.6258e+9 
           2425      4.56755e+9 
           2435      4.50451e+9 
           2445      4.44763e+9 
           2455      4.39072e+9 
           2465      4.33415e+9 
           2475      4.27761e+9 
           2485      4.22282e+9 
           2495      4.06715e+9 
           2505      4.11381e+9 
           2513      4.04691e+9 
           2518      4.04167e+9 
           2525      4.01096e+9 
           2535      3.96086e+9 
           2545      3.89408e+9 
           2555      3.85713e+9 
           2565      3.81183e+9 
           2575      3.76614e+9 
           2585      3.71964e+9 
           2595      3.67385e+9 
           2605      3.64953e+9 
           2615      3.60454e+9 
           2625      3.56034e+9 
           2635      3.51351e+9 
           2645      3.46917e+9 
           2655      3.42299e+9 
           2665      3.37454e+9 
           2675      3.33041e+9 
           2685       3.3092e+9 
           2695      3.24527e+9 
           2705       3.2295e+9 
           2715      3.19114e+9 
           2725      3.12885e+9 
           2735      3.11205e+9 
           2745      3.07822e+9 
           2755      3.04246e+9 
           2765      2.98191e+9 
           2775       2.9725e+9 
           2785      2.93739e+9 
           2795      2.88193e+9 
           2805      2.86338e+9 
           2815       2.8369e+9 
           2825      2.77483e+9 
           2835      2.75262e+9 
           2845      2.74043e+9 
           2855      2.70864e+9 
           2865      2.67793e+9 
           2875      2.64771e+9 
           2885      2.61816e+9 
           2895      2.58846e+9 
           2910      2.54454e+9 
           2930      2.48807e+9 
           2950      2.41509e+9 
           2970      2.38003e+9 
           2990      2.32786e+9 
           3010       2.2769e+9 
           3030      2.22844e+9 
           3050      2.18092e+9 
           3070      2.13461e+9 
           3090      2.08588e+9 
           3110      2.04515e+9 
           3130      2.00368e+9 
           3150      1.96199e+9 
           3170      1.92108e+9 
           3190      1.86519e+9 
           3210      1.84184e+9 
           3230      1.80426e+9 
           3250      1.76764e+9 
           3270      1.73393e+9 
           3290      1.69669e+9 
           3310      1.66545e+9 
           3330      1.63236e+9 
           3350      1.59732e+9 
           3370      1.56876e+9 
           3390      1.53828e+9 
           3410      1.50849e+9 
           3430      1.47299e+9 
           3450      1.43953e+9 
           3470      1.41604e+9 
           3490        1.389e+9 
           3510      1.36536e+9 
           3530      1.34222e+9 
           3550      1.31725e+9 
           3570       1.3004e+9 
           3590       1.2671e+9 
           3610      1.24792e+9 
           3630      1.22103e+9 
           3640      1.21919e+9 
           3650       1.2048e+9 
           3670      1.18807e+9 
           3690      1.16554e+9 
           3710       1.1258e+9 
           3730      1.08056e+9 
           3750      1.09235e+9 
           3770      1.07647e+9 
           3790      1.12404e+9 
           3810      1.16784e+9 
           3830      1.02251e+9 
           3850       1.1943e+9 
           3870      1.20684e+9 
           3890      9.63701e+8 
           3910      1.18314e+9 
           3930      1.17015e+9 
           3950      1.14411e+9 
           3970      8.94323e+8 
           3990       1.0962e+9 
           4010      1.09183e+9 
           4030      1.02718e+9 
           4050      1.06594e+9 
           4070      1.04041e+9 
           4090      9.54227e+8 
           4110      8.35705e+8 
           4130      9.75633e+8 
           4150      9.67455e+8 
           4170        9.598e+8 
           4190       9.4523e+8 
           4210      9.29703e+8 
           4230        9.139e+8 
           4250      8.97914e+8 
           4270      8.81258e+8 
           4290      8.66367e+8 
           4310      8.46521e+8 
           4330      7.64213e+8 
           4350      6.97694e+8 
           4370      8.03097e+8 
           4390      7.74234e+8 
           4410      7.84216e+8 
           4430      7.69722e+8 
           4450      7.60117e+8 
           4470      7.13265e+8 
           4490      7.35011e+8 
           4510      7.24432e+8 
           4530      7.12872e+8 
           4550      7.01087e+8 
           4570      6.89877e+8 
           4590      6.79032e+8 
           4610      6.68651e+8 
           4630        6.583e+8 
           4650      6.45941e+8 
           4670      6.37588e+8 
           4690       6.2704e+8 
           4710      6.10009e+8 
           4730       6.0897e+8 
           4750      5.99494e+8 
           4770      5.90736e+8 
           4790      5.81741e+8 
           4810      5.71703e+8 
           4830      5.59598e+8 
           4850      5.14761e+8 
           4870       4.6076e+8 
           4890      5.32873e+8 
           4910      5.29119e+8 
           4930      5.09629e+8 
           4950      5.15667e+8 
           4970      5.08398e+8 
           4990      5.00972e+8 
           5010      4.87435e+8 
           5030      4.86515e+8 
           5050      4.76642e+8 
           5070      4.72639e+8 
           5090       4.6585e+8 
           5110      4.59209e+8 
           5130      4.52658e+8 
           5150      4.46237e+8 
           5170      4.39944e+8 
           5190      4.33777e+8 
           5210      4.27663e+8 
           5230      4.21727e+8 
           5250      4.15855e+8 
           5270      4.10086e+8 
           5290       4.0442e+8 
           5310      3.98841e+8 
           5330      3.93373e+8 
           5350      3.87976e+8 
           5370      3.82701e+8 
           5390      3.77493e+8 
           5410      3.72326e+8 
           5430      3.67352e+8 
           5450      3.62416e+8 
           5470      3.57567e+8 
           5490      3.52792e+8 
           5510      3.48101e+8 
           5530      3.43481e+8 
           5550      3.38943e+8 
           5570      3.34474e+8 
           5590      3.30083e+8 
           5610      3.25759e+8 
           5630      3.21523e+8 
           5650      3.17315e+8 
           5670      3.13182e+8 
           5690        3.091e+8 
           5710      3.05193e+8 
           5730      3.01277e+8 
           5750      2.97361e+8 
           5770       2.9364e+8 
           5790      2.89907e+8 
           5810       2.8624e+8 
           5830      2.82617e+8 
           5850       2.7907e+8 
           5870      2.66938e+8 
           5890      2.71644e+8 
           5910       2.6873e+8 
           5930      2.65377e+8 
           5950      2.62085e+8 
           5970      2.58873e+8 
           5990      2.55678e+8 
           6010       2.5255e+8 
           6030      2.49458e+8 
           6050      2.46422e+8 
           6070       2.4342e+8 
           6090      2.40473e+8 
           6110      2.37569e+8 
           6130      2.34708e+8 
           6150      2.31879e+8 
           6170      2.29112e+8 
           6190      2.26375e+8 
           6210      2.23689e+8 
           6230      2.21032e+8 
           6250      2.18414e+8 
           6270      2.15834e+8 
           6290      2.13302e+8 
           6310      2.10798e+8 
           6330       2.0834e+8 
           6350       2.0589e+8 
           6370      2.03513e+8 
           6390      2.01161e+8 
           6410      1.98835e+8 
           6430      1.96543e+8 
           6450      1.94285e+8 
           6470       1.9205e+8 
           6490      1.89849e+8 
           6510      1.87538e+8 
           6530      1.84579e+8 
           6550      1.76008e+8 
           6570      1.56557e+8 
           6590      1.77269e+8 
           6610      1.76897e+8 
           6630       1.7536e+8 
           6650      1.73497e+8 
           6670      1.69723e+8 
           6690      1.67876e+8 
           6710      1.67798e+8 
           6730      1.65928e+8 
           6750       1.6412e+8 
           6770      1.62313e+8 
           6790      1.60525e+8 
           6810      1.58787e+8 
           6830      1.57051e+8 
           6850      1.55348e+8 
           6870      1.53671e+8 
           6890       1.5201e+8 
           6910      1.50374e+8 
           6930      1.48762e+8 
           6950      1.47166e+8 
           6970      1.45594e+8 
           6990      1.44045e+8 
           7010      1.42519e+8 
           7030      1.41008e+8 
           7050      1.39519e+8 
           7070      1.35777e+8 
           7090      1.36593e+8 
           7110      1.35162e+8 
           7130      1.33753e+8 
           7150      1.32357e+8 
           7170       1.3096e+8 
           7190      1.29621e+8 
           7210      1.28279e+8 
           7230      1.26857e+8 
           7250      1.25642e+8 
           7270       1.2436e+8 
           7290      1.22048e+8 
           7310      1.21811e+8 
           7330      1.20587e+8 
           7350      1.19367e+8 
           7370      1.18151e+8 
           7390       1.1696e+8 
           7410      1.15781e+8 
           7430      1.14612e+8 
           7450      1.13482e+8 
           7470      1.12335e+8 
           7490      1.11226e+8 
           7510       1.1008e+8 
           7530      1.09024e+8 
           7550      1.07945e+8 
           7570      1.06876e+8 
           7590      1.05823e+8 
           7610      1.04779e+8 
           7630      1.03752e+8 
           7650       1.0274e+8 
           7670      1.01737e+8 
           7690      1.00744e+8 
           7710      9.97656e+7 
           7730       9.8796e+7 
           7750      9.78415e+7 
           7770      9.68891e+7 
           7790      9.59701e+7 
           7810      9.49913e+7 
           7830       9.4138e+7 
           7850      9.33226e+7 
           7870      9.24353e+7 
           7890      9.14953e+7 
           7910       9.0696e+7 
           7930      8.98377e+7 
           7950       8.8975e+7 
           7970      8.80071e+7 
           7990      8.71539e+7 
           8010      8.63024e+7 
           8030      8.54816e+7 
           8050      8.46911e+7 
           8070      8.39826e+7 
           8090      8.30441e+7 
           8110      8.23772e+7 
           8130      8.16874e+7 
           8150      8.08503e+7 
           8170      8.02122e+7 
           8190      7.93716e+7 
           8210       7.8555e+7 
           8230      7.80402e+7 
           8250      7.73579e+7 
           8270      7.62901e+7 
           8290       7.5906e+7 
           8310      7.52574e+7 
           8330      7.45381e+7 
           8350      7.35115e+7 
           8370      7.30961e+7 
           8390      7.25446e+7 
           8410      7.18964e+7 
           8430      7.12004e+7 
           8450      7.00777e+7 
           8470      6.99099e+7 
           8490      6.91262e+7 
           8510      6.85624e+7 
           8530      6.78995e+7 
           8550       6.6902e+7 
           8570      6.72415e+7 
