# Kurucz ODFNEW /NOVER (2003)
# teff = 6250 K (value for the effective temperature for the model. Temperatures are given in K)
# logg = 3 log(cm/s2) (value for Log(G) for the model.)
# meta = -4  (value for the Metallicity for the model.)
# lh = 1.25  (l/Hp where l is the  mixing length of the convective element and Hp is the pressure scale height)
# vtur = 2 km/s (Microturbulence velocity)
# alpha = 0.4  (Alpha)
#
# column 1: WAVELENGTH (ANGSTROM), Wavelength in Angstrom
# column 2: FLUX (ERG/CM2/S/A), Flux in erg/cm2/s/A
          147.2     1.73866e-35 
            151     1.65225e-35 
          155.2     1.56403e-35 
          158.8     1.49392e-35 
            162     1.43549e-35 
            166     1.36714e-35 
          170.3     1.29897e-35 
          173.4     1.25294e-35 
          176.8     1.20522e-35 
          180.2     1.16017e-35 
          181.7     1.14109e-35 
          186.1     1.08777e-35 
            191     1.03267e-35 
          193.9     1.00201e-35 
          198.4     9.57076e-36 
          201.8     9.25097e-36 
            205     8.96441e-36 
          210.5     8.50208e-36 
          216.2     8.05969e-36 
          219.8     7.79784e-36 
            223     7.57565e-36 
          226.8     7.32392e-36 
            230     7.12154e-36 
            234     6.88015e-36 
            240     6.54044e-36 
          246.5     6.20006e-36 
          252.4     5.91358e-36 
          256.8     5.71267e-36 
            260     5.57292e-36 
            264     5.40532e-36 
          268.5     5.22566e-36 
          273.5     5.03634e-36 
          278.5     4.85712e-36 
            284     4.67082e-36 
            290     4.47954e-36 
            296     4.29978e-36 
            301     4.15812e-36 
            308     3.97126e-36 
            318     3.72542e-36 
            328     3.50172e-36 
            338     3.29759e-36 
            348     2.39148e-25 
            357     1.72017e-24 
            366     1.11892e-23 
            375     6.61329e-23 
            385     4.29709e-22 
            395     2.52392e-21 
            405     1.35161e-20 
            414       5.688e-20 
            422     1.93095e-19 
            430     6.24588e-19 
            441     2.91359e-18 
            451      1.1016e-17 
            460     3.45911e-17 
            470     1.16784e-16 
            480      3.7323e-16 
            490     1.13414e-15 
            500     3.28237e-15 
            506     8.06249e-15 
            512     1.65512e-14 
            520      3.5898e-14 
            530     9.18474e-14 
            540     2.22627e-13 
            550     5.27583e-13 
            560     1.20179e-12 
            570     2.65218e-12 
            580     5.61645e-12 
            590     1.18257e-11 
            600     2.39663e-11 
            610     4.73438e-11 
            620     9.12814e-11 
            630     1.71972e-10 
            640     3.17139e-10 
            650     5.72762e-10 
            658     9.05966e-10 
            665      1.33952e-9 
            675      2.30548e-9 
            685       3.8982e-9 
            695      6.48042e-9 
            705      1.06002e-8 
            716      1.78901e-8 
            726      2.83478e-8 
            735      4.23916e-8 
            745      6.54536e-8 
            755      9.97496e-8 
            765      1.50125e-7 
            775      2.23243e-7 
            785      3.28167e-7 
            795      4.77074e-7 
            805      6.86226e-7 
            815      9.76953e-7 
            825       1.3774e-6 
            835      1.92405e-6 
            845      2.66318e-6 
            855      3.65389e-6 
            865      4.97083e-6 
            875       6.7072e-6 
            885      8.98023e-6 
            895      1.19322e-5 
            905      1.57384e-5 
            915       0.0230414 
            925        0.091529 
            935         0.13192 
            945        0.195729 
            955        0.279879 
            965        0.300736 
            975        0.222414 
            985        0.644757 
            995        0.804925 
           1005        0.879884 
           1015        0.622784 
           1025         1.17072 
           1035          1.6561 
           1045         2.52279 
           1055          3.2288 
           1065         4.20631 
           1075         5.15726 
           1085         6.37597 
           1095         7.52626 
           1105         8.90834 
           1115         10.4674 
           1125         11.8669 
           1135         8.21612 
           1145         6.36663 
           1155         5.37013 
           1165          4.7837 
           1175         4.47368 
           1185         32.5803 
           1195          27.476 
           1205         25.9477 
           1215         22.0458 
           1225         34.2731 
           1235         50.2199 
           1245         9.88911 
           1255         12.8251 
           1265         16.8261 
           1275         22.4836 
           1285         31.5168 
           1295         43.3289 
           1305         59.7825 
           1315          84.691 
           1325         119.395 
           1335         172.969 
           1345         264.956 
           1355         355.467 
           1365         411.461 
           1375         479.324 
           1385         553.421 
           1395          634.74 
           1405         729.308 
           1415         825.701 
           1425         943.667 
           1435         1064.55 
           1442         1160.07 
           1447          1239.2 
           1455         1356.55 
           1465         1525.84 
           1475         1708.16 
           1485         1904.13 
           1495         2127.87 
           1505         2363.47 
           1512         2544.82 
           1517          2668.7 
           1525         2896.39 
           1535         3191.98 
           1545         3512.05 
           1555         3859.18 
           1565         4164.41 
           1575         4605.72 
           1585         5018.96 
           1595         5474.22 
           1605         5945.86 
           1615         6523.01 
           1625         7171.57 
           1635         7934.89 
           1645         9015.11 
           1655         10045.5 
           1665         13246.4 
           1672         17633.2 
           1677         27431.6 
           1685         57549.2 
           1695          140804 
           1705          281579 
           1715          476979 
           1725          682376 
           1735          882620 
           1745       1.0072e+6 
           1755      1.16678e+6 
           1765      1.22431e+6 
           1775      1.34866e+6 
           1785      1.44178e+6 
           1795      1.56969e+6 
           1805      1.60091e+6 
           1815      1.68648e+6 
           1825      1.72369e+6 
           1835      1.83675e+6 
           1845      1.81114e+6 
           1855      1.94451e+6 
           1865      2.05758e+6 
           1875      2.11338e+6 
           1885      2.19418e+6 
           1895       2.2783e+6 
           1905      2.29285e+6 
           1915      2.43323e+6 
           1925      2.53551e+6 
           1935      2.54428e+6 
           1945      2.67393e+6 
           1955      2.74108e+6 
           1967       2.8496e+6 
           1976      2.84425e+6 
           1984      2.88673e+6 
           1995       3.0176e+6 
           2005      3.04165e+6 
           2015      3.12046e+6 
           2025      3.11425e+6 
           2035      3.30432e+6 
           2045      3.38235e+6 
           2055      3.39322e+6 
           2065      3.46106e+6 
           2074      3.61886e+6 
           2078      3.63845e+6 
           2085      3.64534e+6 
           2095      3.70925e+6 
           2105      3.75699e+6 
           2115      3.86446e+6 
           2125      3.89208e+6 
           2135      3.93877e+6 
           2145      4.05442e+6 
           2155      4.10206e+6 
           2165      4.08612e+6 
           2175      4.18337e+6 
           2185      4.29226e+6 
           2195      4.39695e+6 
           2205      4.39249e+6 
           2215      4.31146e+6 
           2225      4.50238e+6 
           2235        4.679e+6 
           2245      4.68383e+6 
           2255      4.62178e+6 
           2265      4.58532e+6 
           2275      4.78822e+6 
           2285      4.86863e+6 
           2295      4.85554e+6 
           2305      4.98389e+6 
           2315      5.01228e+6 
           2325      5.06055e+6 
           2335      5.09262e+6 
           2345      4.96926e+6 
           2355      5.25707e+6 
           2365      5.10905e+6 
           2375      5.28445e+6 
           2385      5.04154e+6 
           2395      5.34039e+6 
           2405      5.39566e+6 
           2415        5.451e+6 
           2425      5.70806e+6 
           2435      5.65187e+6 
           2445      5.74702e+6 
           2455      5.80231e+6 
           2465      5.76698e+6 
           2475      5.78696e+6 
           2485      5.76439e+6 
           2495      5.78727e+6 
           2505      6.01564e+6 
           2513      5.81842e+6 
           2518      5.81679e+6 
           2525      5.77217e+6 
           2535      5.86882e+6 
           2545       6.0095e+6 
           2555      6.24648e+6 
           2565      6.24082e+6 
           2575      6.34868e+6 
           2585      6.41072e+6 
           2595      6.41232e+6 
           2605      6.35486e+6 
           2615      6.37411e+6 
           2625      6.43772e+6 
           2635       6.5463e+6 
           2645       6.8286e+6 
           2655      6.85903e+6 
           2665      6.78007e+6 
           2675      6.84635e+6 
           2685      6.97573e+6 
           2695      6.95933e+6 
           2705       7.0269e+6 
           2715      6.89857e+6 
           2725      6.93225e+6 
           2735      6.98842e+6 
           2745      6.75811e+6 
           2755      6.84762e+6 
           2765      7.06328e+6 
           2775      7.22381e+6 
           2785       7.1968e+6 
           2795      6.52185e+6 
           2805      6.89439e+6 
           2815      7.45688e+6 
           2825      7.48538e+6 
           2835      7.42423e+6 
           2845      7.47638e+6 
           2855      7.28868e+6 
           2865      7.46416e+6 
           2875      7.56091e+6 
           2885      7.55339e+6 
           2895      7.69504e+6 
           2910      7.76005e+6 
           2930      7.72864e+6 
           2950      7.73026e+6 
           2970      7.81741e+6 
           2990       7.8615e+6 
           3010      7.93036e+6 
           3030      7.97538e+6 
           3050      8.05255e+6 
           3070       8.0599e+6 
           3090      8.15436e+6 
           3110      8.20913e+6 
           3130      8.26683e+6 
           3150      8.29469e+6 
           3170      8.33582e+6 
           3190      8.31418e+6 
           3210      8.39078e+6 
           3230      8.32546e+6 
           3250      8.43125e+6 
           3270      8.54334e+6 
           3290      8.59397e+6 
           3310      8.62419e+6 
           3330      8.59191e+6 
           3350      8.56919e+6 
           3370      8.61573e+6 
           3390      8.63631e+6 
           3410      8.74071e+6 
           3430      8.76492e+6 
           3450      8.74019e+6 
           3470       8.7752e+6 
           3490      8.81905e+6 
           3510      8.85307e+6 
           3530       8.8785e+6 
           3550      8.90758e+6 
           3570      8.86925e+6 
           3590      8.89405e+6 
           3610      8.91546e+6 
           3630      8.94671e+6 
           3640      8.96444e+6 
           3650      8.99654e+6 
           3670      8.96533e+6 
           3690      8.74777e+6 
           3710      9.64534e+6 
           3730      1.01758e+7 
           3750      1.19281e+7 
           3770      1.22034e+7 
           3790      1.30805e+7 
           3810      1.41288e+7 
           3830      1.25188e+7 
           3850      1.46612e+7 
           3870      1.50751e+7 
           3890      1.22508e+7 
           3910       1.5058e+7 
           3930        1.493e+7 
           3950      1.50643e+7 
           3970      1.20618e+7 
           3990      1.49058e+7 
           4010      1.51408e+7 
           4030      1.51171e+7 
           4050       1.5066e+7 
           4070      1.49112e+7 
           4090       1.4137e+7 
           4110      1.24316e+7 
           4130      1.47729e+7 
           4150      1.48189e+7 
           4170      1.48047e+7 
           4190      1.47521e+7 
           4210      1.46912e+7 
           4230      1.46248e+7 
           4250      1.45872e+7 
           4270      1.45269e+7 
           4290      1.44556e+7 
           4310      1.43153e+7 
           4330      1.33444e+7 
           4350      1.21985e+7 
           4370      1.41541e+7 
           4390      1.41722e+7 
           4410      1.41482e+7 
           4430      1.41089e+7 
           4450      1.40493e+7 
           4470      1.39955e+7 
           4490      1.39436e+7 
           4510      1.38863e+7 
           4530      1.38264e+7 
           4550      1.37679e+7 
           4570      1.37164e+7 
           4590      1.36611e+7 
           4610      1.36056e+7 
           4630      1.35482e+7 
           4650      1.34915e+7 
           4670      1.34351e+7 
           4690       1.3378e+7 
           4710      1.33196e+7 
           4730      1.32636e+7 
           4750      1.32066e+7 
           4770      1.31496e+7 
           4790      1.30914e+7 
           4810      1.30083e+7 
           4830      1.28887e+7 
           4850      1.21924e+7 
           4870      1.09169e+7 
           4890      1.26772e+7 
           4910      1.27129e+7 
           4930      1.26852e+7 
           4950      1.26339e+7 
           4970      1.25796e+7 
           4990      1.25217e+7 
           5010      1.24623e+7 
           5030      1.24094e+7 
           5050      1.23517e+7 
           5070      1.22966e+7 
           5090      1.22403e+7 
           5110      1.21839e+7 
           5130      1.21273e+7 
           5150      1.20707e+7 
           5170      1.19855e+7 
           5190      1.19448e+7 
           5210       1.1901e+7 
           5230      1.18446e+7 
           5250      1.17937e+7 
           5270      1.17327e+7 
           5290      1.16831e+7 
           5310      1.16276e+7 
           5330      1.15693e+7 
           5350      1.15175e+7 
           5370      1.14618e+7 
           5390      1.14073e+7 
           5410       1.1352e+7 
           5430      1.12974e+7 
           5450       1.1243e+7 
           5470      1.11904e+7 
           5490       1.1137e+7 
           5510      1.10833e+7 
           5530      1.10295e+7 
           5550       1.0977e+7 
           5570      1.09234e+7 
           5590        1.087e+7 
           5610      1.08178e+7 
           5630       1.0766e+7 
           5650      1.07138e+7 
           5670      1.06616e+7 
           5690      1.06099e+7 
           5710       1.0558e+7 
           5730      1.05065e+7 
           5750      1.04551e+7 
           5770      1.04038e+7 
           5790      1.03527e+7 
           5810      1.03019e+7 
           5830      1.02512e+7 
           5850      1.02006e+7 
           5870      1.01504e+7 
           5890      1.00947e+7 
           5910      1.00504e+7 
           5930      1.00007e+7 
           5950      9.95123e+6 
           5970       9.9019e+6 
           5990      9.85279e+6 
           6010      9.80391e+6 
           6030      9.75525e+6 
           6050      9.70691e+6 
           6070       9.6587e+6 
           6090       9.6107e+6 
           6110      9.56272e+6 
           6130      9.51446e+6 
           6150      9.46742e+6 
           6170       9.4194e+6 
           6190      9.37318e+6 
           6210      9.32629e+6 
           6230      9.27961e+6 
           6250      9.23314e+6 
           6270      9.18707e+6 
           6290      9.14103e+6 
           6310      9.09519e+6 
           6330      9.04956e+6 
           6350      9.00423e+6 
           6370      8.95901e+6 
           6390      8.91409e+6 
           6410      8.86928e+6 
           6430      8.82476e+6 
           6450       8.7798e+6 
           6470      8.73578e+6 
           6490      8.69123e+6 
           6510      8.63418e+6 
           6530      8.55504e+6 
           6550      8.25042e+6 
           6570      7.26134e+6 
           6590      8.38019e+6 
           6610      8.40672e+6 
           6630      8.39053e+6 
           6650      8.34832e+6 
           6670      8.30629e+6 
           6690      8.26453e+6 
           6710      8.22286e+6 
           6730      8.18147e+6 
           6750      8.14025e+6 
           6770      8.09921e+6 
           6790      8.05843e+6 
           6810      8.01783e+6 
           6830       7.9774e+6 
           6850      7.93723e+6 
           6870      7.89723e+6 
           6890      7.85748e+6 
           6910       7.8179e+6 
           6930      7.77857e+6 
           6950       7.7394e+6 
           6970       7.7004e+6 
           6990      7.66164e+6 
           7010      7.62304e+6 
           7030      7.58469e+6 
           7050      7.54649e+6 
           7070      7.50853e+6 
           7090      7.47072e+6 
           7110      7.43307e+6 
           7130      7.39566e+6 
           7150      7.35832e+6 
           7170      7.32136e+6 
           7190      7.28454e+6 
           7210      7.24774e+6 
           7230       7.2113e+6 
           7250      7.17515e+6 
           7270      7.13929e+6 
           7290      7.10301e+6 
           7310      7.06772e+6 
           7330      7.03201e+6 
           7350      6.99658e+6 
           7370      6.96143e+6 
           7390      6.92656e+6 
           7410      6.89128e+6 
           7430      6.85696e+6 
           7450      6.82223e+6 
           7470      6.78845e+6 
           7490      6.75426e+6 
           7510      6.72033e+6 
           7530      6.68667e+6 
           7550      6.65328e+6 
           7570      6.62014e+6 
           7590      6.58661e+6 
           7610      6.55398e+6 
           7630      6.52096e+6 
           7650      6.48884e+6 
           7670      6.45633e+6 
           7690      6.42406e+6 
           7710      6.39204e+6 
           7730      6.36027e+6 
           7750      6.32811e+6 
           7770      6.29683e+6 
           7790      6.26516e+6 
           7810      6.23434e+6 
           7830      6.20315e+6 
           7850      6.17219e+6 
           7870      6.14147e+6 
           7890      6.11098e+6 
           7910      6.08072e+6 
           7930      6.05068e+6 
           7950      6.02088e+6 
           7970       5.9907e+6 
           7990      5.96133e+6 
           8010       5.9316e+6 
           8030      5.90209e+6 
           8050      5.87338e+6 
           8070       5.8443e+6 
           8090      5.81544e+6 
           8110      5.78622e+6 
           8130      5.75779e+6 
           8150      5.72957e+6 
           8170      5.70155e+6 
           8190      5.67317e+6 
           8210      5.64669e+6 
           8230      5.61927e+6 
           8250      5.59206e+6 
           8270      5.56505e+6 
           8290      5.53878e+6 
           8310      5.51106e+6 
           8330      5.48245e+6 
           8350      5.45622e+6 
           8370      5.42372e+6 
           8390      5.39683e+6 
           8410      5.36693e+6 
           8430      5.34785e+6 
           8450      5.32151e+6 
           8470      5.26438e+6 
           8490      5.28978e+6 
           8510      5.17053e+6 
           8530      5.25012e+6 
           8550      5.06789e+6 
           8570      5.21405e+6 
           8590      5.12343e+6 
