# Kurucz ODFNEW /NOVER (2003)
# teff = 26000 K (value for the effective temperature for the model. Temperatures are given in K)
# logg = 4.5 log(cm/s2) (value for Log(G) for the model.)
# meta = 0.2  (value for the Metallicity for the model.)
# lh = 1.25  (l/Hp where l is the  mixing length of the convective element and Hp is the pressure scale height)
# vtur = 2 km/s (Microturbulence velocity)
# alpha = 0  (Alpha)
#
# column 1: WAVELENGTH (ANGSTROM), Wavelength in Angstrom
# column 2: FLUX (ERG/CM2/S/A), Flux in erg/cm2/s/A
          147.2     6.75138e-13 
            151     2.59668e-12 
          155.2     1.07083e-11 
          158.8     3.41317e-11 
            162     9.19731e-11 
            166     3.02084e-10 
          170.3      1.02145e-9 
          173.4      2.38372e-9 
          176.8      5.83976e-9 
          180.2      1.38837e-8 
          181.7      2.01277e-8 
          186.1      5.80869e-8 
            191      1.79437e-7 
          193.9      3.41066e-7 
          198.4      8.92645e-7 
          201.8      1.79839e-6 
            205      3.40872e-6 
          210.5       9.8131e-6 
          216.2      2.78228e-5 
          219.8      5.23367e-5 
            223      9.03093e-5 
          226.8     0.000169629 
            230       0.0122925 
            234        0.027352 
            240       0.0604003 
          246.5        0.137647 
          252.4         0.28332 
          256.8        0.450981 
            260        0.719687 
            264         1.10117 
          268.5          1.7819 
          273.5          2.9597 
          278.5         4.82837 
            284         8.73163 
            290         14.8766 
            296         24.9869 
            301         37.4721 
            308         67.8569 
            318         152.929 
            328         301.194 
            338         607.679 
            348         1136.59 
            357         3883.49 
            366         7163.58 
            375         10612.7 
            385         17206.2 
            395         29785.8 
            405         44192.4 
            414         64326.8 
            422         87209.8 
            430          121623 
            441          178368 
            451          241206 
            460          313686 
            470          433537 
            480          578682 
            490          771989 
            500          998122 
            506      4.38504e+6 
            512       3.4127e+7 
            520        3.779e+7 
            530      4.29008e+7 
            540      4.51494e+7 
            550      6.35172e+7 
            560      7.40617e+7 
            570      8.63243e+7 
            580      8.31548e+7 
            590      1.05458e+8 
            600      1.14044e+8 
            610      1.31142e+8 
            620      1.41744e+8 
            630      1.45879e+8 
            640      1.31055e+8 
            650        1.033e+8 
            658      1.47067e+8 
            665      1.82195e+8 
            675       1.9864e+8 
            685      2.02734e+8 
            695      2.64524e+8 
            705      2.66926e+8 
            716      3.01218e+8 
            726      3.10375e+8 
            735      3.19515e+8 
            745      3.60721e+8 
            755      3.81293e+8 
            765      4.06763e+8 
            775       4.3122e+8 
            785       4.5921e+8 
            795      4.72193e+8 
            805       4.8677e+8 
            815      4.98181e+8 
            825      5.39817e+8 
            835        4.796e+8 
            845      5.50934e+8 
            855      5.59561e+8 
            865      5.94278e+8 
            875      6.28895e+8 
            885      6.75225e+8 
            895      7.01983e+8 
            905      6.91247e+8 
            915       8.6863e+8 
            925      4.43908e+9 
            935     1.07474e+10 
            945     2.32574e+10 
            955      3.1126e+10 
            965     3.80372e+10 
            975      6.12833e+9 
            985     3.23687e+10 
            995     3.12605e+10 
           1005     3.70096e+10 
           1015      3.7065e+10 
           1025     1.65981e+10 
           1035     2.89479e+10 
           1045     4.50409e+10 
           1055     4.12498e+10 
           1065     3.22209e+10 
           1075     3.74146e+10 
           1085     3.32463e+10 
           1095     3.74522e+10 
           1105     3.37013e+10 
           1115     3.23541e+10 
           1125     2.51543e+10 
           1135     3.34786e+10 
           1145     2.98964e+10 
           1155     3.06461e+10 
           1165     3.00556e+10 
           1175     1.69381e+10 
           1185     2.80838e+10 
           1195     2.58134e+10 
           1205      1.7733e+10 
           1215     1.21237e+10 
           1225     2.27492e+10 
           1235     2.70958e+10 
           1245     2.62005e+10 
           1255     2.57153e+10 
           1265      2.6325e+10 
           1275     2.71604e+10 
           1285     2.69949e+10 
           1295     1.89871e+10 
           1305     2.03274e+10 
           1315     2.60147e+10 
           1325     2.39905e+10 
           1335     2.30744e+10 
           1345     2.33594e+10 
           1355     2.30159e+10 
           1365     2.08056e+10 
           1375     2.00896e+10 
           1385     1.94765e+10 
           1395     1.37981e+10 
           1405     1.50358e+10 
           1415     1.69477e+10 
           1425     1.65545e+10 
           1435     1.72294e+10 
           1442     1.76677e+10 
           1447     1.73435e+10 
           1455     1.66985e+10 
           1465     1.51859e+10 
           1475     1.55994e+10 
           1485     1.53461e+10 
           1495      1.5007e+10 
           1505     1.33564e+10 
           1512     1.18756e+10 
           1517     1.22616e+10 
           1525     1.27234e+10 
           1535     1.05628e+10 
           1545     1.01135e+10 
           1555      9.88102e+9 
           1565     1.08143e+10 
           1575      1.1554e+10 
           1585     1.16176e+10 
           1595     1.14484e+10 
           1605     1.16905e+10 
           1615     1.13401e+10 
           1625     1.11545e+10 
           1635     1.18607e+10 
           1645     1.18294e+10 
           1655     1.16829e+10 
           1665     1.18939e+10 
           1672     1.12447e+10 
           1677     1.24278e+10 
           1685      1.1963e+10 
           1695     1.12386e+10 
           1705     1.08918e+10 
           1715     1.02662e+10 
           1725     1.00231e+10 
           1735     1.04902e+10 
           1745     1.02405e+10 
           1755     1.02863e+10 
           1765     1.01028e+10 
           1775      9.42223e+9 
           1785       9.6246e+9 
           1795      9.93169e+9 
           1805      1.0002e+10 
           1815      8.83939e+9 
           1825      9.21604e+9 
           1835      8.88505e+9 
           1845      8.03499e+9 
           1855      8.15672e+9 
           1865      8.26054e+9 
           1875      8.64577e+9 
           1885      7.62932e+9 
           1895      7.07661e+9 
           1905       7.7162e+9 
           1915      7.19902e+9 
           1925      6.78629e+9 
           1935      7.27102e+9 
           1945      7.44023e+9 
           1955      6.63008e+9 
           1967      7.26129e+9 
           1976      7.59436e+9 
           1984      6.97765e+9 
           1995      6.86363e+9 
           2005      7.14563e+9 
           2015      7.03025e+9 
           2025       7.2468e+9 
           2035      6.54633e+9 
           2045      6.68993e+9 
           2055      6.37582e+9 
           2065      6.36722e+9 
           2074      6.68509e+9 
           2078      5.99806e+9 
           2085      6.35805e+9 
           2095       6.0127e+9 
           2105      6.28091e+9 
           2115      6.29838e+9 
           2125      6.34403e+9 
           2135      6.21664e+9 
           2145      5.86707e+9 
           2155      6.13391e+9 
           2165      6.09698e+9 
           2175       6.0166e+9 
           2185      5.79405e+9 
           2195      5.88478e+9 
           2205      5.85439e+9 
           2215      5.74436e+9 
           2225      5.58334e+9 
           2235      5.49653e+9 
           2245      5.54148e+9 
           2255      5.34242e+9 
           2265      5.41703e+9 
           2275      5.32584e+9 
           2285      5.31692e+9 
           2295      4.82758e+9 
           2305      5.11557e+9 
           2315      4.95822e+9 
           2325      4.90389e+9 
           2335      4.75031e+9 
           2345      4.77983e+9 
           2355      4.75868e+9 
           2365      4.70202e+9 
           2375      4.59459e+9 
           2385      4.56058e+9 
           2395      4.51239e+9 
           2405      4.41704e+9 
           2415      4.38338e+9 
           2425      4.37459e+9 
           2435      4.23339e+9 
           2445      4.24446e+9 
           2455      4.24445e+9 
           2465       4.1639e+9 
           2475      4.09748e+9 
           2485      4.02253e+9 
           2495      3.50457e+9 
           2505       3.8972e+9 
           2513      3.71088e+9 
           2518      3.86074e+9 
           2525      3.81396e+9 
           2535      3.76734e+9 
           2545      3.63158e+9 
           2555      3.67956e+9 
           2565      3.62522e+9 
           2575      3.63109e+9 
           2585      3.58276e+9 
           2595      3.54736e+9 
           2605      3.51291e+9 
           2615      3.46202e+9 
           2625      3.43651e+9 
           2635      3.40505e+9 
           2645      3.36142e+9 
           2655      3.34684e+9 
           2665        3.203e+9 
           2675      3.21985e+9 
           2685      3.21106e+9 
           2695      3.08644e+9 
           2705      3.02433e+9 
           2715      3.02918e+9 
           2725      3.02276e+9 
           2735      3.00418e+9 
           2745      2.91933e+9 
           2755      2.91227e+9 
           2765      2.87646e+9 
           2775      2.90313e+9 
           2785      2.85225e+9 
           2795      2.74276e+9 
           2805      2.76748e+9 
           2815      2.77528e+9 
           2825      2.72668e+9 
           2835      2.62002e+9 
           2845      2.66302e+9 
           2855      2.61588e+9 
           2865      2.61482e+9 
           2875      2.58472e+9 
           2885      2.55294e+9 
           2895      2.51407e+9 
           2910      2.46197e+9 
           2930      2.42926e+9 
           2950      2.35124e+9 
           2970      2.32075e+9 
           2990      2.26414e+9 
           3010      2.18409e+9 
           3030      2.17575e+9 
           3050      2.13722e+9 
           3070      2.10259e+9 
           3090      2.01719e+9 
           3110      2.00842e+9 
           3130      1.95804e+9 
           3150       1.9257e+9 
           3170      1.87313e+9 
           3190      1.83272e+9 
           3210      1.81116e+9 
           3230      1.76674e+9 
           3250      1.73957e+9 
           3270          1.7e+9 
           3290      1.66533e+9 
           3310      1.63551e+9 
           3330      1.59924e+9 
           3350      1.57026e+9 
           3370      1.53821e+9 
           3390      1.51402e+9 
           3410       1.4853e+9 
           3430      1.45109e+9 
           3450      1.41839e+9 
           3470      1.39333e+9 
           3490      1.36525e+9 
           3510      1.34181e+9 
           3530      1.32339e+9 
           3550      1.29844e+9 
           3570      1.28142e+9 
           3590      1.24041e+9 
           3610      1.22115e+9 
           3630      1.20224e+9 
           3640      1.20244e+9 
           3650      1.17519e+9 
           3670      1.16208e+9 
           3690      1.14089e+9 
           3710      1.09684e+9 
           3730      1.05378e+9 
           3750      1.06765e+9 
           3770      1.04954e+9 
           3790      1.09837e+9 
           3810      1.14051e+9 
           3830      9.97547e+8 
           3850      1.16055e+9 
           3870       1.1594e+9 
           3890      9.38954e+8 
           3910      1.15805e+9 
           3930       1.1261e+9 
           3950      1.10951e+9 
           3970      8.72141e+8 
           3990      1.06778e+9 
           4010      1.06981e+9 
           4030      1.00268e+9 
           4050      1.03571e+9 
           4070      9.84642e+8 
           4090      9.10379e+8 
           4110      8.09232e+8 
           4130      9.38881e+8 
           4150      9.35606e+8 
           4170      9.32654e+8 
           4190      9.22505e+8 
           4210      9.14569e+8 
           4230      8.93498e+8 
           4250      8.67713e+8 
           4270      8.42248e+8 
           4290      8.33512e+8 
           4310      8.05332e+8 
           4330      7.31943e+8 
           4350      6.71692e+8 
           4370      7.64017e+8 
           4390      7.56641e+8 
           4410        7.576e+8 
           4430      7.51006e+8 
           4450      7.39343e+8 
           4470      6.98596e+8 
           4490      7.15259e+8 
           4510      7.11226e+8 
           4530      6.98865e+8 
           4550      6.89277e+8 
           4570      6.77304e+8 
           4590      6.65854e+8 
           4610       6.4924e+8 
           4630      6.39197e+8 
           4650      6.20173e+8 
           4670      6.21799e+8 
           4690      6.16815e+8 
           4710      5.91159e+8 
           4730      5.93647e+8 
           4750      5.84384e+8 
           4770      5.84378e+8 
           4790      5.73515e+8 
           4810      5.59979e+8 
           4830      5.48326e+8 
           4850       5.0624e+8 
           4870      4.51817e+8 
           4890       5.2487e+8 
           4910      5.21275e+8 
           4930      5.01383e+8 
           4950      5.05781e+8 
           4970      5.02649e+8 
           4990      4.94028e+8 
           5010      4.71645e+8 
           5030      4.78697e+8 
           5050        4.667e+8 
           5070      4.66499e+8 
           5090       4.5871e+8 
           5110         4.51e+8 
           5130      4.40276e+8 
           5150      4.35542e+8 
           5170      4.33038e+8 
           5190      4.27609e+8 
           5210      4.19975e+8 
           5230      4.15364e+8 
           5250      4.09882e+8 
           5270      4.03128e+8 
           5290      3.98712e+8 
           5310      3.92828e+8 
           5330      3.87525e+8 
           5350      3.81409e+8 
           5370      3.77528e+8 
           5390      3.72086e+8 
           5410      3.67473e+8 
           5430      3.61897e+8 
           5450      3.56899e+8 
           5470      3.52053e+8 
           5490      3.47567e+8 
           5510      3.43709e+8 
           5530       3.3832e+8 
           5550      3.34809e+8 
           5570       3.3009e+8 
           5590      3.26201e+8 
           5610      3.21533e+8 
           5630      3.17791e+8 
           5650      3.11733e+8 
           5670      3.06339e+8 
           5690      3.01781e+8 
           5710       3.0019e+8 
           5730      2.96882e+8 
           5750      2.92188e+8 
           5770       2.9003e+8 
           5790      2.86086e+8 
           5810      2.82524e+8 
           5830      2.78272e+8 
           5850      2.75217e+8 
           5870      2.63155e+8 
           5890      2.65432e+8 
           5910      2.64113e+8 
           5930      2.60417e+8 
           5950      2.56892e+8 
           5970      2.55702e+8 
           5990      2.51184e+8 
           6010      2.49108e+8 
           6030       2.4551e+8 
           6050      2.42799e+8 
           6070      2.40302e+8 
           6090      2.37375e+8 
           6110      2.34522e+8 
           6130      2.31891e+8 
           6150      2.27646e+8 
           6170      2.25579e+8 
           6190      2.23445e+8 
           6210      2.21002e+8 
           6230      2.18479e+8 
           6250      2.15241e+8 
           6270      2.13017e+8 
           6290      2.10722e+8 
           6310      2.08054e+8 
           6330      2.05923e+8 
           6350      2.02685e+8 
           6370      2.00941e+8 
           6390      1.98642e+8 
           6410      1.96396e+8 
           6430      1.94356e+8 
           6450      1.92003e+8 
           6470      1.89018e+8 
           6490      1.87094e+8 
           6510      1.85102e+8 
           6530      1.82035e+8 
           6550      1.73435e+8 
           6570      1.52595e+8 
           6590      1.73669e+8 
           6610      1.74431e+8 
           6630      1.73191e+8 
           6650      1.71265e+8 
           6670      1.67606e+8 
           6690      1.65856e+8 
           6710      1.65831e+8 
           6730      1.63599e+8 
           6750      1.62284e+8 
           6770      1.60521e+8 
           6790      1.57215e+8 
           6810      1.56699e+8 
           6830      1.55032e+8 
           6850      1.53574e+8 
           6870      1.51907e+8 
           6890       1.5009e+8 
           6910      1.48339e+8 
           6930      1.47021e+8 
           6950      1.45505e+8 
           6970      1.43973e+8 
           6990      1.42403e+8 
           7010      1.40871e+8 
           7030      1.39369e+8 
           7050      1.37875e+8 
           7070      1.34036e+8 
           7090      1.34869e+8 
           7110      1.32703e+8 
           7130      1.31389e+8 
           7150       1.3064e+8 
           7170      1.29458e+8 
           7190      1.28178e+8 
           7210      1.26844e+8 
           7230      1.23484e+8 
           7250      1.24022e+8 
           7270      1.22956e+8 
           7290      1.20638e+8 
           7310      1.20423e+8 
           7330       1.1917e+8 
           7350      1.18021e+8 
           7370       1.1684e+8 
           7390      1.15657e+8 
           7410      1.14491e+8 
           7430      1.13268e+8 
           7450      1.12179e+8 
           7470       1.1056e+8 
           7490      1.09889e+8 
           7510       1.0879e+8 
           7530      1.07662e+8 
           7550      1.06729e+8 
           7570      1.05679e+8 
           7590      1.04619e+8 
           7610      1.03465e+8 
           7630      1.02555e+8 
           7650      1.01568e+8 
           7670      1.00585e+8 
           7690      9.96035e+7 
           7710      9.86058e+7 
           7730       9.7636e+7 
           7750      9.67438e+7 
           7770      9.52979e+7 
           7790      9.48961e+7 
           7810      9.39351e+7 
           7830      9.30872e+7 
           7850      9.21672e+7 
           7870      9.11884e+7 
           7890      9.00973e+7 
           7910      8.95339e+7 
           7930      8.86755e+7 
           7950      8.77411e+7 
           7970      8.69217e+7 
           7990      8.59678e+7 
           8010      8.52748e+7 
           8030      8.44708e+7 
           8050      8.37028e+7 
           8070      8.29645e+7 
           8090      8.20943e+7 
           8110      8.10426e+7 
           8130      8.07071e+7 
           8150      7.99201e+7 
           8170      7.92923e+7 
           8190      7.82259e+7 
           8210      7.73925e+7 
           8230       7.6583e+7 
           8250      7.62785e+7 
           8270      7.48855e+7 
           8290      7.48371e+7 
           8310      7.42263e+7 
           8330      7.35609e+7 
           8350      7.25281e+7 
           8370      7.20636e+7 
           8390      7.15973e+7 
           8410      7.09163e+7 
           8430      7.02727e+7 
           8450      6.89538e+7 
           8470      6.90014e+7 
           8490      6.81906e+7 
           8510      6.76052e+7 
           8530      6.70193e+7 
           8550      6.59898e+7 
           8570      6.63541e+7 
