# Kurucz ODFNEW /NOVER (2003)
# teff = 3500 K (value for the effective temperature for the model. Temperatures are given in K)
# logg = 1.5 log(cm/s2) (value for Log(G) for the model.)
# meta = -2  (value for the Metallicity for the model.)
# lh = 1.25  (l/Hp where l is the  mixing length of the convective element and Hp is the pressure scale height)
# vtur = 2 km/s (Microturbulence velocity)
# alpha = 0.4  (Alpha)
#
# column 1: WAVELENGTH (ANGSTROM), Wavelength in Angstrom
# column 2: FLUX (ERG/CM2/S/A), Flux in erg/cm2/s/A
          147.2     1.73866e-35 
            151     1.65225e-35 
          155.2     1.56403e-35 
          158.8     1.49392e-35 
            162     1.43549e-35 
            166     1.36714e-35 
          170.3     1.29897e-35 
          173.4     1.25294e-35 
          176.8     1.20522e-35 
          180.2     1.16017e-35 
          181.7     1.14109e-35 
          186.1     1.08777e-35 
            191     1.03267e-35 
          193.9     1.00201e-35 
          198.4     9.57076e-36 
          201.8     9.25097e-36 
            205     8.96441e-36 
          210.5     8.50208e-36 
          216.2     8.05969e-36 
          219.8     7.79784e-36 
            223     7.57565e-36 
          226.8     7.32392e-36 
            230     7.12154e-36 
            234     6.88015e-36 
            240     6.54044e-36 
          246.5     6.20006e-36 
          252.4     5.91358e-36 
          256.8     5.71267e-36 
            260     5.57292e-36 
            264     5.40532e-36 
          268.5     5.22566e-36 
          273.5     5.03634e-36 
          278.5     4.85712e-36 
            284     4.67082e-36 
            290     4.47954e-36 
            296     4.29978e-36 
            301     4.15812e-36 
            308     3.97126e-36 
            318     3.72542e-36 
            328     3.50172e-36 
            338     3.29759e-36 
            348     3.11079e-36 
            357     2.95592e-36 
            366     2.81234e-36 
            375     2.67896e-36 
            385     2.54161e-36 
            395     2.41455e-36 
            405     2.29678e-36 
            414     2.19801e-36 
            422     2.11546e-36 
            430     2.03748e-36 
            441      1.9371e-36 
            451     1.85215e-36 
            460     1.78038e-36 
            470     1.70543e-36 
            480     1.63511e-36 
            490     1.56905e-36 
            500     1.50692e-36 
            506     1.47139e-36 
            512     1.43711e-36 
            520     1.39323e-36 
            530     1.34115e-36 
            540     1.29194e-36 
            550     1.24539e-36 
            560     1.20131e-36 
            570     1.15952e-36 
            580     1.11989e-36 
            590     1.08224e-36 
            600     1.04647e-36 
            610     1.01244e-36 
            620     9.80045e-37 
            630      9.4918e-37 
            640      9.1975e-37 
            650     8.91667e-37 
            658     8.70117e-37 
            665     8.51895e-37 
            675     8.26841e-37 
            685     8.02876e-37 
            695     7.79938e-37 
            705     7.57969e-37 
            716     7.34858e-37 
            726     7.14754e-37 
            735     6.97357e-37 
            745     6.78761e-37 
            755       6.609e-37 
            765     6.43734e-37 
            775     6.27229e-37 
            785      6.1135e-37 
            795     5.96067e-37 
            805      5.8135e-37 
            815     5.67171e-37 
            825     5.53505e-37 
            835     5.40327e-37 
            845     5.27614e-37 
            855     5.15344e-37 
            865     5.03498e-37 
            875     4.92055e-37 
            885     4.80998e-37 
            895     4.70309e-37 
            905     4.59973e-37 
            915     2.85477e-20 
            925     1.36342e-19 
            935     2.28005e-19 
            945     4.46874e-19 
            955     7.42451e-19 
            965     1.68533e-18 
            975     2.53994e-18 
            985     6.15091e-18 
            995     1.32525e-17 
           1005     2.10337e-17 
           1015     2.92275e-17 
           1025     5.81073e-17 
           1035     1.50323e-16 
           1045     2.90541e-16 
           1055     4.09045e-16 
           1065     1.07991e-15 
           1075     1.70923e-15 
           1085     3.89202e-15 
           1095     6.01749e-15 
           1105     1.04307e-14 
           1115     1.69579e-14 
           1125     3.58535e-14 
           1135     6.17781e-14 
           1145     1.08804e-13 
           1155     1.66868e-13 
           1165     2.29048e-13 
           1175     3.39094e-13 
           1185     5.69001e-13 
           1195      4.7035e-13 
           1205     4.50174e-13 
           1215     3.32752e-13 
           1225     1.00773e-12 
           1235     2.45065e-12 
           1245     5.05174e-12 
           1255     9.85389e-12 
           1265     1.89009e-11 
           1275     2.91558e-11 
           1285     4.65361e-11 
           1295     6.77609e-11 
           1305      1.1768e-10 
           1315     1.74195e-10 
           1325     2.63209e-10 
           1335     3.68438e-10 
           1345     5.47864e-10 
           1355     8.58751e-10 
           1365       1.1565e-9 
           1375      1.49355e-9 
           1385      2.01403e-9 
           1395      2.67037e-9 
           1405      3.92488e-9 
           1415       5.4074e-9 
           1425      6.40688e-9 
           1435      9.18633e-9 
           1442      1.30658e-8 
           1447      1.17614e-8 
           1455      1.52034e-8 
           1465      2.07794e-8 
           1475      2.40206e-8 
           1485      3.08067e-8 
           1495      4.64173e-8 
           1505      6.41015e-8 
           1512      5.05933e-8 
           1517      7.09672e-8 
           1525      9.51792e-8 
           1535      1.26971e-7 
           1545      1.20104e-7 
           1555      1.73936e-7 
           1565      2.01499e-7 
           1575      2.89006e-7 
           1585      3.55132e-7 
           1595      4.03129e-7 
           1605      4.92449e-7 
           1615      6.03798e-7 
           1625      6.93617e-7 
           1635      9.16589e-7 
           1645      1.18811e-6 
           1655      1.30916e-6 
           1665      1.76146e-6 
           1672      1.81237e-6 
           1677      2.34008e-6 
           1685      2.79679e-6 
           1695      3.80358e-6 
           1705      4.31259e-6 
           1715      5.52447e-6 
           1725      7.23219e-6 
           1735      8.76713e-6 
           1745      1.17092e-5 
           1755      1.28258e-5 
           1765      1.74964e-5 
           1775      1.81667e-5 
           1785      3.02805e-5 
           1795      2.86017e-5 
           1805      4.79303e-5 
           1815      4.07261e-5 
           1825      6.37616e-5 
           1835      6.11588e-5 
           1845      9.95072e-5 
           1855      8.40207e-5 
           1865     0.000141887 
           1875     0.000140721 
           1885     0.000186784 
           1895     0.000231198 
           1905     0.000265505 
           1915     0.000385346 
           1925      0.00035556 
           1935      0.00033969 
           1945     0.000540085 
           1955     0.000792645 
           1967     0.000861677 
           1976      0.00105959 
           1984      0.00145724 
           1995      0.00130861 
           2005      0.00165244 
           2015      0.00188466 
           2025      0.00193021 
           2035      0.00236769 
           2045      0.00245305 
           2055      0.00310936 
           2065      0.00299654 
           2074        0.002754 
           2078      0.00382829 
           2085        0.004976 
           2095      0.00700546 
           2105      0.00744884 
           2115      0.00714226 
           2125      0.00955667 
           2135       0.0129022 
           2145      0.00854085 
           2155       0.0129924 
           2165       0.0125463 
           2175       0.0142764 
           2185       0.0131028 
           2195       0.0264968 
           2205       0.0201063 
           2215       0.0291426 
           2225       0.0211923 
           2235       0.0452915 
           2245        0.049364 
           2255       0.0792795 
           2265        0.029142 
           2275       0.0958852 
           2285       0.0633666 
           2295        0.154003 
           2305       0.0356285 
           2315        0.252811 
           2325        0.137635 
           2335        0.277118 
           2345        0.154233 
           2355         0.10537 
           2365        0.180557 
           2375        0.148705 
           2385          0.4041 
           2395        0.331193 
           2405        0.900004 
           2415        0.358448 
           2425         0.59194 
           2435         1.05479 
           2445         1.68141 
           2455         2.07522 
           2465          1.0333 
           2475         2.90953 
           2485        0.564653 
           2495        0.763744 
           2505         1.98252 
           2513           1.043 
           2518         1.46376 
           2525         2.35417 
           2535         7.19255 
           2545         11.4071 
           2555         9.97741 
           2565         3.34206 
           2575         8.99406 
           2585         3.62961 
           2595         6.13931 
           2605          9.5631 
           2615          6.6672 
           2625         15.2034 
           2635         29.5986 
           2645         19.8703 
           2655         36.2047 
           2665         23.9636 
           2675         22.5786 
           2685         31.2526 
           2695         16.3321 
           2705         47.9856 
           2715         42.4064 
           2725         34.2011 
           2735         34.1932 
           2745         62.9414 
           2755         54.0722 
           2765          93.916 
           2775         126.585 
           2785         67.5383 
           2795          99.125 
           2805         95.7861 
           2815          104.43 
           2825         105.103 
           2835         75.9484 
           2845         43.8916 
           2855         14.4054 
           2865         97.5165 
           2875         109.774 
           2885         227.322 
           2895         286.922 
           2910         389.053 
           2930         455.152 
           2950         468.049 
           2970         440.711 
           2990         648.608 
           3010         783.805 
           3030         984.284 
           3050         1216.63 
           3070         1131.24 
           3090         1190.62 
           3110          1832.8 
           3130         1624.99 
           3150         2449.83 
           3170         3707.31 
           3190         3406.75 
           3210         4079.49 
           3230         4266.01 
           3250         6739.58 
           3270         8562.37 
           3290         10921.4 
           3310         9845.22 
           3330         10407.5 
           3350         9734.71 
           3370         6760.76 
           3390         9350.95 
           3410         11755.7 
           3430         14535.5 
           3450         14503.9 
           3470         15883.1 
           3490         18804.1 
           3510           25988 
           3530           24515 
           3550         34179.9 
           3570         23831.2 
           3590         22716.7 
           3610         30916.9 
           3630         37147.2 
           3640         41475.6 
           3650         42300.6 
           3670         51126.9 
           3690         47337.1 
           3710         45582.7 
           3730         24715.4 
           3750         32383.3 
           3770         55509.2 
           3790         58958.6 
           3810         59135.4 
           3830         31668.7 
           3850         50328.9 
           3870         49042.8 
           3890         53277.5 
           3910         60276.8 
           3930         20387.4 
           3950         46354.4 
           3970         28955.8 
           3990           83959 
           4010          106735 
           4030           96564 
           4050          103305 
           4070          102337 
           4090          111550 
           4110         71846.2 
           4130         87306.2 
           4150         81057.3 
           4170         76869.4 
           4190         89795.7 
           4210         87575.7 
           4230         76862.2 
           4250          103945 
           4270          101060 
           4290          103557 
           4310          110272 
           4330          147922 
           4350          152623 
           4370          157287 
           4390          151057 
           4410          159259 
           4430          170286 
           4450          177564 
           4470          191430 
           4490          205350 
           4510          221425 
           4530          199665 
           4550          217148 
           4570          230909 
           4590          229277 
           4610          240409 
           4630          240112 
           4650          237877 
           4670          255657 
           4690          252847 
           4710          250654 
           4730          251603 
           4750          252427 
           4770          212962 
           4790          226047 
           4810          253464 
           4830          259896 
           4850          278001 
           4870          282266 
           4890          295307 
           4910          299391 
           4930          292472 
           4950          285455 
           4970          251957 
           4990          251803 
           5010          222194 
           5030          240175 
           5050          229531 
           5070          227152 
           5090          220092 
           5110          224808 
           5130          214097 
           5150          205818 
           5170          203425 
           5190          220406 
           5210          246614 
           5230          345673 
           5250          353637 
           5270          339631 
           5290          373928 
           5310          400043 
           5330          374277 
           5350          396979 
           5370          397163 
           5390          391187 
           5410          399099 
           5430          395743 
           5450          385601 
           5470          383353 
           5490          396390 
           5510          385973 
           5530          418640 
           5550          430415 
           5570          426067 
           5590          416477 
           5610          407875 
           5630          425591 
           5650          443744 
           5670          437630 
           5690          458471 
           5710          444150 
           5730          471082 
           5750          478978 
           5770          476534 
           5790          477383 
           5810          483633 
           5830          494231 
           5850          481225 
           5870          469883 
           5890          422163 
           5910          453146 
           5930          460369 
           5950          463387 
           5970          478722 
           5990          487668 
           6010          492813 
           6030          508023 
           6050          517381 
           6070          518558 
           6090          518763 
           6110          524889 
           6130          505880 
           6150          522934 
           6170          464379 
           6190          477557 
           6210          472317 
           6230          452653 
           6250          458643 
           6270          487345 
           6290          503952 
           6310          515863 
           6330          526834 
           6350          540497 
           6370          536003 
           6390          541907 
           6410          541611 
           6430          537072 
           6450          539949 
           6470          547218 
           6490          537223 
           6510          556070 
           6530          570383 
           6550          558897 
           6570          558912 
           6590          567183 
           6610          567317 
           6630          569608 
           6650          554490 
           6670          543625 
           6690          524866 
           6710          525332 
           6730          503799 
           6750          508226 
           6770          533388 
           6790          520175 
           6810          536417 
           6830          552978 
           6850          560375 
           6870          562689 
           6890          579282 
           6910          591114 
           6930          590704 
           6950          598548 
           6970          610689 
           6990          609281 
           7010          613844 
           7030          619908 
           7050          599652 
           7070          547350 
           7090          521168 
           7110          523524 
           7130          480285 
           7150          489997 
           7170          517459 
           7190          544725 
           7210          540750 
           7230          576443 
           7250          584333 
           7270          605920 
           7290          616026 
           7310          622840 
           7330          625301 
           7350          625926 
           7370          638222 
           7390          640857 
           7410          639248 
           7430          643645 
           7450          645000 
           7470          645149 
           7490          646778 
           7510          650819 
           7530          653047 
           7550          653769 
           7570          654605 
           7590          644960 
           7610          642804 
           7630          638416 
           7650          637020 
           7670          617520 
           7690          624027 
           7710          617048 
           7730          628638 
           7750          623760 
           7770          629433 
           7790          631668 
           7810          641160 
           7830          637951 
           7850          637394 
           7870          645229 
           7890          649042 
           7910          645704 
           7930          649161 
           7950          645839 
           7970          656717 
           7990          654082 
           8010          655987 
           8030          656930 
           8050          655356 
           8070          653674 
           8090          658562 
           8110          660072 
           8130          662072 
           8150          663080 
           8170          663168 
           8190          651901 
           8210          648673 
           8230          655925 
           8250          655959 
           8270          658629 
           8290          655016 
           8310          648812 
           8330          646569 
           8350          649581 
           8370          647179 
           8390          620978 
           8410          647483 
           8430          626284 
           8450          643847 
           8470          639077 
           8490          642133 
           8510          621327 
           8530          642182 
           8550          586925 
           8570          652154 
