# Kurucz ODFNEW /NOVER (2003)
# teff = 24000 K (value for the effective temperature for the model. Temperatures are given in K)
# logg = 3 log(cm/s2) (value for Log(G) for the model.)
# meta = -1.5  (value for the Metallicity for the model.)
# lh = 1.25  (l/Hp where l is the  mixing length of the convective element and Hp is the pressure scale height)
# vtur = 2 km/s (Microturbulence velocity)
# alpha = 0  (Alpha)
#
# column 1: WAVELENGTH (ANGSTROM), Wavelength in Angstrom
# column 2: FLUX (ERG/CM2/S/A), Flux in erg/cm2/s/A
          147.2     1.51795e-14 
            151      7.2846e-14 
          155.2     3.76651e-13 
          158.8     1.43599e-12 
            162     4.48719e-12 
            166     1.75117e-11 
          170.3     7.03576e-11 
          173.4     1.83644e-10 
          176.8       5.056e-10 
          180.2      1.33895e-9 
          181.7      2.03342e-9 
          186.1      6.66313e-9 
            191      2.34035e-8 
          193.9       4.7743e-8 
          198.4      1.38364e-7 
          201.8      2.99408e-7 
            205      6.04542e-7 
          210.5      1.92275e-6 
          216.2      5.98891e-6 
          219.8      1.18956e-5 
            223        2.148e-5 
          226.8      4.23828e-5 
            230      0.00468597 
            234       0.0115139 
            240       0.0268106 
          246.5       0.0648836 
          252.4        0.139803 
          256.8        0.211929 
            260        0.349729 
            264        0.544478 
          268.5        0.898709 
          273.5         1.52833 
          278.5         2.54644 
            284         4.42761 
            290         7.74513 
            296         13.2167 
            301         19.7731 
            308         32.6938 
            318         80.0071 
            328         163.842 
            338         330.088 
            348         627.136 
            357         1138.74 
            366         1941.13 
            375         3098.22 
            385         5214.36 
            395         8462.26 
            405         13321.8 
            414         19820.1 
            422         27261.9 
            430         37479.4 
            441         56950.8 
            451         81752.1 
            460          110496 
            470          154210 
            480          209932 
            490          283308 
            500          377528 
            506      3.21323e+6 
            512       9.5789e+6 
            520      1.09182e+7 
            530      1.33615e+7 
            540      1.39697e+7 
            550      1.86522e+7 
            560      2.14385e+7 
            570      2.51837e+7 
            580      2.48144e+7 
            590      3.12899e+7 
            600      3.57579e+7 
            610      4.09462e+7 
            620      4.55368e+7 
            630      5.08371e+7 
            640      5.39203e+7 
            650      5.87056e+7 
            658      6.65796e+7 
            665      7.13369e+7 
            675      7.52119e+7 
            685      8.05445e+7 
            695      9.33429e+7 
            705      9.80584e+7 
            716      1.09626e+8 
            726      1.16405e+8 
            735      1.24039e+8 
            745      1.36519e+8 
            755      1.46231e+8 
            765      1.56717e+8 
            775      1.68505e+8 
            785       1.8107e+8 
            795      1.90813e+8 
            805      2.02141e+8 
            815      2.10897e+8 
            825      2.26583e+8 
            835        2.263e+8 
            845      2.46802e+8 
            855      2.58893e+8 
            865      2.73928e+8 
            875      2.91183e+8 
            885      3.07992e+8 
            895      3.22388e+8 
            905      3.32455e+8 
            915      7.29183e+8 
            925      8.21243e+9 
            935     1.38914e+10 
            945     1.94531e+10 
            955     2.07167e+10 
            965     2.25243e+10 
            975     1.14855e+10 
            985     2.09223e+10 
            995     2.00255e+10 
           1005     2.10001e+10 
           1015     2.06681e+10 
           1025     1.54027e+10 
           1035     1.89067e+10 
           1045     2.19992e+10 
           1055     2.11306e+10 
           1065     1.91974e+10 
           1075     2.02897e+10 
           1085     1.89644e+10 
           1095      2.0282e+10 
           1105     1.94282e+10 
           1115     1.93003e+10 
           1125     1.77752e+10 
           1135     1.90856e+10 
           1145     1.80243e+10 
           1155     1.84405e+10 
           1165     1.83162e+10 
           1175     1.48334e+10 
           1185     1.75317e+10 
           1195     1.68412e+10 
           1205     1.49589e+10 
           1215     1.14221e+10 
           1225     1.62253e+10 
           1235     1.65403e+10 
           1245     1.61619e+10 
           1255     1.60429e+10 
           1265     1.58051e+10 
           1275     1.58353e+10 
           1285     1.55761e+10 
           1295     1.41216e+10 
           1305     1.44478e+10 
           1315     1.48984e+10 
           1325     1.44271e+10 
           1335     1.39349e+10 
           1345     1.40306e+10 
           1355     1.40348e+10 
           1365     1.36102e+10 
           1375     1.33818e+10 
           1385     1.32457e+10 
           1395     1.19141e+10 
           1405     1.21144e+10 
           1415     1.25295e+10 
           1425     1.22195e+10 
           1435      1.2241e+10 
           1442      1.2256e+10 
           1447        1.21e+10 
           1455     1.19004e+10 
           1465     1.16328e+10 
           1475     1.14933e+10 
           1485     1.13419e+10 
           1495     1.11281e+10 
           1505     1.07793e+10 
           1512     1.04639e+10 
           1517     1.05188e+10 
           1525     1.04037e+10 
           1535      9.73423e+9 
           1545      9.65614e+9 
           1555      9.33977e+9 
           1565      9.58118e+9 
           1575      9.67358e+9 
           1585       9.5681e+9 
           1595      9.47397e+9 
           1605      9.09494e+9 
           1615      8.93427e+9 
           1625      8.91796e+9 
           1635      8.94957e+9 
           1645      8.70048e+9 
           1655      8.73622e+9 
           1665      8.63472e+9 
           1672      8.47471e+9 
           1677      8.69082e+9 
           1685      8.51176e+9 
           1695      8.30096e+9 
           1705       8.1081e+9 
           1715       7.8696e+9 
           1725       7.7971e+9 
           1735      7.79208e+9 
           1745      7.66295e+9 
           1755      7.63091e+9 
           1765      7.42593e+9 
           1775      7.28366e+9 
           1785      7.27689e+9 
           1795      7.22901e+9 
           1805      7.20013e+9 
           1815      6.93471e+9 
           1825      6.91616e+9 
           1835      6.82129e+9 
           1845      6.43302e+9 
           1855       6.3575e+9 
           1865      6.40767e+9 
           1875      6.43712e+9 
           1885      6.02814e+9 
           1895      5.76211e+9 
           1905      5.98652e+9 
           1915       5.7714e+9 
           1925      5.61136e+9 
           1935        5.749e+9 
           1945      5.78295e+9 
           1955      5.41454e+9 
           1967      5.57973e+9 
           1976      5.69189e+9 
           1984      5.43236e+9 
           1995      5.28071e+9 
           2005      5.34147e+9 
           2015      5.35418e+9 
           2025      5.36666e+9 
           2035      5.13738e+9 
           2045      5.08852e+9 
           2055      4.85107e+9 
           2065      4.81754e+9 
           2074       4.9741e+9 
           2078      4.79418e+9 
           2085      4.85615e+9 
           2095      4.71789e+9 
           2105      4.77426e+9 
           2115      4.74514e+9 
           2125      4.75139e+9 
           2135      4.67235e+9 
           2145      4.54668e+9 
           2155       4.5608e+9 
           2165      4.51306e+9 
           2175      4.44721e+9 
           2185      4.39492e+9 
           2195      4.36364e+9 
           2205      4.30742e+9 
           2215      4.25525e+9 
           2225      4.18984e+9 
           2235       4.1277e+9 
           2245       4.1014e+9 
           2255      4.03428e+9 
           2265      4.00182e+9 
           2275      3.95471e+9 
           2285      3.91166e+9 
           2295      3.77729e+9 
           2305      3.80947e+9 
           2315      3.75371e+9 
           2325      3.70999e+9 
           2335      3.65313e+9 
           2345      3.62882e+9 
           2355      3.58863e+9 
           2365      3.54622e+9 
           2375      3.49865e+9 
           2385      3.45447e+9 
           2395      3.41439e+9 
           2405      3.37642e+9 
           2415      3.33081e+9 
           2425      3.30077e+9 
           2435      3.25427e+9 
           2445      3.22128e+9 
           2455       3.1879e+9 
           2465      3.14963e+9 
           2475      3.11113e+9 
           2485      3.07308e+9 
           2495      2.89478e+9 
           2505      2.99905e+9 
           2513      2.93596e+9 
           2518      2.95171e+9 
           2525      2.93371e+9 
           2535      2.90076e+9 
           2545      2.84457e+9 
           2555      2.82771e+9 
           2565      2.80015e+9 
           2575      2.77174e+9 
           2585      2.73951e+9 
           2595      2.70904e+9 
           2605       2.6915e+9 
           2615      2.66038e+9 
           2625      2.62965e+9 
           2635      2.59611e+9 
           2645      2.56822e+9 
           2655      2.53951e+9 
           2665      2.50574e+9 
           2675      2.47819e+9 
           2685      2.46296e+9 
           2695       2.4167e+9 
           2705      2.40474e+9 
           2715         2.38e+9 
           2725      2.34101e+9 
           2735      2.32628e+9 
           2745      2.30097e+9 
           2755      2.27784e+9 
           2765      2.23878e+9 
           2775      2.23108e+9 
           2785      2.20567e+9 
           2795      2.16127e+9 
           2805      2.15178e+9 
           2815      2.13661e+9 
           2825      2.09913e+9 
           2835      2.07451e+9 
           2845      2.06903e+9 
           2855      2.04541e+9 
           2865      2.02509e+9 
           2875      2.00392e+9 
           2885       1.9834e+9 
           2895      1.96168e+9 
           2910      1.93007e+9 
           2930      1.89087e+9 
           2950      1.84172e+9 
           2970      1.81388e+9 
           2990      1.77647e+9 
           3010      1.73768e+9 
           3030      1.70587e+9 
           3050      1.67211e+9 
           3070        1.639e+9 
           3090      1.60081e+9 
           3110      1.57417e+9 
           3130      1.54366e+9 
           3150       1.5133e+9 
           3170       1.4832e+9 
           3190      1.44519e+9 
           3210      1.42607e+9 
           3230      1.39857e+9 
           3250      1.37206e+9 
           3270      1.34687e+9 
           3290      1.31976e+9 
           3310      1.29671e+9 
           3330      1.27214e+9 
           3350      1.24656e+9 
           3370       1.2252e+9 
           3390      1.20279e+9 
           3410      1.18072e+9 
           3430      1.15393e+9 
           3450      1.12932e+9 
           3470      1.11174e+9 
           3490      1.09223e+9 
           3510      1.07737e+9 
           3530      1.05882e+9 
           3550      1.04005e+9 
           3570      1.02523e+9 
           3590      1.00212e+9 
           3610      9.85178e+8 
           3630       9.6729e+8 
           3640      9.64115e+8 
           3650      9.44786e+8 
           3670      9.31244e+8 
           3690      9.01698e+8 
           3710      8.91948e+8 
           3730      8.84656e+8 
           3750      9.45889e+8 
           3770      9.38981e+8 
           3790      9.47639e+8 
           3810      9.70261e+8 
           3830      8.85137e+8 
           3850      9.63904e+8 
           3870      9.46018e+8 
           3890      8.48656e+8 
           3910      9.24248e+8 
           3930      9.02888e+8 
           3950      8.93189e+8 
           3970      7.87788e+8 
           3990      8.62994e+8 
           4010      8.46699e+8 
           4030      8.18831e+8 
           4050      8.23465e+8 
           4070      8.06863e+8 
           4090       7.8165e+8 
           4110      7.14983e+8 
           4130      7.64308e+8 
           4150      7.53131e+8 
           4170      7.44711e+8 
           4190      7.33884e+8 
           4210      7.22571e+8 
           4230       7.1108e+8 
           4250      6.99085e+8 
           4270      6.85981e+8 
           4290      6.77164e+8 
           4310      6.65864e+8 
           4330      6.39252e+8 
           4350      5.94346e+8 
           4370      6.35158e+8 
           4390      6.19122e+8 
           4410      6.15611e+8 
           4430      6.05669e+8 
           4450      5.97973e+8 
           4470      5.76909e+8 
           4490      5.79817e+8 
           4510      5.71389e+8 
           4530      5.62738e+8 
           4550      5.53798e+8 
           4570      5.45336e+8 
           4590      5.37357e+8 
           4610      5.29532e+8 
           4630      5.21698e+8 
           4650      5.11314e+8 
           4670      5.06114e+8 
           4690      4.98347e+8 
           4710      4.86703e+8 
           4730      4.84515e+8 
           4750      4.77138e+8 
           4770      4.71075e+8 
           4790       4.6426e+8 
           4810       4.5746e+8 
           4830      4.50676e+8 
           4850      4.36044e+8 
           4870       4.0105e+8 
           4890      4.31665e+8 
           4910      4.25936e+8 
           4930      4.14582e+8 
           4950      4.13853e+8 
           4970      4.08363e+8 
           4990      4.02645e+8 
           5010      3.93103e+8 
           5030      3.91561e+8 
           5050      3.84404e+8 
           5070      3.80864e+8 
           5090      3.75637e+8 
           5110      3.70524e+8 
           5130      3.65365e+8 
           5150      3.60402e+8 
           5170      3.55631e+8 
           5190      3.50868e+8 
           5210      3.46139e+8 
           5230      3.41527e+8 
           5250      3.36975e+8 
           5270      3.32483e+8 
           5290      3.28089e+8 
           5310      3.23738e+8 
           5330      3.19496e+8 
           5350      3.15296e+8 
           5370      3.11201e+8 
           5390      3.07119e+8 
           5410      3.03064e+8 
           5430      2.99212e+8 
           5450      2.95346e+8 
           5470      2.91541e+8 
           5490      2.87808e+8 
           5510      2.84134e+8 
           5530      2.80506e+8 
           5550      2.76947e+8 
           5570      2.73432e+8 
           5590      2.69984e+8 
           5610      2.66578e+8 
           5630      2.63237e+8 
           5650      2.59914e+8 
           5670      2.56583e+8 
           5690      2.53235e+8 
           5710      2.50332e+8 
           5730      2.47245e+8 
           5750      2.44115e+8 
           5770      2.41215e+8 
           5790      2.38259e+8 
           5810      2.35349e+8 
           5830      2.32451e+8 
           5850      2.29654e+8 
           5870      2.22166e+8 
           5890      2.24004e+8 
           5910      2.21423e+8 
           5930      2.18732e+8 
           5950      2.16104e+8 
           5970      2.13601e+8 
           5990      2.11012e+8 
           6010      2.08536e+8 
           6030      2.06056e+8 
           6050      2.03646e+8 
           6070      2.01264e+8 
           6090      1.98898e+8 
           6110      1.96579e+8 
           6130      1.94285e+8 
           6150      1.91998e+8 
           6170      1.89785e+8 
           6190      1.87607e+8 
           6210      1.85443e+8 
           6230      1.83313e+8 
           6250      1.81216e+8 
           6270      1.79142e+8 
           6290      1.77109e+8 
           6310      1.75089e+8 
           6330       1.7311e+8 
           6350      1.71134e+8 
           6370      1.69226e+8 
           6390      1.67319e+8 
           6410      1.65451e+8 
           6430      1.63604e+8 
           6450      1.61776e+8 
           6470      1.59958e+8 
           6490      1.58187e+8 
           6510      1.56461e+8 
           6530      1.54708e+8 
           6550      1.51377e+8 
           6570      1.38517e+8 
           6590      1.49241e+8 
           6610      1.48055e+8 
           6630       1.4646e+8 
           6650      1.44933e+8 
           6670      1.42431e+8 
           6690      1.40915e+8 
           6710      1.40311e+8 
           6730       1.3878e+8 
           6750      1.37322e+8 
           6770      1.35854e+8 
           6790       1.3436e+8 
           6810      1.32979e+8 
           6830      1.31564e+8 
           6850      1.30186e+8 
           6870      1.28815e+8 
           6890      1.27449e+8 
           6910      1.26113e+8 
           6930      1.24798e+8 
           6950      1.23503e+8 
           6970      1.22222e+8 
           6990      1.20945e+8 
           7010      1.19704e+8 
           7030      1.18467e+8 
           7050       1.1725e+8 
           7070      1.14462e+8 
           7090      1.14859e+8 
           7110      1.13685e+8 
           7130      1.12529e+8 
           7150      1.11385e+8 
           7170      1.10237e+8 
           7190      1.09143e+8 
           7210      1.08046e+8 
           7230      1.06692e+8 
           7250      1.05875e+8 
           7270      1.04823e+8 
           7290       1.0305e+8 
           7310      1.02734e+8 
           7330      1.01725e+8 
           7350      1.00719e+8 
           7370      9.97225e+7 
           7390      9.87419e+7 
           7410      9.77705e+7 
           7430      9.68081e+7 
           7450      9.58682e+7 
           7470      9.49167e+7 
           7490      9.40076e+7 
           7510      9.30667e+7 
           7530      9.21943e+7 
           7550      9.13033e+7 
           7570      9.04205e+7 
           7590      8.95522e+7 
           7610      8.86853e+7 
           7630      8.78392e+7 
           7650      8.70007e+7 
           7670      8.61761e+7 
           7690      8.53526e+7 
           7710      8.45365e+7 
           7730      8.37402e+7 
           7750      8.29448e+7 
           7770      8.21564e+7 
           7790      8.13998e+7 
           7810       8.0582e+7 
           7830      7.98821e+7 
           7850      7.92004e+7 
           7870      7.84578e+7 
           7890      7.76853e+7 
           7910        7.701e+7 
           7930      7.62266e+7 
           7950      7.54502e+7 
           7970      7.47102e+7 
           7990      7.41006e+7 
           8010       7.3367e+7 
           8030      7.27391e+7 
           8050      7.21107e+7 
           8070       7.1476e+7 
           8090      7.07029e+7 
           8110      7.00911e+7 
           8130      6.95757e+7 
           8150      6.88206e+7 
           8170      6.83429e+7 
           8190      6.76726e+7 
           8210      6.68011e+7 
           8230      6.63823e+7 
           8250      6.58062e+7 
           8270      6.49155e+7 
           8290      6.45533e+7 
           8310      6.39974e+7 
           8330       6.3419e+7 
           8350      6.26131e+7 
           8370       6.2126e+7 
           8390      6.16428e+7 
           8410      6.10624e+7 
           8430      6.04867e+7 
           8450      5.97259e+7 
           8470      5.90608e+7 
           8490       5.9201e+7 
           8510      5.77682e+7 
           8530        5.844e+7 
           8550      5.60385e+7 
           8570      5.81778e+7 
           8590      5.56506e+7 
