# Kurucz ODFNEW /NOVER (2003)
# teff = 22000 K (value for the effective temperature for the model. Temperatures are given in K)
# logg = 3 log(cm/s2) (value for Log(G) for the model.)
# meta = 0.5  (value for the Metallicity for the model.)
# lh = 1.25  (l/Hp where l is the  mixing length of the convective element and Hp is the pressure scale height)
# vtur = 2 km/s (Microturbulence velocity)
# alpha = 0.4  (Alpha)
#
# column 1: WAVELENGTH (ANGSTROM), Wavelength in Angstrom
# column 2: FLUX (ERG/CM2/S/A), Flux in erg/cm2/s/A
          147.2     2.27434e-18 
            151     1.21444e-17 
          155.2     7.05692e-17 
          158.8     2.97156e-16 
            162     1.01396e-15 
            166     4.41272e-15 
          170.3     1.97886e-14 
          173.4     5.64902e-14 
          176.8     1.70285e-13 
          180.2     4.93732e-13 
          181.7      7.7925e-13 
          186.1     2.86246e-12 
            191     1.14286e-11 
          193.9     2.51025e-11 
          198.4     8.15074e-11 
          201.8     1.91976e-10 
            205     4.19409e-10 
          210.5      1.52561e-9 
          216.2       5.4419e-9 
          219.8       1.1763e-8 
            223      2.28785e-8 
          226.8      4.92724e-8 
            230      6.57966e-7 
            234      1.64841e-6 
            240      4.68387e-6 
          246.5      1.36953e-5 
          252.4      3.49854e-5 
          256.8       6.6387e-5 
            260     0.000113437 
            264     0.000197754 
          268.5     0.000370044 
          273.5     0.000717628 
          278.5      0.00137034 
            284      0.00293444 
            290      0.00593494 
            296       0.0117547 
            301        0.020255 
            308       0.0455066 
            318        0.126918 
            328        0.314073 
            338        0.785749 
            348         1.80199 
            357         15.8742 
            366         39.0127 
            375         64.9033 
            385         121.275 
            395         278.373 
            405         464.363 
            414         760.642 
            422          1203.1 
            430         1845.04 
            441         3033.89 
            451         4427.01 
            460          6200.9 
            470         9445.69 
            480         13648.6 
            490         19788.9 
            500         27466.6 
            506          128251 
            512      2.99953e+6 
            520      3.36061e+6 
            530      4.07066e+6 
            540      4.06211e+6 
            550      7.79948e+6 
            560      9.81827e+6 
            570      1.23049e+7 
            580      1.09589e+7 
            590      1.69177e+7 
            600      1.93471e+7 
            610      2.47441e+7 
            620      2.70375e+7 
            630      2.90088e+7 
            640      2.46741e+7 
            650      1.66225e+7 
            658      2.98885e+7 
            665       3.8009e+7 
            675       3.7546e+7 
            685      3.58709e+7 
            695      5.63856e+7 
            705      5.50967e+7 
            716      6.47638e+7 
            726      6.21836e+7 
            735      7.20648e+7 
            745      8.58294e+7 
            755       9.1984e+7 
            765      1.00262e+8 
            775      1.08912e+8 
            785      1.18095e+8 
            795      1.20286e+8 
            805       1.2574e+8 
            815      1.29559e+8 
            825       1.4504e+8 
            835      9.99281e+7 
            845      1.46096e+8 
            855      1.47744e+8 
            865      1.60304e+8 
            875      1.72696e+8 
            885      1.92216e+8 
            895      2.03127e+8 
            905      1.90309e+8 
            915        3.982e+8 
            925       4.5355e+9 
            935      7.58996e+9 
            945      9.87991e+9 
            955     1.12636e+10 
            965      8.90541e+9 
            975      1.33164e+9 
            985      4.61289e+9 
            995      7.46286e+9 
           1005     1.12315e+10 
           1015     1.18011e+10 
           1025      9.60124e+9 
           1035      8.65276e+9 
           1045      1.5697e+10 
           1055     1.40507e+10 
           1065      9.37385e+9 
           1075     1.25039e+10 
           1085     1.10191e+10 
           1095     1.33537e+10 
           1105     1.06056e+10 
           1115      8.44806e+9 
           1125      5.92289e+9 
           1135     1.16295e+10 
           1145     1.07255e+10 
           1155     1.12175e+10 
           1165     1.09361e+10 
           1175      4.87316e+9 
           1185     1.01194e+10 
           1195       8.0204e+9 
           1205      2.18136e+9 
           1215      5.83586e+9 
           1225      9.45448e+9 
           1235     1.17144e+10 
           1245     1.10642e+10 
           1255     1.10718e+10 
           1265     1.13278e+10 
           1275     1.18528e+10 
           1285     1.17001e+10 
           1295      4.95267e+9 
           1305      6.11673e+9 
           1315     1.14385e+10 
           1325     1.06427e+10 
           1335     1.01015e+10 
           1345     1.07653e+10 
           1355      1.0546e+10 
           1365      9.06084e+9 
           1375      8.53219e+9 
           1385      7.18137e+9 
           1395      3.42808e+9 
           1405      4.49665e+9 
           1415      6.65882e+9 
           1425      7.28144e+9 
           1435      7.84496e+9 
           1442      8.17354e+9 
           1447      8.00614e+9 
           1455      7.62472e+9 
           1465      6.75795e+9 
           1475      7.26559e+9 
           1485      7.19317e+9 
           1495      6.99445e+9 
           1505      6.09779e+9 
           1512       5.3393e+9 
           1517      5.65187e+9 
           1525      5.94797e+9 
           1535      4.76159e+9 
           1545      4.48441e+9 
           1555      4.48051e+9 
           1565       5.0207e+9 
           1575      5.48687e+9 
           1585      5.66858e+9 
           1595      5.52205e+9 
           1605      5.79757e+9 
           1615      5.73899e+9 
           1625      5.53019e+9 
           1635      6.15301e+9 
           1645      6.21486e+9 
           1655      6.02638e+9 
           1665      6.28742e+9 
           1672      5.85998e+9 
           1677      6.71229e+9 
           1685      6.52981e+9 
           1695       6.0027e+9 
           1705      5.95362e+9 
           1715      5.42328e+9 
           1725      5.43655e+9 
           1735       5.8241e+9 
           1745      5.64273e+9 
           1755      5.70019e+9 
           1765      5.71185e+9 
           1775      5.14474e+9 
           1785      5.36157e+9 
           1795      5.71018e+9 
           1805      5.86366e+9 
           1815      4.87473e+9 
           1825       5.2713e+9 
           1835      5.08277e+9 
           1845      4.52858e+9 
           1855        4.554e+9 
           1865      4.63906e+9 
           1875      5.09839e+9 
           1885      4.37521e+9 
           1895      4.02188e+9 
           1905      4.63927e+9 
           1915      4.09672e+9 
           1925      3.88611e+9 
           1935      4.32207e+9 
           1945      4.36856e+9 
           1955      3.83104e+9 
           1967      4.42464e+9 
           1976      4.60769e+9 
           1984      4.27784e+9 
           1995      4.17268e+9 
           2005      4.55024e+9 
           2015      4.42846e+9 
           2025      4.58281e+9 
           2035       4.0853e+9 
           2045      4.30227e+9 
           2055      4.04864e+9 
           2065      3.95412e+9 
           2074      4.34106e+9 
           2078      3.71688e+9 
           2085      4.15984e+9 
           2095      3.88315e+9 
           2105      4.04708e+9 
           2115      4.14904e+9 
           2125      4.14987e+9 
           2135      4.10134e+9 
           2145      3.83925e+9 
           2155      4.08916e+9 
           2165      4.13193e+9 
           2175      4.10039e+9 
           2185      3.85778e+9 
           2195      3.99559e+9 
           2205      4.04134e+9 
           2215      3.92922e+9 
           2225      3.80928e+9 
           2235      3.77263e+9 
           2245      3.85152e+9 
           2255      3.67533e+9 
           2265      3.79893e+9 
           2275       3.7327e+9 
           2285       3.7509e+9 
           2295      3.15573e+9 
           2305      3.59866e+9 
           2315      3.45439e+9 
           2325      3.43185e+9 
           2335      3.26543e+9 
           2345      3.34348e+9 
           2355      3.34843e+9 
           2365       3.3321e+9 
           2375       3.2681e+9 
           2385      3.24227e+9 
           2395      3.21696e+9 
           2405      3.13692e+9 
           2415      3.13664e+9 
           2425      3.14062e+9 
           2435      3.02579e+9 
           2445      3.07596e+9 
           2455      3.08964e+9 
           2465       2.9955e+9 
           2475      2.90928e+9 
           2485      2.72584e+9 
           2495      1.93193e+9 
           2505      2.54758e+9 
           2513      2.60112e+9 
           2518      2.75902e+9 
           2525      2.73848e+9 
           2535      2.73169e+9 
           2545      2.54177e+9 
           2555      2.69007e+9 
           2565      2.63009e+9 
           2575      2.70294e+9 
           2585       2.6413e+9 
           2595       2.6282e+9 
           2605      2.62066e+9 
           2615      2.56171e+9 
           2625      2.55868e+9 
           2635      2.54418e+9 
           2645      2.52789e+9 
           2655      2.52983e+9 
           2665      2.36215e+9 
           2675      2.41812e+9 
           2685      2.40918e+9 
           2695      2.30389e+9 
           2705       2.2164e+9 
           2715      2.25208e+9 
           2725      2.28007e+9 
           2735      2.26378e+9 
           2745      2.19292e+9 
           2755      2.19083e+9 
           2765      2.18428e+9 
           2775      2.22027e+9 
           2785      2.17298e+9 
           2795      2.07104e+9 
           2805       2.1196e+9 
           2815      2.12819e+9 
           2825      2.12113e+9 
           2835      2.00523e+9 
           2845      2.03184e+9 
           2855      1.98532e+9 
           2865      2.01458e+9 
           2875      1.98947e+9 
           2885      1.97045e+9 
           2895      1.91879e+9 
           2910      1.88015e+9 
           2930      1.88143e+9 
           2950      1.82363e+9 
           2970      1.80047e+9 
           2990      1.76012e+9 
           3010      1.66308e+9 
           3030      1.68424e+9 
           3050      1.67146e+9 
           3070      1.66011e+9 
           3090       1.5668e+9 
           3110      1.58628e+9 
           3130      1.53958e+9 
           3150      1.52613e+9 
           3170      1.47728e+9 
           3190      1.45989e+9 
           3210      1.43934e+9 
           3230      1.39914e+9 
           3250      1.38872e+9 
           3270      1.35241e+9 
           3290      1.32738e+9 
           3310      1.30362e+9 
           3330       1.2734e+9 
           3350       1.2571e+9 
           3370      1.22719e+9 
           3390      1.21777e+9 
           3410      1.19698e+9 
           3430      1.17423e+9 
           3450       1.1485e+9 
           3470      1.12801e+9 
           3490      1.10401e+9 
           3510      1.08602e+9 
           3530      1.07886e+9 
           3550      1.05717e+9 
           3570      1.03954e+9 
           3590      1.00665e+9 
           3610      9.89774e+8 
           3630      9.80242e+8 
           3640      9.79697e+8 
           3650      9.62487e+8 
           3670        9.532e+8 
           3690      9.23943e+8 
           3710      9.04018e+8 
           3730      8.95839e+8 
           3750      9.56792e+8 
           3770      9.40863e+8 
           3790      9.52413e+8 
           3810      9.78151e+8 
           3830      8.84803e+8 
           3850      9.52594e+8 
           3870      9.20965e+8 
           3890      8.49652e+8 
           3910      9.28116e+8 
           3930      8.87497e+8 
           3950      8.80295e+8 
           3970      7.86306e+8 
           3990      8.58119e+8 
           4010      8.50892e+8 
           4030       8.1723e+8 
           4050      8.15564e+8 
           4070      7.72021e+8 
           4090      7.43478e+8 
           4110      6.94934e+8 
           4130      7.42464e+8 
           4150      7.37491e+8 
           4170      7.38623e+8 
           4190       7.3309e+8 
           4210      7.28331e+8 
           4230      7.09101e+8 
           4250      6.86612e+8 
           4270      6.66186e+8 
           4290      6.54667e+8 
           4310      6.33375e+8 
           4330      6.09373e+8 
           4350      5.72864e+8 
           4370      6.06238e+8 
           4390      6.16639e+8 
           4410      6.03175e+8 
           4430      5.99622e+8 
           4450      5.89869e+8 
           4470        5.774e+8 
           4490      5.76416e+8 
           4510      5.72055e+8 
           4530      5.63876e+8 
           4550      5.58111e+8 
           4570      5.47753e+8 
           4590      5.38663e+8 
           4610      5.22902e+8 
           4630      5.18078e+8 
           4650      4.97515e+8 
           4670      5.02176e+8 
           4690      5.00677e+8 
           4710      4.78433e+8 
           4730      4.84061e+8 
           4750      4.75969e+8 
           4770      4.80149e+8 
           4790      4.70466e+8 
           4810      4.59056e+8 
           4830       4.5271e+8 
           4850      4.41073e+8 
           4870      4.04418e+8 
           4890      4.35982e+8 
           4910      4.30202e+8 
           4930      4.18473e+8 
           4950      4.14883e+8 
           4970      4.15699e+8 
           4990      4.08077e+8 
           5010      3.87474e+8 
           5030      3.94569e+8 
           5050      3.85201e+8 
           5070      3.85744e+8 
           5090       3.7872e+8 
           5110      3.71693e+8 
           5130      3.62473e+8 
           5150      3.60956e+8 
           5170      3.58746e+8 
           5190      3.54574e+8 
           5210      3.46847e+8 
           5230      3.44654e+8 
           5250      3.40734e+8 
           5270      3.34178e+8 
           5290      3.31939e+8 
           5310      3.26638e+8 
           5330      3.22653e+8 
           5350      3.17652e+8 
           5370      3.14963e+8 
           5390      3.10167e+8 
           5410      3.06861e+8 
           5430      3.01678e+8 
           5450      2.97604e+8 
           5470      2.93644e+8 
           5490      2.90521e+8 
           5510      2.88043e+8 
           5530      2.82736e+8 
           5550      2.80971e+8 
           5570      2.76735e+8 
           5590      2.73998e+8 
           5610      2.69774e+8 
           5630      2.67385e+8 
           5650      2.60669e+8 
           5670       2.5622e+8 
           5690      2.52525e+8 
           5710      2.51892e+8 
           5730      2.49758e+8 
           5750       2.4522e+8 
           5770      2.44666e+8 
           5790      2.41113e+8 
           5810       2.3824e+8 
           5830      2.34391e+8 
           5850      2.32219e+8 
           5870       2.2468e+8 
           5890      2.23972e+8 
           5910      2.22394e+8 
           5930      2.19343e+8 
           5950      2.16061e+8 
           5970      2.16646e+8 
           5990      2.11705e+8 
           6010      2.10987e+8 
           6030      2.07465e+8 
           6050      2.05324e+8 
           6070      2.03738e+8 
           6090      2.01366e+8 
           6110      1.99071e+8 
           6130      1.97072e+8 
           6150      1.92645e+8 
           6170      1.91082e+8 
           6190      1.89878e+8 
           6210       1.8812e+8 
           6230      1.86196e+8 
           6250      1.82942e+8 
           6270      1.81269e+8 
           6290      1.79566e+8 
           6310      1.76906e+8 
           6330      1.75705e+8 
           6350      1.72442e+8 
           6370       1.7137e+8 
           6390      1.69515e+8 
           6410      1.67725e+8 
           6430      1.66301e+8 
           6450       1.6423e+8 
           6470      1.61344e+8 
           6490      1.59725e+8 
           6510      1.58274e+8 
           6530      1.56016e+8 
           6550      1.53423e+8 
           6570      1.38316e+8 
           6590      1.49996e+8 
           6610      1.49805e+8 
           6630      1.48491e+8 
           6650      1.46543e+8 
           6670      1.44251e+8 
           6690      1.42877e+8 
           6710      1.42319e+8 
           6730      1.40069e+8 
           6750      1.39496e+8 
           6770      1.38016e+8 
           6790      1.34638e+8 
           6810      1.34604e+8 
           6830      1.32953e+8 
           6850      1.32097e+8 
           6870      1.30635e+8 
           6890      1.28973e+8 
           6910      1.27186e+8 
           6930      1.26586e+8 
           6950       1.2543e+8 
           6970      1.24168e+8 
           6990      1.22726e+8 
           7010      1.21406e+8 
           7030      1.20121e+8 
           7050      1.18978e+8 
           7070      1.15857e+8 
           7090      1.16583e+8 
           7110      1.13126e+8 
           7130       1.1224e+8 
           7150      1.12895e+8 
           7170        1.119e+8 
           7190      1.10856e+8 
           7210       1.0972e+8 
           7230      1.06361e+8 
           7250      1.07007e+8 
           7270      1.06377e+8 
           7290      1.04511e+8 
           7310      1.04236e+8 
           7330      1.03072e+8 
           7350      1.02212e+8 
           7370      1.01255e+8 
           7390      1.00253e+8 
           7410      9.92663e+7 
           7430      9.80911e+7 
           7450      9.72054e+7 
           7470      9.51463e+7 
           7490       9.5129e+7 
           7510      9.43492e+7 
           7530      9.32108e+7 
           7550      9.26185e+7 
           7570      9.17616e+7 
           7590      9.07686e+7 
           7610      8.96676e+7 
           7630      8.90493e+7 
           7650      8.81852e+7 
           7670      8.74185e+7 
           7690      8.65503e+7 
           7710      8.56836e+7 
           7730      8.47238e+7 
           7750      8.41365e+7 
           7770      8.23873e+7 
           7790      8.25732e+7 
           7810      8.17555e+7 
           7830      8.10434e+7 
           7850      8.00869e+7 
           7870      7.91694e+7 
           7890      7.80969e+7 
           7910      7.77807e+7 
           7930      7.69815e+7 
           7950      7.60761e+7 
           7970       7.5588e+7 
           7990      7.46671e+7 
           8010       7.4283e+7 
           8030      7.36271e+7 
           8050      7.30408e+7 
           8070      7.24305e+7 
           8090      7.16929e+7 
           8110      7.04348e+7 
           8130      7.04534e+7 
           8150      6.97734e+7 
           8170      6.92968e+7 
           8190      6.79983e+7 
           8210      6.74048e+7 
           8230      6.64602e+7 
           8250      6.66365e+7 
           8270      6.49816e+7 
           8290      6.53043e+7 
           8310      6.47939e+7 
           8330      6.43474e+7 
           8350       6.3456e+7 
           8370      6.28251e+7 
           8390      6.25045e+7 
           8410      6.18028e+7 
           8430      6.13508e+7 
           8450       6.0148e+7 
           8470      5.98853e+7 
           8490      6.00007e+7 
           8510      5.84133e+7 
           8530      5.93253e+7 
           8550      5.66672e+7 
           8570      5.89934e+7 
