# Kurucz ODFNEW /NOVER (2003)
# teff = 28000 K (value for the effective temperature for the model. Temperatures are given in K)
# logg = 4 log(cm/s2) (value for Log(G) for the model.)
# meta = -0.5  (value for the Metallicity for the model.)
# lh = 1.25  (l/Hp where l is the  mixing length of the convective element and Hp is the pressure scale height)
# vtur = 2 km/s (Microturbulence velocity)
# alpha = 0  (Alpha)
#
# column 1: WAVELENGTH (ANGSTROM), Wavelength in Angstrom
# column 2: FLUX (ERG/CM2/S/A), Flux in erg/cm2/s/A
          147.2     4.29379e-11 
            151     1.58371e-10 
          155.2      6.2552e-10 
          158.8      1.92417e-9 
            162       5.0255e-9 
            166      1.58834e-8 
          170.3      5.16329e-8 
          173.4      1.16724e-7 
          176.8      2.76477e-7 
          180.2      6.34413e-7 
          181.7      9.06287e-7 
          186.1      2.49991e-6 
            191      7.33074e-6 
          193.9      1.35072e-5 
          198.4      3.36603e-5 
          201.8      6.53146e-5 
            205     0.000119442 
          210.5     0.000323096 
          216.2     0.000858276 
          219.8       0.0015492 
            223      0.00257633 
          226.8      0.00463589 
            230         1.32867 
            234         3.06284 
            240         6.04356 
          246.5         12.5322 
          252.4          23.607 
          256.8         33.5123 
            260         53.8913 
            264         78.2799 
          268.5         121.021 
          273.5         188.369 
          278.5         283.875 
            284         499.357 
            290         792.252 
            296         1226.43 
            301          1701.5 
            308         2766.22 
            318         6064.98 
            328         10733.5 
            338         19757.8 
            348         33907.6 
            357         85582.8 
            366          147080 
            375          206846 
            385          319810 
            395          509735 
            405          713587 
            414          989828 
            422      1.23678e+6 
            430      1.61694e+6 
            441      2.23406e+6 
            451      2.91436e+6 
            460      3.61578e+6 
            470       4.7341e+6 
            480      6.00331e+6 
            490      7.60127e+6 
            500      9.52236e+6 
            506      4.52497e+7 
            512      2.09186e+8 
            520       2.1524e+8 
            530      2.28961e+8 
            540      2.24294e+8 
            550      2.90611e+8 
            560      3.33158e+8 
            570      3.69633e+8 
            580      3.50647e+8 
            590      4.17443e+8 
            600      4.31031e+8 
            610      4.83937e+8 
            620      5.34134e+8 
            630      5.55887e+8 
            640      5.43912e+8 
            650      5.49829e+8 
            658      6.09761e+8 
            665      6.67758e+8 
            675      6.86427e+8 
            685      6.79538e+8 
            695      8.19871e+8 
            705      8.03902e+8 
            716      9.03361e+8 
            726      9.18387e+8 
            735      9.42268e+8 
            745      1.02255e+9 
            755      1.05658e+9 
            765        1.108e+9 
            775      1.15924e+9 
            785      1.22362e+9 
            795      1.25156e+9 
            805      1.27792e+9 
            815      1.29394e+9 
            825      1.37579e+9 
            835      1.26199e+9 
            845      1.40509e+9 
            855      1.42993e+9 
            865      1.49327e+9 
            875      1.55755e+9 
            885      1.63246e+9 
            895      1.68131e+9 
            905      1.68373e+9 
            915      2.19403e+9 
            925     1.29179e+10 
            935     2.57127e+10 
            945     4.28059e+10 
            955      4.8135e+10 
            965      5.6164e+10 
            975     1.85344e+10 
            985       4.941e+10 
            995     4.59446e+10 
           1005     4.93093e+10 
           1015      4.9487e+10 
           1025     3.10552e+10 
           1035     4.40375e+10 
           1045     5.44417e+10 
           1055     5.12821e+10 
           1065      4.4428e+10 
           1075     4.76411e+10 
           1085     4.34164e+10 
           1095     4.70352e+10 
           1105     4.43766e+10 
           1115     4.37054e+10 
           1125     3.72942e+10 
           1135     4.27022e+10 
           1145       3.954e+10 
           1155     3.97705e+10 
           1165     3.90546e+10 
           1175     2.70907e+10 
           1185     3.61779e+10 
           1195     3.47018e+10 
           1205     3.02364e+10 
           1215     2.09696e+10 
           1225     3.19685e+10 
           1235     3.41699e+10 
           1245     3.30301e+10 
           1255      3.2757e+10 
           1265     3.28886e+10 
           1275     3.31719e+10 
           1285     3.26941e+10 
           1295     2.84261e+10 
           1305     2.92332e+10 
           1315     3.12499e+10 
           1325     2.97414e+10 
           1335     2.87965e+10 
           1345     2.86427e+10 
           1355     2.84349e+10 
           1365     2.70452e+10 
           1375     2.64321e+10 
           1385     2.58593e+10 
           1395     2.08476e+10 
           1405      2.1697e+10 
           1415     2.37339e+10 
           1425     2.23816e+10 
           1435     2.30202e+10 
           1442     2.32466e+10 
           1447     2.28487e+10 
           1455     2.21426e+10 
           1465       2.122e+10 
           1475     2.11774e+10 
           1485      2.0917e+10 
           1495     2.03718e+10 
           1505     1.92438e+10 
           1512     1.80196e+10 
           1517     1.83168e+10 
           1525     1.82353e+10 
           1535     1.60255e+10 
           1545     1.54667e+10 
           1555     1.48998e+10 
           1565     1.58599e+10 
           1575     1.64975e+10 
           1585      1.6386e+10 
           1595     1.62315e+10 
           1605     1.56218e+10 
           1615     1.51069e+10 
           1625     1.51698e+10 
           1635     1.54865e+10 
           1645     1.51721e+10 
           1655     1.52341e+10 
           1665     1.50788e+10 
           1672     1.44542e+10 
           1677      1.5626e+10 
           1685     1.50268e+10 
           1695     1.44449e+10 
           1705     1.40582e+10 
           1715     1.34938e+10 
           1725     1.31796e+10 
           1735     1.34348e+10 
           1745     1.31922e+10 
           1755     1.31133e+10 
           1765     1.28562e+10 
           1775     1.23459e+10 
           1785     1.24196e+10 
           1795     1.23892e+10 
           1805     1.23806e+10 
           1815     1.16259e+10 
           1825     1.17228e+10 
           1835     1.15014e+10 
           1845     1.05989e+10 
           1855     1.06931e+10 
           1865     1.08003e+10 
           1875     1.08423e+10 
           1885      9.93334e+9 
           1895      9.35984e+9 
           1905      9.86102e+9 
           1915      9.46656e+9 
           1925      9.00603e+9 
           1935      9.43648e+9 
           1945      9.60031e+9 
           1955      8.73815e+9 
           1967      9.19339e+9 
           1976      9.53629e+9 
           1984      8.92683e+9 
           1995      8.72682e+9 
           2005       8.8529e+9 
           2015      8.84476e+9 
           2025      8.93971e+9 
           2035      8.35537e+9 
           2045      8.33808e+9 
           2055      7.73419e+9 
           2065      7.66388e+9 
           2074      7.96886e+9 
           2078      7.54011e+9 
           2085      7.74981e+9 
           2095      7.58476e+9 
           2105      7.79462e+9 
           2115      7.75756e+9 
           2125      7.78516e+9 
           2135      7.63587e+9 
           2145      7.35556e+9 
           2155       7.4716e+9 
           2165      7.36118e+9 
           2175      7.27016e+9 
           2185      7.12998e+9 
           2195      7.12975e+9 
           2205       7.0378e+9 
           2215       6.9261e+9 
           2225      6.80029e+9 
           2235      6.67117e+9 
           2245       6.6526e+9 
           2255      6.50187e+9 
           2265       6.4766e+9 
           2275        6.393e+9 
           2285      6.31234e+9 
           2295      5.90977e+9 
           2305      6.10436e+9 
           2315      6.00169e+9 
           2325       5.9271e+9 
           2335      5.81654e+9 
           2345      5.80664e+9 
           2355      5.73114e+9 
           2365      5.66136e+9 
           2375      5.55761e+9 
           2385      5.47468e+9 
           2395      5.40745e+9 
           2405      5.34557e+9 
           2415      5.26703e+9 
           2425      5.22208e+9 
           2435      5.11549e+9 
           2445      5.07341e+9 
           2455      5.02666e+9 
           2465      4.96036e+9 
           2475      4.88499e+9 
           2485      4.80769e+9 
           2495      4.23908e+9 
           2505      4.65672e+9 
           2513       4.4982e+9 
           2518       4.5819e+9 
           2525      4.57839e+9 
           2535      4.52827e+9 
           2545      4.40906e+9 
           2555      4.38506e+9 
           2565      4.34469e+9 
           2575      4.30005e+9 
           2585      4.24807e+9 
           2595      4.19777e+9 
           2605      4.16344e+9 
           2615      4.10615e+9 
           2625      4.06251e+9 
           2635      4.01199e+9 
           2645      3.95538e+9 
           2655      3.91115e+9 
           2665      3.82674e+9 
           2675       3.7906e+9 
           2685      3.77517e+9 
           2695      3.67163e+9 
           2705      3.64289e+9 
           2715      3.61319e+9 
           2725      3.56567e+9 
           2735      3.53138e+9 
           2745       3.4903e+9 
           2755       3.4584e+9 
           2765      3.39593e+9 
           2775      3.39146e+9 
           2785      3.34301e+9 
           2795      3.24742e+9 
           2805      3.24902e+9 
           2815      3.23605e+9 
           2825       3.1757e+9 
           2835      3.10876e+9 
           2845      3.12395e+9 
           2855      3.07659e+9 
           2865      3.04744e+9 
           2875       3.0137e+9 
           2885      2.98166e+9 
           2895      2.94352e+9 
           2910      2.88652e+9 
           2930      2.83105e+9 
           2950      2.74739e+9 
           2970      2.70432e+9 
           2990      2.64129e+9 
           3010      2.56772e+9 
           3030      2.52811e+9 
           3050      2.47882e+9 
           3070      2.43004e+9 
           3090      2.35181e+9 
           3110       2.3247e+9 
           3130      2.27097e+9 
           3150      2.22548e+9 
           3170      2.17623e+9 
           3190      2.12134e+9 
           3210      2.08954e+9 
           3230      2.04367e+9 
           3250      2.00643e+9 
           3270      1.96382e+9 
           3290      1.92265e+9 
           3310      1.88714e+9 
           3330      1.84656e+9 
           3350      1.80924e+9 
           3370      1.77446e+9 
           3390      1.74267e+9 
           3410      1.70894e+9 
           3430      1.66954e+9 
           3450      1.63166e+9 
           3470      1.60311e+9 
           3490      1.57152e+9 
           3510      1.54568e+9 
           3530      1.52056e+9 
           3550      1.49143e+9 
           3570      1.46966e+9 
           3590      1.43085e+9 
           3610      1.40741e+9 
           3630      1.38022e+9 
           3640      1.37688e+9 
           3650      1.34692e+9 
           3670      1.32932e+9 
           3690      1.30122e+9 
           3710      1.25592e+9 
           3730      1.20948e+9 
           3750      1.24679e+9 
           3770      1.23413e+9 
           3790      1.27632e+9 
           3810      1.31351e+9 
           3830      1.17185e+9 
           3850      1.32367e+9 
           3870      1.31027e+9 
           3890      1.11059e+9 
           3910      1.28929e+9 
           3930      1.25645e+9 
           3950      1.23914e+9 
           3970      1.02901e+9 
           3990      1.19519e+9 
           4010      1.18184e+9 
           4030      1.12734e+9 
           4050      1.14839e+9 
           4070      1.10843e+9 
           4090      1.04564e+9 
           4110      9.42353e+8 
           4130       1.0513e+9 
           4150      1.04146e+9 
           4170      1.03251e+9 
           4190      1.01596e+9 
           4210      1.00257e+9 
           4230      9.84391e+8 
           4250      9.62279e+8 
           4270      9.39236e+8 
           4290      9.27858e+8 
           4310       9.0578e+8 
           4330      8.44828e+8 
           4350      7.78564e+8 
           4370      8.61687e+8 
           4390      8.42124e+8 
           4410       8.4014e+8 
           4430       8.2998e+8 
           4450      8.16943e+8 
           4470      7.80217e+8 
           4490      7.90922e+8 
           4510      7.80774e+8 
           4530       7.6848e+8 
           4550      7.55024e+8 
           4570       7.4282e+8 
           4590      7.30621e+8 
           4610      7.18055e+8 
           4630      7.06856e+8 
           4650      6.85056e+8 
           4670      6.84608e+8 
           4690      6.75202e+8 
           4710      6.55317e+8 
           4730      6.55545e+8 
           4750      6.44527e+8 
           4770      6.38819e+8 
           4790      6.28684e+8 
           4810      6.17898e+8 
           4830      6.05573e+8 
           4850      5.72674e+8 
           4870      5.19183e+8 
           4890      5.79303e+8 
           4910      5.73124e+8 
           4930      5.54456e+8 
           4950      5.55427e+8 
           4970      5.49761e+8 
           4990      5.41444e+8 
           5010      5.24717e+8 
           5030      5.25526e+8 
           5050      5.15153e+8 
           5070      5.10921e+8 
           5090      5.03264e+8 
           5110      4.95898e+8 
           5130      4.87916e+8 
           5150      4.81222e+8 
           5170      4.75068e+8 
           5190      4.68756e+8 
           5210      4.62055e+8 
           5230       4.5565e+8 
           5250      4.49314e+8 
           5270      4.42858e+8 
           5290      4.37012e+8 
           5310      4.30907e+8 
           5330      4.25093e+8 
           5350      4.19157e+8 
           5370      4.13611e+8 
           5390      4.07798e+8 
           5410       4.0224e+8 
           5430      3.97008e+8 
           5450      3.91575e+8 
           5470       3.8635e+8 
           5490       3.8119e+8 
           5510      3.76306e+8 
           5530      3.71113e+8 
           5550      3.66425e+8 
           5570      3.61528e+8 
           5590      3.56824e+8 
           5610      3.52141e+8 
           5630      3.47611e+8 
           5650      3.42783e+8 
           5670       3.3772e+8 
           5690      3.32453e+8 
           5710      3.29458e+8 
           5730      3.25407e+8 
           5750      3.20652e+8 
           5770      3.17369e+8 
           5790      3.13214e+8 
           5810      3.09275e+8 
           5830      3.05062e+8 
           5850      3.01472e+8 
           5870      2.90226e+8 
           5890      2.92917e+8 
           5910      2.90042e+8 
           5930      2.86247e+8 
           5950      2.82676e+8 
           5970      2.79781e+8 
           5990       2.7591e+8 
           6010      2.72805e+8 
           6030      2.69289e+8 
           6050      2.66111e+8 
           6070      2.63001e+8 
           6090      2.59834e+8 
           6110      2.56702e+8 
           6130      2.53637e+8 
           6150      2.50237e+8 
           6170       2.4737e+8 
           6190      2.44545e+8 
           6210      2.41702e+8 
           6230      2.38862e+8 
           6250      2.35909e+8 
           6270      2.33189e+8 
           6290       2.3049e+8 
           6310      2.27725e+8 
           6330      2.25132e+8 
           6350       2.2238e+8 
           6370      2.19899e+8 
           6390      2.17326e+8 
           6410      2.14825e+8 
           6430       2.1238e+8 
           6450      2.09923e+8 
           6470      2.07251e+8 
           6490      2.04947e+8 
           6510      2.02765e+8 
           6530      1.99881e+8 
           6550      1.93306e+8 
           6570      1.73724e+8 
           6590      1.91895e+8 
           6610      1.91408e+8 
           6630      1.89424e+8 
           6650      1.87306e+8 
           6670      1.83754e+8 
           6690      1.81731e+8 
           6710      1.81219e+8 
           6730       1.7902e+8 
           6750      1.77266e+8 
           6770      1.75325e+8 
           6790      1.72961e+8 
           6810      1.71443e+8 
           6830      1.69552e+8 
           6850      1.67777e+8 
           6870      1.65955e+8 
           6890      1.64073e+8 
           6910      1.62241e+8 
           6930      1.60647e+8 
           6950      1.58936e+8 
           6970      1.57234e+8 
           6990      1.55549e+8 
           7010      1.53896e+8 
           7030      1.52244e+8 
           7050      1.50646e+8 
           7070      1.46909e+8 
           7090       1.4749e+8 
           7110      1.45789e+8 
           7130       1.4432e+8 
           7150      1.42903e+8 
           7170      1.41396e+8 
           7190      1.39947e+8 
           7210      1.38498e+8 
           7230      1.36046e+8 
           7250      1.35533e+8 
           7270      1.34254e+8 
           7290      1.31888e+8 
           7310      1.31498e+8 
           7330      1.30158e+8 
           7350      1.28851e+8 
           7370      1.27549e+8 
           7390      1.26252e+8 
           7410      1.24982e+8 
           7430      1.23716e+8 
           7450      1.22482e+8 
           7470      1.21071e+8 
           7490      1.20023e+8 
           7510       1.1881e+8 
           7530      1.17641e+8 
           7550      1.16503e+8 
           7570       1.1535e+8 
           7590      1.14206e+8 
           7610      1.13021e+8 
           7630      1.11964e+8 
           7650       1.1087e+8 
           7670      1.09787e+8 
           7690      1.08713e+8 
           7710      1.07649e+8 
           7730      1.06595e+8 
           7750      1.05581e+8 
           7770      1.04489e+8 
           7790      1.03556e+8 
           7810      1.02508e+8 
           7830      1.01579e+8 
           7850      1.00671e+8 
           7870      9.96674e+7 
           7890      9.86362e+7 
           7910       9.7819e+7 
           7930      9.68589e+7 
           7950      9.59489e+7 
           7970      9.49342e+7 
           7990      9.40583e+7 
           8010      9.31253e+7 
           8030      9.22647e+7 
           8050      9.14347e+7 
           8070      9.06061e+7 
           8090      8.96291e+7 
           8110      8.86893e+7 
           8130      8.81508e+7 
           8150      8.72139e+7 
           8170      8.65561e+7 
           8190      8.55441e+7 
           8210      8.45801e+7 
           8230      8.39137e+7 
           8250       8.3297e+7 
           8270      8.20353e+7 
           8290      8.17057e+7 
           8310      8.10074e+7 
           8330      8.02497e+7 
           8350      7.91795e+7 
           8370      7.86725e+7 
           8390      7.80784e+7 
           8410       7.7356e+7 
           8430       7.6613e+7 
           8450      7.54593e+7 
           8470      7.51454e+7 
           8490      7.44311e+7 
           8510      7.35875e+7 
           8530      7.31859e+7 
           8550      7.16534e+7 
           8570      7.26017e+7 
           8590      6.99564e+7 
