# Kurucz ODFNEW /NOVER (2003)
# teff = 9250 K (value for the effective temperature for the model. Temperatures are given in K)
# logg = 5 log(cm/s2) (value for Log(G) for the model.)
# meta = -1.5  (value for the Metallicity for the model.)
# lh = 1.25  (l/Hp where l is the  mixing length of the convective element and Hp is the pressure scale height)
# vtur = 2 km/s (Microturbulence velocity)
# alpha = 0  (Alpha)
#
# column 1: WAVELENGTH (ANGSTROM), Wavelength in Angstrom
# column 2: FLUX (ERG/CM2/S/A), Flux in erg/cm2/s/A
            264     3.24833e-23 
          268.5     1.65376e-22 
          273.5     7.38629e-22 
          278.5     3.04172e-21 
            284      1.3557e-20 
            290     6.47473e-20 
            296     2.89719e-19 
            301     9.63976e-19 
            308      4.8501e-18 
            318      4.2969e-17 
            328     3.32037e-16 
            338     2.26472e-15 
            348     1.37852e-14 
            357      6.4046e-14 
            366     2.75207e-13 
            375     1.09969e-12 
            385     4.73679e-12 
            395     1.88895e-11 
            405     7.01621e-11 
            414     2.15996e-10 
            422     5.62649e-10 
            430      1.41199e-9 
            441      4.72575e-9 
            451      1.34322e-8 
            460      3.30172e-8 
            470      8.59502e-8 
            480      2.14543e-7 
            490      5.14869e-7 
            500      1.19072e-6 
            506      1.94709e-6 
            512      3.13448e-6 
            520      5.78873e-6 
            530      1.21251e-5 
            540      2.46631e-5 
            550      4.88204e-5 
            560      9.41619e-5 
            570      0.00017721 
            580     0.000325775 
            590     0.000585971 
            600      0.00103208 
            610        0.001782 
            620      0.00301923 
            630       0.0050241 
            640      0.00821861 
            650        0.013227 
            658       0.0191374 
            665       0.0262333 
            675       0.0406607 
            685       0.0621562 
            695       0.0937641 
            705        0.139663 
            716        0.213484 
            726        0.310182 
            735         0.43006 
            745         0.61208 
            755        0.862276 
            765         1.20288 
            775         1.66222 
            785          2.2763 
            795         3.09025 
            805         4.16026 
            815         5.55584 
            825         7.36217 
            835         9.68374 
            845         12.6453 
            855         16.3988 
            865         21.1247 
            875         27.0384 
            885         34.3923 
            895         43.4843 
            905         54.6632 
            915         107.395 
            925         488.202 
            935         893.102 
            945          1761.8 
            955         2757.86 
            965         3822.86 
            975         2700.96 
            985         6550.47 
            995         8178.25 
           1005         9668.28 
           1015         9040.63 
           1025         4833.97 
           1035         11442.6 
           1045         16950.7 
           1055         20300.3 
           1065         23607.7 
           1075         28234.9 
           1085         33825.6 
           1095         38130.9 
           1105         84856.5 
           1115          951168 
           1125      1.12752e+6 
           1135      1.22822e+6 
           1145          652123 
           1155          297114 
           1165          156524 
           1175          119740 
           1185          112394 
           1195         72569.3 
           1205         52697.1 
           1215           18510 
           1225         57580.4 
           1235          108186 
           1245          149698 
           1255          220090 
           1265          309322 
           1275          655976 
           1285      2.63583e+6 
           1295      4.87854e+6 
           1305      7.59752e+6 
           1315      1.13629e+7 
           1325       1.5811e+7 
           1335      2.00396e+7 
           1345      2.52899e+7 
           1355      2.60239e+7 
           1365      2.82179e+7 
           1375      2.48519e+7 
           1385      1.90224e+7 
           1395      1.71526e+7 
           1405      3.07353e+7 
           1415      5.08151e+7 
           1425      5.61228e+7 
           1435      5.37517e+7 
           1442      6.19746e+7 
           1447      5.94527e+7 
           1455      6.44419e+7 
           1465      5.93734e+7 
           1475       6.1359e+7 
           1485      6.20455e+7 
           1495      6.34399e+7 
           1505       6.5818e+7 
           1512       6.4536e+7 
           1517      6.32469e+7 
           1525      6.29917e+7 
           1535      6.17915e+7 
           1545      6.00062e+7 
           1555      5.25624e+7 
           1565      4.16887e+7 
           1575      4.68348e+7 
           1585      4.61632e+7 
           1595      4.55803e+7 
           1605      4.43984e+7 
           1615      5.32157e+7 
           1625      5.89242e+7 
           1635      6.88639e+7 
           1645      8.19734e+7 
           1655      7.17058e+7 
           1665      8.86112e+7 
           1672      8.00763e+7 
           1677      8.65452e+7 
           1685      9.20041e+7 
           1695      8.57685e+7 
           1705      8.70915e+7 
           1715      9.12548e+7 
           1725      8.96124e+7 
           1735      9.25721e+7 
           1745      9.01063e+7 
           1755      9.27689e+7 
           1765      8.57043e+7 
           1775      9.09472e+7 
           1785      8.98435e+7 
           1795      9.30159e+7 
           1805      9.00108e+7 
           1815      8.92493e+7 
           1825      8.68883e+7 
           1835      8.74542e+7 
           1845      8.31499e+7 
           1855        8.556e+7 
           1865      8.65371e+7 
           1875       8.6866e+7 
           1885        8.655e+7 
           1895      8.62779e+7 
           1905      8.42056e+7 
           1915      8.50142e+7 
           1925      8.56806e+7 
           1935      8.27004e+7 
           1945      8.59919e+7 
           1955      8.53914e+7 
           1967      8.55475e+7 
           1976       8.3231e+7 
           1984      8.26014e+7 
           1995      8.24133e+7 
           2005      8.04556e+7 
           2015      7.92266e+7 
           2025      7.81631e+7 
           2035      8.04816e+7 
           2045      8.05802e+7 
           2055      7.81466e+7 
           2065      7.79587e+7 
           2074      7.97385e+7 
           2078      8.00696e+7 
           2085      7.95138e+7 
           2095      7.80964e+7 
           2105      7.75237e+7 
           2115      7.73953e+7 
           2125      7.71417e+7 
           2135      7.37074e+7 
           2145      7.66367e+7 
           2155      7.56902e+7 
           2165      7.33048e+7 
           2175      7.31658e+7 
           2185      7.34122e+7 
           2195      7.53127e+7 
           2205      7.30814e+7 
           2215      6.98476e+7 
           2225      7.03817e+7 
           2235      7.37218e+7 
           2245      7.10842e+7 
           2255      6.90512e+7 
           2265      6.81652e+7 
           2275      7.05356e+7 
           2285      7.11772e+7 
           2295       6.8798e+7 
           2305      6.91412e+7 
           2315      6.82626e+7 
           2325      6.82997e+7 
           2335      6.76793e+7 
           2345      6.37697e+7 
           2355      6.71799e+7 
           2365      6.39808e+7 
           2375      6.57554e+7 
           2385      6.14863e+7 
           2395      6.47438e+7 
           2405      6.35526e+7 
           2415      6.38729e+7 
           2425       6.5043e+7 
           2435      6.29856e+7 
           2445      6.43424e+7 
           2455      6.37381e+7 
           2465      6.24222e+7 
           2475      6.11519e+7 
           2485      6.24402e+7 
           2495      6.11298e+7 
           2505      6.36985e+7 
           2513      6.13966e+7 
           2518      6.09748e+7 
           2525      5.88332e+7 
           2535      5.86648e+7 
           2545      5.85653e+7 
           2555      6.10336e+7 
           2565      6.06503e+7 
           2575      6.21573e+7 
           2585      6.23764e+7 
           2595      6.20197e+7 
           2605      6.06562e+7 
           2615      6.02152e+7 
           2625       6.0561e+7 
           2635      6.08401e+7 
           2645      6.36442e+7 
           2655      6.31871e+7 
           2665      6.12763e+7 
           2675      6.19878e+7 
           2685      6.24153e+7 
           2695      6.11074e+7 
           2705      6.10014e+7 
           2715      5.95307e+7 
           2725      5.94193e+7 
           2735      6.05368e+7 
           2745      5.70017e+7 
           2755      5.71793e+7 
           2765      5.85798e+7 
           2775      5.97826e+7 
           2785      5.90383e+7 
           2795      5.33409e+7 
           2805      5.62507e+7 
           2815      6.00496e+7 
           2825      5.96158e+7 
           2835      5.85398e+7 
           2845       5.7752e+7 
           2855      5.65947e+7 
           2865      5.75773e+7 
           2875      5.72275e+7 
           2885       5.7687e+7 
           2895       5.7842e+7 
           2910      5.86264e+7 
           2930      5.72407e+7 
           2950      5.68179e+7 
           2970      5.66659e+7 
           2990      5.63824e+7 
           3010      5.64464e+7 
           3030      5.61469e+7 
           3050      5.57693e+7 
           3070      5.53129e+7 
           3090      5.51358e+7 
           3110      5.47522e+7 
           3130        5.427e+7 
           3150      5.40463e+7 
           3170      5.38163e+7 
           3190       5.2729e+7 
           3210      5.28783e+7 
           3230      5.22797e+7 
           3250      5.23195e+7 
           3270      5.22909e+7 
           3290      5.20643e+7 
           3310      5.18153e+7 
           3330      5.12491e+7 
           3350      5.06256e+7 
           3370      5.04113e+7 
           3390       5.0087e+7 
           3410      5.00682e+7 
           3430       4.9739e+7 
           3450      4.94298e+7 
           3470      4.91151e+7 
           3490        4.886e+7 
           3510      4.86595e+7 
           3530      4.83908e+7 
           3550      4.81132e+7 
           3570      4.76465e+7 
           3590      4.73802e+7 
           3610      4.70908e+7 
           3630      4.68507e+7 
           3640      4.67159e+7 
           3650      4.68278e+7 
           3670      4.67636e+7 
           3690      4.58596e+7 
           3710      4.48656e+7 
           3730      4.28153e+7 
           3750      4.87063e+7 
           3770      5.03882e+7 
           3790      5.96274e+7 
           3810      6.98071e+7 
           3830      5.66498e+7 
           3850      7.85585e+7 
           3870      9.04891e+7 
           3890      4.97298e+7 
           3910      9.18038e+7 
           3930      1.04575e+8 
           3950      9.18276e+7 
           3970      4.82406e+7 
           3990      8.66023e+7 
           4010      1.07356e+8 
           4030      1.11159e+8 
           4050      1.08762e+8 
           4070      9.86234e+7 
           4090      6.86883e+7 
           4110      5.27423e+7 
           4130      9.09903e+7 
           4150      1.02026e+8 
           4170      1.04505e+8 
           4190        1.044e+8 
           4210      1.03481e+8 
           4230      1.01852e+8 
           4250      1.00449e+8 
           4270      9.79299e+7 
           4290      9.40488e+7 
           4310      8.42222e+7 
           4330      5.76962e+7 
           4350      4.94442e+7 
           4370      7.93923e+7 
           4390       8.7821e+7 
           4410      8.99609e+7 
           4430      9.01794e+7 
           4450      8.97568e+7 
           4470      8.89139e+7 
           4490      8.75985e+7 
           4510      8.70956e+7 
           4530      8.60675e+7 
           4550      8.49395e+7 
           4570      8.41652e+7 
           4590      8.31133e+7 
           4610      8.22554e+7 
           4630      8.11895e+7 
           4650      8.02958e+7 
           4670      7.93262e+7 
           4690      7.82075e+7 
           4710      7.67279e+7 
           4730      7.62791e+7 
           4750      7.51472e+7 
           4770      7.37964e+7 
           4790      7.19993e+7 
           4810      6.89919e+7 
           4830      6.25581e+7 
           4850      4.60147e+7 
           4870      3.78764e+7 
           4890      5.80059e+7 
           4910       6.4435e+7 
           4930      6.61128e+7 
           4950      6.65482e+7 
           4970      6.63462e+7 
           4990      6.58366e+7 
           5010      6.51439e+7 
           5030      6.46418e+7 
           5050       6.3955e+7 
           5070       6.3362e+7 
           5090      6.27604e+7 
           5110      6.21013e+7 
           5130      6.14219e+7 
           5150      6.07497e+7 
           5170      5.97225e+7 
           5190      5.92645e+7 
           5210      5.88145e+7 
           5230      5.81286e+7 
           5250        5.761e+7 
           5270      5.68928e+7 
           5290      5.63934e+7 
           5310      5.57757e+7 
           5330      5.51669e+7 
           5350      5.46421e+7 
           5370      5.40464e+7 
           5390      5.34982e+7 
           5410      5.29129e+7 
           5430      5.23973e+7 
           5450      5.18613e+7 
           5470      5.13341e+7 
           5490      5.08171e+7 
           5510      5.03036e+7 
           5530      4.97729e+7 
           5550      4.92864e+7 
           5570      4.87764e+7 
           5590      4.82773e+7 
           5610      4.77985e+7 
           5630      4.73287e+7 
           5650      4.68538e+7 
           5670      4.63832e+7 
           5690      4.59239e+7 
           5710      4.54676e+7 
           5730      4.50222e+7 
           5750       4.4574e+7 
           5770      4.41365e+7 
           5790      4.37029e+7 
           5810      4.32764e+7 
           5830      4.28537e+7 
           5850      4.24346e+7 
           5870       4.2007e+7 
           5890      4.15181e+7 
           5910      4.12128e+7 
           5930      4.08163e+7 
           5950      4.04221e+7 
           5970      4.00355e+7 
           5990      3.96499e+7 
           6010      3.92717e+7 
           6030      3.88987e+7 
           6050      3.85308e+7 
           6070      3.81689e+7 
           6090      3.78079e+7 
           6110      3.74508e+7 
           6130      3.70926e+7 
           6150      3.67312e+7 
           6170      3.63984e+7 
           6190      3.60692e+7 
           6210      3.57357e+7 
           6230      3.53998e+7 
           6250      3.50608e+7 
           6270      3.47531e+7 
           6290      3.44325e+7 
           6310      3.41096e+7 
           6330      3.37975e+7 
           6350      3.34373e+7 
           6370      3.30968e+7 
           6390      3.27857e+7 
           6410      3.24503e+7 
           6430      3.21084e+7 
           6450      3.17212e+7 
           6470      3.13049e+7 
           6490      3.07456e+7 
           6510      2.98796e+7 
           6530      2.81313e+7 
           6550      2.35859e+7 
           6570      1.93493e+7 
           6590      2.60747e+7 
           6610      2.81339e+7 
           6630      2.87204e+7 
           6650      2.88188e+7 
           6670      2.87326e+7 
           6690      2.85728e+7 
           6710       2.8376e+7 
           6730      2.81602e+7 
           6750      2.79348e+7 
           6770      2.77495e+7 
           6790      2.75192e+7 
           6810      2.72815e+7 
           6830      2.70428e+7 
           6850      2.68104e+7 
           6870      2.65819e+7 
           6890       2.6354e+7 
           6910      2.61283e+7 
           6930      2.59048e+7 
           6950      2.56841e+7 
           6970      2.54656e+7 
           6990      2.52499e+7 
           7010       2.5034e+7 
           7030      2.48224e+7 
           7050       2.4615e+7 
           7070      2.44081e+7 
           7090      2.42032e+7 
           7110      2.39808e+7 
           7130      2.37975e+7 
           7150       2.3599e+7 
           7170      2.34037e+7 
           7190      2.32096e+7 
           7210      2.30172e+7 
           7230      2.28281e+7 
           7250      2.26385e+7 
           7270      2.24536e+7 
           7290      2.22674e+7 
           7310      2.20851e+7 
           7330      2.19045e+7 
           7350      2.17268e+7 
           7370      2.15501e+7 
           7390      2.13743e+7 
           7410      2.11987e+7 
           7430      2.10267e+7 
           7450      2.08577e+7 
           7470      2.06847e+7 
           7490      2.05193e+7 
           7510       2.0358e+7 
           7530      2.01956e+7 
           7550      2.00352e+7 
           7570      1.98755e+7 
           7590      1.97173e+7 
           7610      1.95605e+7 
           7630       1.9405e+7 
           7650      1.92509e+7 
           7670      1.90975e+7 
           7690      1.89486e+7 
           7710      1.87978e+7 
           7730      1.86515e+7 
           7750      1.85051e+7 
           7770      1.82659e+7 
           7790      1.82175e+7 
           7810      1.80755e+7 
           7830      1.79335e+7 
           7850      1.77934e+7 
           7870      1.76507e+7 
           7890      1.75111e+7 
           7910      1.73841e+7 
           7930      1.72504e+7 
           7950      1.71149e+7 
           7970      1.69882e+7 
           7990      1.68483e+7 
           8010      1.67285e+7 
           8030      1.66009e+7 
           8050      1.64749e+7 
           8070      1.63494e+7 
           8090      1.62255e+7 
           8110      1.61031e+7 
           8130      1.59818e+7 
           8150      1.58609e+7 
           8170      1.57416e+7 
           8190      1.56137e+7 
           8210       1.5531e+7 
           8230        1.542e+7 
           8250      1.53111e+7 
           8270      1.52167e+7 
           8290      1.51116e+7 
           8310      1.50084e+7 
           8330      1.48886e+7 
           8350      1.48017e+7 
           8370      1.46988e+7 
           8390      1.45903e+7 
           8410      1.44831e+7 
           8430      1.43705e+7 
           8450      1.42408e+7 
           8470      1.41106e+7 
           8490      1.40495e+7 
           8510      1.37598e+7 
           8530      1.38548e+7 
           8550      1.33113e+7 
           8570      1.37438e+7 
           8590      1.32137e+7 
           8610      1.30314e+7 
           8630      1.35938e+7 
           8650      1.31106e+7 
           8670      1.18493e+7 
           8690      1.32007e+7 
           8710      1.34823e+7 
           8730      1.29213e+7 
           8750      1.08911e+7 
           8770      1.23144e+7 
           8790      1.32546e+7 
           8810      1.33765e+7 
           8830      1.29738e+7 
           8850      1.14944e+7 
           8870      1.00746e+7 
           8890      1.22006e+7 
           8910      1.29559e+7 
           8930      1.31583e+7 
           8950      1.30958e+7 
           8970      1.27256e+7 
           8990      1.18379e+7 
           9010      9.62381e+6 
           9030      1.03241e+7 
           9050      1.18917e+7 
           9070      1.24053e+7 
           9090      1.25473e+7 
           9110      1.26434e+7 
           9130      1.25958e+7 
           9150      1.24364e+7 
           9170      1.21497e+7 
