# Kurucz ODFNEW /NOVER (2003)
# teff = 22000 K (value for the effective temperature for the model. Temperatures are given in K)
# logg = 4.5 log(cm/s2) (value for Log(G) for the model.)
# meta = 0.2  (value for the Metallicity for the model.)
# lh = 1.25  (l/Hp where l is the  mixing length of the convective element and Hp is the pressure scale height)
# vtur = 2 km/s (Microturbulence velocity)
# alpha = 0  (Alpha)
#
# column 1: WAVELENGTH (ANGSTROM), Wavelength in Angstrom
# column 2: FLUX (ERG/CM2/S/A), Flux in erg/cm2/s/A
          147.2     7.48683e-17 
            151     3.65081e-16 
          155.2     1.92658e-15 
          158.8     7.49054e-15 
            162     2.38736e-14 
            166     9.57122e-14 
          170.3     3.96304e-13 
          173.4     1.06233e-12 
          176.8     3.00979e-12 
          180.2     8.21513e-12 
          181.7     1.26478e-11 
          186.1      4.3291e-11 
            191     1.59982e-10 
          193.9     3.36356e-10 
          198.4      1.02369e-9 
          201.8      2.30201e-9 
            205      4.82393e-9 
          210.5      1.63742e-8 
          216.2      5.46213e-8 
          219.8      1.13404e-7 
            223      2.13012e-7 
          226.8        4.406e-7 
            230      7.59726e-6 
            234      1.82723e-5 
            240      4.88512e-5 
          246.5     0.000133698 
          252.4     0.000322012 
          256.8     0.000585778 
            260     0.000942381 
            264      0.00160441 
          268.5      0.00286282 
          273.5       0.0053088 
          278.5       0.0097055 
            284       0.0186258 
            290       0.0360988 
            296       0.0680698 
            301        0.113138 
            308        0.224031 
            318        0.579564 
            328         1.35597 
            338         3.12199 
            348         6.71651 
            357         14.4208 
            366          27.233 
            375         47.8222 
            385         88.2725 
            395         158.416 
            405         273.064 
            414         439.447 
            422          649.15 
            430         958.755 
            441         1588.97 
            451         2454.29 
            460         3543.68 
            470         5303.03 
            480         7736.52 
            490         11176.5 
            500         15852.8 
            506         98806.9 
            512          793456 
            520          974690 
            530      1.29064e+6 
            540      1.47113e+6 
            550       2.1336e+6 
            560      2.53163e+6 
            570      3.21559e+6 
            580      3.23456e+6 
            590      4.35344e+6 
            600      5.20787e+6 
            610      6.36461e+6 
            620      7.16217e+6 
            630      8.10372e+6 
            640       8.1327e+6 
            650      6.61573e+6 
            658      1.01403e+7 
            665      1.21804e+7 
            675      1.36412e+7 
            685      1.48556e+7 
            695       1.8458e+7 
            705      1.98792e+7 
            716      2.26858e+7 
            726      2.45782e+7 
            735      2.63636e+7 
            745       3.0173e+7 
            755      3.32023e+7 
            765      3.65319e+7 
            775      4.01665e+7 
            785      4.38118e+7 
            795      4.65201e+7 
            805      4.97839e+7 
            815      5.29852e+7 
            825      5.82453e+7 
            835      5.76853e+7 
            845       6.4047e+7 
            855      6.78554e+7 
            865      7.33848e+7 
            875      7.93635e+7 
            885      8.65411e+7 
            895       9.1936e+7 
            905      9.24868e+7 
            915      1.33854e+8 
            925      6.47986e+8 
            935        1.751e+9 
            945      5.02095e+9 
            955      8.81077e+9 
            965      1.1478e+10 
            975      1.69758e+9 
            985     1.18495e+10 
            995     1.19093e+10 
           1005     1.48976e+10 
           1015     1.37663e+10 
           1025      3.78585e+9 
           1035      9.27734e+9 
           1045     1.86232e+10 
           1055     1.75336e+10 
           1065     1.33095e+10 
           1075     1.63947e+10 
           1085     1.43165e+10 
           1095     1.66546e+10 
           1105     1.45012e+10 
           1115      1.3461e+10 
           1125     1.14648e+10 
           1135     1.54026e+10 
           1145     1.31795e+10 
           1155     1.41398e+10 
           1165     1.42698e+10 
           1175      8.86005e+9 
           1185     1.40736e+10 
           1195     1.11938e+10 
           1205      6.22786e+9 
           1215      3.41863e+9 
           1225      9.10402e+9 
           1235     1.32809e+10 
           1245     1.34053e+10 
           1255       1.307e+10 
           1265      1.2759e+10 
           1275     1.33638e+10 
           1285     1.35155e+10 
           1295      8.45483e+9 
           1305      8.51732e+9 
           1315     1.27908e+10 
           1325     1.17395e+10 
           1335     1.07509e+10 
           1345     1.18036e+10 
           1355     1.14952e+10 
           1365     1.01086e+10 
           1375     1.00153e+10 
           1385      9.99551e+9 
           1395      7.83978e+9 
           1405      8.40168e+9 
           1415      8.69955e+9 
           1425       8.8417e+9 
           1435      8.99551e+9 
           1442      9.33669e+9 
           1447       9.1546e+9 
           1455      8.89245e+9 
           1465      8.10814e+9 
           1475      8.23787e+9 
           1485       8.0506e+9 
           1495      7.96854e+9 
           1505      7.13865e+9 
           1512      6.33693e+9 
           1517      6.62116e+9 
           1525      6.90177e+9 
           1535      5.92317e+9 
           1545      5.91666e+9 
           1555      5.70354e+9 
           1565      6.02096e+9 
           1575      6.40294e+9 
           1585      6.44117e+9 
           1595      6.41115e+9 
           1605      6.50071e+9 
           1615      6.43432e+9 
           1625      6.20672e+9 
           1635      6.59566e+9 
           1645      6.55066e+9 
           1655      6.28193e+9 
           1665      6.64971e+9 
           1672      6.34862e+9 
           1677      6.65964e+9 
           1685      6.63464e+9 
           1695       6.2285e+9 
           1705       5.9544e+9 
           1715      5.59915e+9 
           1725      5.51049e+9 
           1735      5.81534e+9 
           1745      5.59299e+9 
           1755      5.72294e+9 
           1765      5.43334e+9 
           1775      5.25547e+9 
           1785      5.34159e+9 
           1795      5.59185e+9 
           1805      5.62858e+9 
           1815      4.95376e+9 
           1825      5.21146e+9 
           1835      4.95354e+9 
           1845      4.51032e+9 
           1855      4.42689e+9 
           1865      4.51006e+9 
           1875      4.89329e+9 
           1885      4.31637e+9 
           1895      4.01244e+9 
           1905      4.39594e+9 
           1915       4.0657e+9 
           1925      3.90624e+9 
           1935      4.13341e+9 
           1945      4.20235e+9 
           1955      3.81044e+9 
           1967      4.18151e+9 
           1976      4.35124e+9 
           1984       3.9979e+9 
           1995      3.91607e+9 
           2005      4.08215e+9 
           2015       3.9457e+9 
           2025      4.15956e+9 
           2035      3.76436e+9 
           2045      3.85465e+9 
           2055       3.7241e+9 
           2065      3.74607e+9 
           2074      3.93433e+9 
           2078      3.54021e+9 
           2085      3.74682e+9 
           2095      3.51234e+9 
           2105      3.62469e+9 
           2115      3.62941e+9 
           2125      3.67358e+9 
           2135      3.57041e+9 
           2145       3.4043e+9 
           2155      3.55539e+9 
           2165      3.52117e+9 
           2175      3.47557e+9 
           2185      3.34748e+9 
           2195      3.41307e+9 
           2205      3.36041e+9 
           2215      3.28629e+9 
           2225      3.17859e+9 
           2235      3.19908e+9 
           2245      3.20076e+9 
           2255      3.06783e+9 
           2265      3.13964e+9 
           2275      3.10213e+9 
           2285      3.11299e+9 
           2295      2.91805e+9 
           2305      2.97943e+9 
           2315      2.87466e+9 
           2325      2.83487e+9 
           2335      2.71508e+9 
           2345      2.70903e+9 
           2355      2.72425e+9 
           2365      2.66273e+9 
           2375      2.64156e+9 
           2385      2.59442e+9 
           2395      2.62416e+9 
           2405      2.52819e+9 
           2415      2.53779e+9 
           2425      2.54714e+9 
           2435      2.44849e+9 
           2445      2.47785e+9 
           2455      2.47677e+9 
           2465      2.41877e+9 
           2475      2.37835e+9 
           2485      2.38359e+9 
           2495      2.24366e+9 
           2505      2.33307e+9 
           2513      2.20382e+9 
           2518        2.299e+9 
           2525       2.2299e+9 
           2535      2.20009e+9 
           2545      2.13258e+9 
           2555      2.18483e+9 
           2565      2.15271e+9 
           2575      2.17295e+9 
           2585      2.15848e+9 
           2595      2.13841e+9 
           2605      2.11148e+9 
           2615      2.09029e+9 
           2625      2.07095e+9 
           2635      2.05781e+9 
           2645      2.06027e+9 
           2655      2.05162e+9 
           2665      1.97111e+9 
           2675       1.9883e+9 
           2685      1.97525e+9 
           2695      1.91201e+9 
           2705      1.89641e+9 
           2715      1.87919e+9 
           2725      1.85665e+9 
           2735      1.86697e+9 
           2745      1.78695e+9 
           2755       1.7869e+9 
           2765      1.77661e+9 
           2775      1.79881e+9 
           2785      1.77066e+9 
           2795      1.69759e+9 
           2805      1.72463e+9 
           2815       1.7288e+9 
           2825      1.69638e+9 
           2835      1.62406e+9 
           2845      1.64389e+9 
           2855      1.63291e+9 
           2865      1.64112e+9 
           2875       1.6171e+9 
           2885      1.60134e+9 
           2895      1.58283e+9 
           2910      1.55904e+9 
           2930      1.52703e+9 
           2950      1.48237e+9 
           2970      1.46824e+9 
           2990      1.43236e+9 
           3010      1.39979e+9 
           3030      1.39015e+9 
           3050      1.36137e+9 
           3070      1.33629e+9 
           3090      1.29779e+9 
           3110      1.28087e+9 
           3130      1.25675e+9 
           3150      1.23382e+9 
           3170       1.2033e+9 
           3190      1.17234e+9 
           3210      1.16264e+9 
           3230      1.14024e+9 
           3250      1.12108e+9 
           3270      1.09976e+9 
           3290      1.07825e+9 
           3310      1.06082e+9 
           3330      1.03986e+9 
           3350      1.01936e+9 
           3370      1.00156e+9 
           3390      9.85153e+8 
           3410      9.67669e+8 
           3430      9.45146e+8 
           3450      9.24882e+8 
           3470       9.1056e+8 
           3490      8.93905e+8 
           3510      8.79803e+8 
           3530      8.67685e+8 
           3550      8.52794e+8 
           3570      8.43059e+8 
           3590      8.18375e+8 
           3610      8.06152e+8 
           3630       7.9392e+8 
           3640      7.94056e+8 
           3650      7.78824e+8 
           3670      7.70191e+8 
           3690      7.56109e+8 
           3710      7.27999e+8 
           3730      6.96493e+8 
           3750      7.19972e+8 
           3770      7.16753e+8 
           3790      7.64495e+8 
           3810      8.03127e+8 
           3830      6.90337e+8 
           3850      8.30597e+8 
           3870      8.43641e+8 
           3890       6.4909e+8 
           3910      8.42658e+8 
           3930      8.21956e+8 
           3950      8.13002e+8 
           3970      6.04501e+8 
           3990      7.76881e+8 
           4010      7.84426e+8 
           4030      7.27692e+8 
           4050      7.65563e+8 
           4070       7.3345e+8 
           4090      6.65353e+8 
           4110      5.75707e+8 
           4130      6.91356e+8 
           4150      6.91161e+8 
           4170      6.89183e+8 
           4190      6.83564e+8 
           4210      6.76511e+8 
           4230      6.62149e+8 
           4250       6.4688e+8 
           4270      6.25606e+8 
           4290      6.23492e+8 
           4310      6.04617e+8 
           4330      5.34023e+8 
           4350      4.84089e+8 
           4370      5.71459e+8 
           4390      5.58073e+8 
           4410      5.65827e+8 
           4430      5.57601e+8 
           4450      5.52676e+8 
           4470      5.14821e+8 
           4490      5.31567e+8 
           4510      5.30345e+8 
           4530      5.19798e+8 
           4550         5.13e+8 
           4570      5.05002e+8 
           4590      4.97231e+8 
           4610       4.8658e+8 
           4630      4.78115e+8 
           4650      4.68749e+8 
           4670      4.66194e+8 
           4690      4.61781e+8 
           4710      4.42584e+8 
           4730       4.4257e+8 
           4750      4.36263e+8 
           4770      4.36073e+8 
           4790      4.27809e+8 
           4810      4.17533e+8 
           4830      4.08802e+8 
           4850      3.69146e+8 
           4870       3.2571e+8 
           4890      3.90608e+8 
           4910      3.89307e+8 
           4930      3.72871e+8 
           4950       3.7992e+8 
           4970      3.76289e+8 
           4990       3.7001e+8 
           5010      3.53359e+8 
           5030      3.58297e+8 
           5050      3.47946e+8 
           5070      3.49647e+8 
           5090      3.44331e+8 
           5110      3.38438e+8 
           5130      3.30608e+8 
           5150      3.26596e+8 
           5170      3.25568e+8 
           5190      3.21231e+8 
           5210      3.14023e+8 
           5230      3.12342e+8 
           5250      3.08313e+8 
           5270      3.03563e+8 
           5290      3.00397e+8 
           5310      2.96001e+8 
           5330      2.91609e+8 
           5350        2.868e+8 
           5370      2.84655e+8 
           5390      2.80744e+8 
           5410      2.76973e+8 
           5430       2.7247e+8 
           5450      2.69155e+8 
           5470       2.6544e+8 
           5490      2.62585e+8 
           5510      2.59317e+8 
           5530      2.55708e+8 
           5550      2.52865e+8 
           5570      2.49365e+8 
           5590      2.46486e+8 
           5610      2.42913e+8 
           5630      2.40405e+8 
           5650      2.35013e+8 
           5670      2.31729e+8 
           5690      2.29311e+8 
           5710      2.27742e+8 
           5730      2.25123e+8 
           5750      2.22032e+8 
           5770      2.19885e+8 
           5790      2.17042e+8 
           5810      2.14301e+8 
           5830      2.11414e+8 
           5850      2.09013e+8 
           5870       1.9891e+8 
           5890      2.01547e+8 
           5910      2.00994e+8 
           5930      1.98505e+8 
           5950      1.95513e+8 
           5970      1.94332e+8 
           5990      1.91346e+8 
           6010      1.89668e+8 
           6030      1.87179e+8 
           6050      1.85069e+8 
           6070      1.82982e+8 
           6090      1.80695e+8 
           6110      1.78666e+8 
           6130       1.7667e+8 
           6150      1.73402e+8 
           6170       1.7219e+8 
           6190       1.7045e+8 
           6210      1.68494e+8 
           6230      1.66521e+8 
           6250      1.64049e+8 
           6270      1.62506e+8 
           6290      1.60722e+8 
           6310      1.58692e+8 
           6330      1.57146e+8 
           6350       1.5442e+8 
           6370       1.5308e+8 
           6390      1.51662e+8 
           6410      1.49929e+8 
           6430      1.48496e+8 
           6450       1.4668e+8 
           6470      1.44614e+8 
           6490       1.4316e+8 
           6510      1.41331e+8 
           6530      1.38965e+8 
           6550      1.30724e+8 
           6570      1.14018e+8 
           6590      1.32152e+8 
           6610      1.33466e+8 
           6630       1.3255e+8 
           6650      1.31277e+8 
           6670       1.2823e+8 
           6690      1.26934e+8 
           6710      1.27099e+8 
           6730      1.25604e+8 
           6750      1.24431e+8 
           6770      1.23114e+8 
           6790      1.20747e+8 
           6810      1.20266e+8 
           6830       1.1903e+8 
           6850      1.17902e+8 
           6870      1.16658e+8 
           6890      1.15379e+8 
           6910      1.14144e+8 
           6930      1.12874e+8 
           6950       1.1182e+8 
           6970      1.10667e+8 
           6990      1.09487e+8 
           7010      1.08327e+8 
           7030      1.07201e+8 
           7050      1.05987e+8 
           7070      1.03029e+8 
           7090      1.03872e+8 
           7110      1.02365e+8 
           7130      1.01362e+8 
           7150      1.00663e+8 
           7170      9.97134e+7 
           7190      9.87514e+7 
           7210      9.77477e+7 
           7230      9.52257e+7 
           7250      9.56687e+7 
           7270       9.4808e+7 
           7290      9.30125e+7 
           7310      9.29061e+7 
           7330      9.19791e+7 
           7350      9.10887e+7 
           7370      9.01789e+7 
           7390      8.92844e+7 
           7410      8.84051e+7 
           7430      8.74317e+7 
           7450      8.66439e+7 
           7470      8.56067e+7 
           7490      8.49151e+7 
           7510       8.4076e+7 
           7530      8.32512e+7 
           7550      8.25133e+7 
           7570      8.17229e+7 
           7590       8.0907e+7 
           7610       8.0131e+7 
           7630      7.93685e+7 
           7650      7.86193e+7 
           7670       7.7864e+7 
           7690      7.71155e+7 
           7710      7.63864e+7 
           7730      7.56386e+7 
           7750      7.49413e+7 
           7770      7.36512e+7 
           7790      7.35343e+7 
           7810      7.27937e+7 
           7830      7.21642e+7 
           7850      7.13568e+7 
           7870      7.07087e+7 
           7890      6.98666e+7 
           7910      6.95017e+7 
           7930       6.8882e+7 
           7950      6.80232e+7 
           7970      6.74628e+7 
           7990      6.66239e+7 
           8010      6.62329e+7 
           8030      6.56112e+7 
           8050      6.50008e+7 
           8070      6.44302e+7 
           8090      6.37724e+7 
           8110      6.31948e+7 
           8130      6.27247e+7 
           8150      6.21223e+7 
           8170      6.16435e+7 
           8190      6.09553e+7 
           8210      6.02227e+7 
           8230      5.96968e+7 
           8250      5.94022e+7 
           8270      5.85038e+7 
           8290      5.83041e+7 
           8310       5.7811e+7 
           8330      5.73003e+7 
           8350      5.64966e+7 
           8370      5.61624e+7 
           8390      5.58147e+7 
           8410      5.53098e+7 
           8430       5.4772e+7 
           8450      5.36741e+7 
           8470      5.37938e+7 
           8490      5.31591e+7 
           8510      5.26963e+7 
           8530      5.22786e+7 
           8550      5.13046e+7 
           8570       5.1884e+7 
