# Kurucz ODFNEW /NOVER (2003)
# teff = 27000 K (value for the effective temperature for the model. Temperatures are given in K)
# logg = 5 log(cm/s2) (value for Log(G) for the model.)
# meta = -1.5  (value for the Metallicity for the model.)
# lh = 1.25  (l/Hp where l is the  mixing length of the convective element and Hp is the pressure scale height)
# vtur = 2 km/s (Microturbulence velocity)
# alpha = 0  (Alpha)
#
# column 1: WAVELENGTH (ANGSTROM), Wavelength in Angstrom
# column 2: FLUX (ERG/CM2/S/A), Flux in erg/cm2/s/A
          147.2     7.57185e-12 
            151     3.09367e-11 
          155.2      1.3583e-10 
          158.8     4.54751e-10 
            162      1.27501e-9 
            166      4.38182e-9 
          170.3       1.5511e-8 
          173.4      3.71435e-8 
          176.8      9.34549e-8 
          180.2      2.27126e-7 
          181.7      3.32525e-7 
          186.1      9.82267e-7 
            191      3.09358e-6 
          193.9      5.93363e-6 
          198.4      1.56865e-5 
          201.8      3.17465e-5 
            205      6.03179e-5 
          210.5     0.000173587 
          216.2     0.000489771 
          219.8     0.000916246 
            223      0.00157066 
          226.8      0.00291821 
            230       0.0524857 
            234        0.118552 
            240        0.262651 
          246.5        0.594443 
          252.4         1.21648 
          256.8         1.92094 
            260         2.85997 
            264         4.38226 
          268.5         6.98148 
          273.5         11.4803 
          278.5          18.562 
            284         30.8666 
            290         52.3748 
            296          86.791 
            301         129.658 
            308         214.952 
            318         467.354 
            328         922.599 
            338         1759.26 
            348         3208.78 
            357         5360.86 
            366         8736.52 
            375         13703.7 
            385         22222.3 
            395         34899.8 
            405         53503.5 
            414         77308.3 
            422          104990 
            430          140826 
            441          208432 
            451          292047 
            460          388195 
            470          527592 
            480          704406 
            490          929381 
            500      1.21072e+6 
            506       6.0358e+6 
            512      2.22163e+7 
            520      2.56967e+7 
            530       3.2244e+7 
            540      3.34031e+7 
            550       4.2992e+7 
            560      4.76438e+7 
            570       5.4791e+7 
            580      5.43828e+7 
            590      6.62918e+7 
            600      7.45359e+7 
            610      8.35254e+7 
            620      9.10197e+7 
            630      1.00661e+8 
            640      1.06627e+8 
            650       1.1844e+8 
            658      1.27864e+8 
            665      1.35443e+8 
            675        1.433e+8 
            685      1.52691e+8 
            695      1.71859e+8 
            705      1.81852e+8 
            716       1.9803e+8 
            726      2.10516e+8 
            735      2.24556e+8 
            745       2.4132e+8 
            755      2.57064e+8 
            765      2.72287e+8 
            775      2.90075e+8 
            785      3.07968e+8 
            795      3.23074e+8 
            805      3.40758e+8 
            815      3.57199e+8 
            825      3.77673e+8 
            835       3.8615e+8 
            845      4.11518e+8 
            855      4.28715e+8 
            865       4.5066e+8 
            875      4.72943e+8 
            885      4.94273e+8 
            895      5.14095e+8 
            905      5.27865e+8 
            915      6.39548e+8 
            925      2.67692e+9 
            935      6.68286e+9 
            945     2.02412e+10 
            955     3.13635e+10 
            965     4.34813e+10 
            975     1.51686e+10 
            985     5.26095e+10 
            995     5.06365e+10 
           1005     5.34346e+10 
           1015     4.55889e+10 
           1025     1.23279e+10 
           1035     3.94164e+10 
           1045     5.19992e+10 
           1055     5.07812e+10 
           1065     4.60422e+10 
           1075     4.76574e+10 
           1085     4.31252e+10 
           1095     4.61649e+10 
           1105     4.39725e+10 
           1115     4.31297e+10 
           1125     3.98303e+10 
           1135     4.12283e+10 
           1145     3.84826e+10 
           1155     3.90588e+10 
           1165     3.82329e+10 
           1175      3.1972e+10 
           1185     3.57889e+10 
           1195     3.32086e+10 
           1205     2.71671e+10 
           1215      8.94953e+9 
           1225     2.60488e+10 
           1235     3.11787e+10 
           1245     3.08719e+10 
           1255     3.05254e+10 
           1265     2.97904e+10 
           1275     2.96192e+10 
           1285      2.8941e+10 
           1295      2.6465e+10 
           1305     2.64569e+10 
           1315     2.69493e+10 
           1325     2.58982e+10 
           1335     2.48289e+10 
           1345     2.48526e+10 
           1355     2.46287e+10 
           1365     2.37151e+10 
           1375     2.33077e+10 
           1385     2.28388e+10 
           1395     2.12116e+10 
           1405     2.11435e+10 
           1415     2.12164e+10 
           1425     2.07286e+10 
           1435     2.04407e+10 
           1442     2.03098e+10 
           1447     2.00347e+10 
           1455     1.96691e+10 
           1465     1.91452e+10 
           1475     1.87791e+10 
           1485      1.8375e+10 
           1495     1.79968e+10 
           1505     1.73127e+10 
           1512     1.69419e+10 
           1517     1.68942e+10 
           1525     1.66186e+10 
           1535     1.57516e+10 
           1545     1.55652e+10 
           1555     1.50592e+10 
           1565     1.51985e+10 
           1575     1.50844e+10 
           1585     1.48277e+10 
           1595     1.45944e+10 
           1605     1.40836e+10 
           1615      1.3787e+10 
           1625     1.37014e+10 
           1635     1.35525e+10 
           1645     1.30771e+10 
           1655     1.30856e+10 
           1665     1.29153e+10 
           1672     1.26371e+10 
           1677     1.27387e+10 
           1685      1.2508e+10 
           1695     1.22083e+10 
           1705     1.19161e+10 
           1715     1.16033e+10 
           1725     1.14165e+10 
           1735     1.13112e+10 
           1745     1.10864e+10 
           1755     1.09647e+10 
           1765     1.05741e+10 
           1775     1.04569e+10 
           1785     1.03551e+10 
           1795     1.02404e+10 
           1805     1.01128e+10 
           1815      9.83421e+9 
           1825       9.7161e+9 
           1835      9.53911e+9 
           1845      9.11482e+9 
           1855      8.91181e+9 
           1865      8.89459e+9 
           1875      8.88591e+9 
           1885      8.45154e+9 
           1895      8.15413e+9 
           1905      8.30097e+9 
           1915      8.01099e+9 
           1925      7.83038e+9 
           1935       7.8707e+9 
           1945      7.86615e+9 
           1955      7.47698e+9 
           1967      7.56489e+9 
           1976      7.59995e+9 
           1984      7.33924e+9 
           1995      7.11645e+9 
           2005      7.16334e+9 
           2015      7.12554e+9 
           2025      7.07555e+9 
           2035      6.86118e+9 
           2045      6.76055e+9 
           2055      6.54219e+9 
           2065      6.46811e+9 
           2074        6.532e+9 
           2078       6.3542e+9 
           2085      6.33855e+9 
           2095      6.18257e+9 
           2105      6.21757e+9 
           2115      6.16439e+9 
           2125      6.11727e+9 
           2135      6.01299e+9 
           2145      5.89344e+9 
           2155      5.84106e+9 
           2165      5.76617e+9 
           2175      5.67417e+9 
           2185      5.60096e+9 
           2195       5.5323e+9 
           2205       5.4517e+9 
           2215      5.37709e+9 
           2225      5.29455e+9 
           2235      5.21545e+9 
           2245      5.15616e+9 
           2255      5.07608e+9 
           2265      5.01535e+9 
           2275      4.94646e+9 
           2285      4.88205e+9 
           2295      4.75233e+9 
           2305      4.74572e+9 
           2315      4.67648e+9 
           2325      4.61543e+9 
           2335      4.54544e+9 
           2345      4.49107e+9 
           2355       4.4365e+9 
           2365      4.37636e+9 
           2375      4.31621e+9 
           2385      4.25711e+9 
           2395      4.20252e+9 
           2405      4.14824e+9 
           2415      4.09251e+9 
           2425      4.04576e+9 
           2435      3.98814e+9 
           2445      3.93926e+9 
           2455      3.89179e+9 
           2465      3.84094e+9 
           2475      3.79182e+9 
           2485      3.74312e+9 
           2495      3.62754e+9 
           2505      3.64541e+9 
           2513      3.57516e+9 
           2518      3.58712e+9 
           2525      3.55657e+9 
           2535      3.51162e+9 
           2545      3.45447e+9 
           2555      3.42281e+9 
           2565        3.383e+9 
           2575      3.34349e+9 
           2585      3.30306e+9 
           2595      3.26255e+9 
           2605      3.24277e+9 
           2615       3.2043e+9 
           2625      3.16643e+9 
           2635       3.1266e+9 
           2645      3.08857e+9 
           2655       3.0483e+9 
           2665      3.00271e+9 
           2675      2.96224e+9 
           2685      2.94738e+9 
           2695      2.88389e+9 
           2705      2.87558e+9 
           2715      2.84248e+9 
           2725      2.78284e+9 
           2735      2.77603e+9 
           2745      2.73929e+9 
           2755      2.71006e+9 
           2765      2.65349e+9 
           2775      2.65127e+9 
           2785      2.61998e+9 
           2795      2.56409e+9 
           2805      2.55163e+9 
           2815      2.53196e+9 
           2825      2.47069e+9 
           2835      2.44199e+9 
           2845      2.44655e+9 
           2855      2.41858e+9 
           2865      2.39204e+9 
           2875      2.36522e+9 
           2885      2.33903e+9 
           2895      2.31292e+9 
           2910      2.27401e+9 
           2930      2.22389e+9 
           2950      2.15484e+9 
           2970      2.12886e+9 
           2990      2.08214e+9 
           3010      2.03719e+9 
           3030       1.9954e+9 
           3050      1.95328e+9 
           3070      1.91233e+9 
           3090      1.86966e+9 
           3110      1.83323e+9 
           3130      1.79661e+9 
           3150      1.76001e+9 
           3170      1.72347e+9 
           3190      1.67065e+9 
           3210      1.65388e+9 
           3230       1.6201e+9 
           3250      1.58745e+9 
           3270      1.55781e+9 
           3290      1.52445e+9 
           3310       1.4971e+9 
           3330      1.46776e+9 
           3350      1.43625e+9 
           3370       1.4113e+9 
           3390       1.3842e+9 
           3410      1.35774e+9 
           3430       1.3255e+9 
           3450      1.29527e+9 
           3470      1.27484e+9 
           3490      1.25096e+9 
           3510      1.22922e+9 
           3530       1.2079e+9 
           3550      1.18652e+9 
           3570      1.17335e+9 
           3590      1.14135e+9 
           3610      1.12607e+9 
           3630      1.10086e+9 
           3640      1.10116e+9 
           3650      1.08117e+9 
           3670      1.06676e+9 
           3690       1.0485e+9 
           3710      1.01405e+9 
           3730      9.78534e+8 
           3750      9.68794e+8 
           3770      9.42692e+8 
           3790      9.82731e+8 
           3810      1.02564e+9 
           3830      8.90016e+8 
           3850      1.06109e+9 
           3870      1.08809e+9 
           3890      8.33544e+8 
           3910      1.07195e+9 
           3930      1.07292e+9 
           3950      1.03944e+9 
           3970      7.74881e+8 
           3990      9.91346e+8 
           4010      1.00299e+9 
           4030      9.29547e+8 
           4050      9.84676e+8 
           4070      9.57942e+8 
           4090      8.49978e+8 
           4110      7.34721e+8 
           4130       8.9378e+8 
           4150      8.92732e+8 
           4170      8.88631e+8 
           4190      8.77185e+8 
           4210      8.62983e+8 
           4230      8.48209e+8 
           4250      8.33174e+8 
           4270      8.15036e+8 
           4290      8.02009e+8 
           4310      7.79515e+8 
           4330      6.80062e+8 
           4350      6.17659e+8 
           4370      7.37464e+8 
           4390      7.09296e+8 
           4410      7.26587e+8 
           4430      7.13841e+8 
           4450      7.04871e+8 
           4470      6.49952e+8 
           4490      6.81174e+8 
           4510      6.72979e+8 
           4530      6.62203e+8 
           4550      6.51518e+8 
           4570       6.4112e+8 
           4590      6.31146e+8 
           4610      6.21267e+8 
           4630      6.11553e+8 
           4650      6.00729e+8 
           4670      5.92744e+8 
           4690      5.83555e+8 
           4710      5.65482e+8 
           4730      5.65728e+8 
           4750       5.5675e+8 
           4770      5.49259e+8 
           4790      5.39937e+8 
           4810      5.30018e+8 
           4830      5.16174e+8 
           4850       4.6122e+8 
           4870      4.09675e+8 
           4890      4.89721e+8 
           4910      4.89896e+8 
           4930      4.69065e+8 
           4950      4.79458e+8 
           4970       4.7303e+8 
           4990      4.66114e+8 
           5010      4.51833e+8 
           5030       4.5267e+8 
           5050      4.42857e+8 
           5070      4.39883e+8 
           5090      4.33583e+8 
           5110      4.27411e+8 
           5130      4.21265e+8 
           5150      4.15301e+8 
           5170      4.09571e+8 
           5190      4.03847e+8 
           5210      3.98129e+8 
           5230      3.92666e+8 
           5250       3.8722e+8 
           5270      3.81858e+8 
           5290       3.7662e+8 
           5310      3.71437e+8 
           5330      3.66361e+8 
           5350       3.6135e+8 
           5370      3.56494e+8 
           5390      3.51662e+8 
           5410       3.4693e+8 
           5430      3.42245e+8 
           5450      3.37658e+8 
           5470      3.33166e+8 
           5490      3.28743e+8 
           5510      3.24388e+8 
           5530      3.20112e+8 
           5550      3.15901e+8 
           5570      3.11754e+8 
           5590      3.07683e+8 
           5610      3.03662e+8 
           5630      2.99737e+8 
           5650      2.95813e+8 
           5670      2.91925e+8 
           5690      2.88108e+8 
           5710      2.84557e+8 
           5730      2.80933e+8 
           5750      2.77318e+8 
           5770      2.73849e+8 
           5790      2.70387e+8 
           5810      2.66978e+8 
           5830      2.63608e+8 
           5850      2.60312e+8 
           5870      2.46984e+8 
           5890      2.52825e+8 
           5910      2.50696e+8 
           5930      2.47583e+8 
           5950      2.44506e+8 
           5970      2.41549e+8 
           5990      2.38563e+8 
           6010      2.35664e+8 
           6030      2.32787e+8 
           6050      2.29975e+8 
           6070      2.27194e+8 
           6090      2.24444e+8 
           6110      2.21746e+8 
           6130      2.19089e+8 
           6150      2.16441e+8 
           6170      2.13882e+8 
           6190      2.11352e+8 
           6210       2.0885e+8 
           6230      2.06375e+8 
           6250      2.03947e+8 
           6270      2.01556e+8 
           6290      1.99191e+8 
           6310       1.9687e+8 
           6330      1.94575e+8 
           6350      1.92286e+8 
           6370      1.90078e+8 
           6390      1.87903e+8 
           6410      1.85733e+8 
           6430      1.83613e+8 
           6450      1.81517e+8 
           6470      1.79406e+8 
           6490      1.77282e+8 
           6510      1.74764e+8 
           6530      1.71601e+8 
           6550      1.60869e+8 
           6570      1.41668e+8 
           6590      1.63945e+8 
           6610      1.64851e+8 
           6630      1.63558e+8 
           6650      1.62184e+8 
           6670       1.5808e+8 
           6690      1.56412e+8 
           6710      1.56878e+8 
           6730       1.5514e+8 
           6750      1.53453e+8 
           6770      1.51775e+8 
           6790      1.50066e+8 
           6810      1.48487e+8 
           6830      1.46875e+8 
           6850      1.45296e+8 
           6870      1.43725e+8 
           6890      1.42178e+8 
           6910      1.40654e+8 
           6930      1.39153e+8 
           6950      1.37667e+8 
           6970      1.36203e+8 
           6990      1.34762e+8 
           7010      1.33335e+8 
           7030      1.31929e+8 
           7050      1.30537e+8 
           7070       1.2677e+8 
           7090      1.27817e+8 
           7110       1.2648e+8 
           7130      1.25164e+8 
           7150      1.23868e+8 
           7170       1.2257e+8 
           7190       1.2132e+8 
           7210      1.20069e+8 
           7230      1.18562e+8 
           7250      1.17615e+8 
           7270      1.16413e+8 
           7290      1.14151e+8 
           7310      1.14042e+8 
           7330      1.12902e+8 
           7350      1.11758e+8 
           7370      1.10632e+8 
           7390      1.09517e+8 
           7410      1.08419e+8 
           7430      1.07331e+8 
           7450      1.06274e+8 
           7470      1.05206e+8 
           7490      1.04168e+8 
           7510      1.03099e+8 
           7530      1.02114e+8 
           7550      1.01111e+8 
           7570      1.00117e+8 
           7590      9.91326e+7 
           7610      9.81634e+7 
           7630      9.72029e+7 
           7650      9.62576e+7 
           7670      9.53208e+7 
           7690      9.43988e+7 
           7710      9.34851e+7 
           7730      9.25858e+7 
           7750      9.16883e+7 
           7770      9.07864e+7 
           7790      8.99421e+7 
           7810      8.90312e+7 
           7830      8.82328e+7 
           7850      8.74781e+7 
           7870      8.66509e+7 
           7890      8.57704e+7 
           7910      8.50241e+7 
           7930      8.42243e+7 
           7950      8.34196e+7 
           7970      8.25033e+7 
           7990      8.17367e+7 
           8010      8.09239e+7 
           8030       8.0159e+7 
           8050      7.94066e+7 
           8070       7.8678e+7 
           8090       7.7875e+7 
           8110      7.71993e+7 
           8130      7.65691e+7 
           8150      7.58138e+7 
           8170      7.51778e+7 
           8190      7.44236e+7 
           8210      7.35807e+7 
           8230      7.30845e+7 
           8250      7.24427e+7 
           8270      7.14703e+7 
           8290      7.11149e+7 
           8310      7.05166e+7 
           8330      6.98364e+7 
           8350      6.88917e+7 
           8370      6.85037e+7 
           8390      6.80009e+7 
           8410      6.73955e+7 
           8430      6.67527e+7 
           8450      6.57037e+7 
           8470      6.55881e+7 
           8490      6.48561e+7 
           8510      6.44008e+7 
           8530      6.36797e+7 
           8550      6.30317e+7 
           8570      6.28764e+7 
           8590      6.10676e+7 
