# Kurucz ODFNEW /NOVER (2003)
# teff = 10250 K (value for the effective temperature for the model. Temperatures are given in K)
# logg = 3 log(cm/s2) (value for Log(G) for the model.)
# meta = 0.2  (value for the Metallicity for the model.)
# lh = 1.25  (l/Hp where l is the  mixing length of the convective element and Hp is the pressure scale height)
# vtur = 2 km/s (Microturbulence velocity)
# alpha = 0.4  (Alpha)
#
# column 1: WAVELENGTH (ANGSTROM), Wavelength in Angstrom
# column 2: FLUX (ERG/CM2/S/A), Flux in erg/cm2/s/A
          268.5     7.01597e-24 
          273.5     7.01713e-23 
          278.5     2.78886e-22 
            284      1.1528e-21 
            290     5.05606e-21 
            296     2.08204e-20 
            301      6.5299e-20 
            308     3.04973e-19 
            318     2.46239e-18 
            328     1.76571e-17 
            338     1.13262e-16 
            348     6.57186e-16 
            357     3.06913e-15 
            366     1.28324e-14 
            375     4.99573e-14 
            385     2.12209e-13 
            395     8.34081e-13 
            405     3.09721e-12 
            414     9.55121e-12 
            422     2.49751e-11 
            430     6.25383e-11 
            441     2.14088e-10 
            451     6.17878e-10 
            460      1.54343e-9 
            470      4.09508e-9 
            480      1.04506e-8 
            490      2.56948e-8 
            500       6.0875e-8 
            506      1.95798e-7 
            512      3.81509e-7 
            520      6.95849e-7 
            530      1.44522e-6 
            540      2.88374e-6 
            550      5.74036e-6 
            560      1.10269e-5 
            570      2.07265e-5 
            580      3.75296e-5 
            590      6.84163e-5 
            600     0.000120679 
            610     0.000209899 
            620     0.000356776 
            630     0.000597262 
            640     0.000979441 
            650      0.00159448 
            658      0.00232321 
            665      0.00319418 
            675      0.00499792 
            685      0.00772864 
            695       0.0117981 
            705       0.0176804 
            716       0.0274778 
            726       0.0404122 
            735       0.0566065 
            745       0.0814717 
            755        0.116193 
            765        0.164036 
            775        0.229917 
            785        0.319333 
            795         0.43681 
            805         0.59664 
            815        0.809864 
            825         1.08764 
            835         1.44365 
            845         1.91835 
            855         2.52039 
            865         3.29086 
            875         4.25465 
            885         5.50213 
            895         7.04852 
            905         8.94188 
            915         554.278 
            925         4149.76 
            935         6219.18 
            945         9545.79 
            955         14787.9 
            965         19378.1 
            975         17158.1 
            985         25292.5 
            995         26564.1 
           1005         33369.6 
           1015         39332.2 
           1025         32497.8 
           1035         48830.9 
           1045         60220.1 
           1055         70449.9 
           1065         74088.7 
           1075         87709.3 
           1085         99620.6 
           1095          103581 
           1105          283269 
           1115      4.00994e+6 
           1125      5.77019e+6 
           1135      8.49803e+6 
           1145      7.78329e+6 
           1155      9.56095e+6 
           1165      1.06641e+7 
           1175      8.74872e+6 
           1185      5.35197e+6 
           1195          195964 
           1205          308876 
           1215           61199 
           1225          308488 
           1235      1.58808e+6 
           1245      1.33149e+7 
           1255       3.3001e+7 
           1265      1.58816e+7 
           1275      5.46291e+7 
           1285      8.90977e+7 
           1295      6.01725e+7 
           1305      1.34765e+7 
           1315      6.69964e+7 
           1325       9.6432e+7 
           1335      7.41865e+7 
           1345      1.10497e+8 
           1355      1.04789e+8 
           1365      8.38915e+7 
           1375      9.51057e+7 
           1385      9.44855e+7 
           1395      9.74876e+7 
           1405      9.73721e+7 
           1415      9.22131e+7 
           1425      1.09949e+8 
           1435      9.88665e+7 
           1442      1.14369e+8 
           1447      1.28832e+8 
           1455      1.28078e+8 
           1465      1.16037e+8 
           1475      1.07681e+8 
           1485       1.2133e+8 
           1495      1.34485e+8 
           1505      1.32885e+8 
           1512      1.13686e+8 
           1517       1.2957e+8 
           1525      1.10779e+8 
           1535      1.01111e+8 
           1545      1.50095e+8 
           1555      1.24288e+8 
           1565      1.11375e+8 
           1575      1.29319e+8 
           1585      1.48898e+8 
           1595      1.61012e+8 
           1605      1.48073e+8 
           1615      1.47617e+8 
           1625      1.31269e+8 
           1635      1.38434e+8 
           1645      1.46681e+8 
           1655      1.25841e+8 
           1665      1.42376e+8 
           1672       8.3917e+7 
           1677      1.38069e+8 
           1685      1.58004e+8 
           1695      1.46363e+8 
           1705      1.33105e+8 
           1715      1.27813e+8 
           1725      1.26577e+8 
           1735      1.38791e+8 
           1745        1.377e+8 
           1755      1.57834e+8 
           1765      1.27269e+8 
           1775      1.43535e+8 
           1785      1.42452e+8 
           1795      1.65563e+8 
           1805      1.54634e+8 
           1815      1.52042e+8 
           1825      1.45302e+8 
           1835      1.38442e+8 
           1845      1.25402e+8 
           1855      1.32265e+8 
           1865      1.33591e+8 
           1875       1.4475e+8 
           1885      1.39603e+8 
           1895      1.37472e+8 
           1905      1.29887e+8 
           1915      1.37513e+8 
           1925      1.40429e+8 
           1935      1.39685e+8 
           1945      1.43282e+8 
           1955      1.40854e+8 
           1967      1.51701e+8 
           1976       1.5313e+8 
           1984      1.44289e+8 
           1995      1.38774e+8 
           2005      1.40373e+8 
           2015      1.28016e+8 
           2025      1.35749e+8 
           2035      1.34145e+8 
           2045      1.40791e+8 
           2055      1.27854e+8 
           2065      1.29755e+8 
           2074       1.3999e+8 
           2078       1.4227e+8 
           2085      1.39999e+8 
           2095      1.33764e+8 
           2105      1.29257e+8 
           2115      1.28526e+8 
           2125      1.31324e+8 
           2135      1.08335e+8 
           2145      1.22647e+8 
           2155      1.27214e+8 
           2165      1.19934e+8 
           2175      1.17623e+8 
           2185      1.15902e+8 
           2195        1.242e+8 
           2205       1.1745e+8 
           2215       1.0578e+8 
           2225      1.01065e+8 
           2235       1.1465e+8 
           2245      1.02441e+8 
           2255      9.77047e+7 
           2265      1.01801e+8 
           2275      1.08383e+8 
           2285      1.12105e+8 
           2295      1.05558e+8 
           2305      1.00198e+8 
           2315      9.43155e+7 
           2325      9.35268e+7 
           2335      8.41802e+7 
           2345      7.80379e+7 
           2355      9.22935e+7 
           2365      7.76329e+7 
           2375       8.4354e+7 
           2385      7.18857e+7 
           2395      8.25438e+7 
           2405      7.69022e+7 
           2415      8.10725e+7 
           2425      8.91242e+7 
           2435      8.44099e+7 
           2445      9.17431e+7 
           2455      8.75844e+7 
           2465      8.75572e+7 
           2475      8.34563e+7 
           2485      8.99786e+7 
           2495      8.62268e+7 
           2505      9.68446e+7 
           2513      8.38268e+7 
           2518      8.67325e+7 
           2525      7.90079e+7 
           2535      7.89779e+7 
           2545      7.83818e+7 
           2555      8.49196e+7 
           2565      8.25925e+7 
           2575      9.04918e+7 
           2585      8.90093e+7 
           2595      8.60533e+7 
           2605      8.13746e+7 
           2615       8.0825e+7 
           2625      8.74217e+7 
           2635      8.78555e+7 
           2645      1.00014e+8 
           2655      9.81503e+7 
           2665      8.70715e+7 
           2675      9.28395e+7 
           2685      9.00067e+7 
           2695      8.74468e+7 
           2705      9.07401e+7 
           2715      8.53761e+7 
           2725      8.66836e+7 
           2735      9.43961e+7 
           2745      7.66506e+7 
           2755      7.69538e+7 
           2765      7.94632e+7 
           2775       8.7399e+7 
           2785      8.36154e+7 
           2795      5.20147e+7 
           2805      6.27769e+7 
           2815      8.78329e+7 
           2825      9.11963e+7 
           2835      8.64433e+7 
           2845      8.30022e+7 
           2855      8.01108e+7 
           2865      8.68317e+7 
           2875      8.34439e+7 
           2885      8.51884e+7 
           2895        8.087e+7 
           2910      9.10849e+7 
           2930      8.65281e+7 
           2950      8.67095e+7 
           2970      8.84882e+7 
           2990      8.88591e+7 
           3010      9.08631e+7 
           3030      8.89823e+7 
           3050      8.71064e+7 
           3070      8.54995e+7 
           3090        8.717e+7 
           3110      8.40349e+7 
           3130      8.35066e+7 
           3150        8.472e+7 
           3170      8.36506e+7 
           3190      8.01209e+7 
           3210      8.18018e+7 
           3230      7.97267e+7 
           3250      8.03036e+7 
           3270      7.99584e+7 
           3290      8.05415e+7 
           3310      8.06749e+7 
           3330      7.83668e+7 
           3350      7.70008e+7 
           3370      7.68857e+7 
           3390       7.6132e+7 
           3410      7.74738e+7 
           3430      7.71141e+7 
           3450      7.62353e+7 
           3470      7.49147e+7 
           3490      7.42658e+7 
           3510      7.48346e+7 
           3530       7.4893e+7 
           3550      7.47181e+7 
           3570      7.32537e+7 
           3590      7.26941e+7 
           3610      7.22869e+7 
           3630      7.16011e+7 
           3640      7.11486e+7 
           3650      7.29281e+7 
           3670      7.17327e+7 
           3690      6.90509e+7 
           3710      7.83424e+7 
           3730      8.90938e+7 
           3750      1.24783e+8 
           3770      1.29231e+8 
           3790      1.53132e+8 
           3810      1.69883e+8 
           3830      1.36226e+8 
           3850      1.75475e+8 
           3870      1.86666e+8 
           3890      1.25489e+8 
           3910      1.81232e+8 
           3930      1.77507e+8 
           3950      1.79681e+8 
           3970      1.17277e+8 
           3990      1.74066e+8 
           4010      1.75396e+8 
           4030      1.71662e+8 
           4050      1.71436e+8 
           4070      1.66813e+8 
           4090      1.50247e+8 
           4110        1.184e+8 
           4130      1.57504e+8 
           4150      1.60341e+8 
           4170      1.56475e+8 
           4190      1.55103e+8 
           4210      1.53941e+8 
           4230      1.51156e+8 
           4250      1.48364e+8 
           4270       1.4588e+8 
           4290      1.44589e+8 
           4310       1.3951e+8 
           4330      1.20828e+8 
           4350      1.04059e+8 
           4370      1.36118e+8 
           4390      1.32762e+8 
           4410        1.328e+8 
           4430       1.3101e+8 
           4450      1.30277e+8 
           4470      1.28143e+8 
           4490      1.24871e+8 
           4510      1.25126e+8 
           4530      1.22689e+8 
           4550      1.19702e+8 
           4570      1.20646e+8 
           4590      1.17666e+8 
           4610      1.18804e+8 
           4630      1.14677e+8 
           4650      1.15558e+8 
           4670      1.13501e+8 
           4690        1.121e+8 
           4710      1.08768e+8 
           4730      1.09522e+8 
           4750      1.08047e+8 
           4770      1.07198e+8 
           4790      1.05708e+8 
           4810      1.03572e+8 
           4830      1.01518e+8 
           4850      8.85556e+7 
           4870      7.28269e+7 
           4890      9.75456e+7 
           4910      9.73979e+7 
           4930       9.5625e+7 
           4950      9.53782e+7 
           4970      9.45922e+7 
           4990      9.29761e+7 
           5010       9.0113e+7 
           5030      8.98028e+7 
           5050      8.79141e+7 
           5070      8.82243e+7 
           5090      8.72169e+7 
           5110      8.58761e+7 
           5130      8.51492e+7 
           5150       8.3482e+7 
           5170      8.19635e+7 
           5190      8.10981e+7 
           5210      8.04766e+7 
           5230      7.90304e+7 
           5250      7.91074e+7 
           5270      7.68437e+7 
           5290      7.75629e+7 
           5310      7.56489e+7 
           5330      7.49085e+7 
           5350      7.50366e+7 
           5370      7.40554e+7 
           5390       7.3158e+7 
           5410      7.19398e+7 
           5430      7.11821e+7 
           5450      7.08509e+7 
           5470      6.98578e+7 
           5490      6.92522e+7 
           5510      6.83657e+7 
           5530      6.76849e+7 
           5550      6.70781e+7 
           5570      6.62924e+7 
           5590      6.56706e+7 
           5610      6.50883e+7 
           5630      6.43759e+7 
           5650       6.3292e+7 
           5670      6.27033e+7 
           5690      6.22365e+7 
           5710      6.15991e+7 
           5730       6.0969e+7 
           5750      6.02448e+7 
           5770      5.96344e+7 
           5790      5.88658e+7 
           5810      5.82703e+7 
           5830      5.76695e+7 
           5850      5.71052e+7 
           5870      5.62729e+7 
           5890      5.55797e+7 
           5910      5.52419e+7 
           5930      5.47274e+7 
           5950      5.37834e+7 
           5970      5.34765e+7 
           5990      5.27031e+7 
           6010      5.24093e+7 
           6030      5.19068e+7 
           6050      5.12574e+7 
           6070      5.07965e+7 
           6090      5.02684e+7 
           6110      4.97753e+7 
           6130      4.92365e+7 
           6150      4.79297e+7 
           6170      4.82063e+7 
           6190      4.77911e+7 
           6210      4.72991e+7 
           6230      4.67542e+7 
           6250      4.58306e+7 
           6270       4.5876e+7 
           6290      4.54161e+7 
           6310      4.48202e+7 
           6330      4.44792e+7 
           6350      4.33464e+7 
           6370      4.31656e+7 
           6390      4.31265e+7 
           6410      4.26277e+7 
           6430       4.2301e+7 
           6450      4.14405e+7 
           6470      4.15158e+7 
           6490      4.08847e+7 
           6510      4.04374e+7 
           6530      3.98067e+7 
           6550      3.64932e+7 
           6570      2.97282e+7 
           6590      3.82584e+7 
           6610      3.85385e+7 
           6630      3.82712e+7 
           6650      3.80056e+7 
           6670      3.75951e+7 
           6690      3.72528e+7 
           6710       3.6939e+7 
           6730      3.64761e+7 
           6750      3.62148e+7 
           6770      3.59157e+7 
           6790      3.55336e+7 
           6810      3.52261e+7 
           6830      3.48295e+7 
           6850      3.45494e+7 
           6870      3.42351e+7 
           6890      3.39295e+7 
           6910      3.35985e+7 
           6930       3.3248e+7 
           6950       3.2989e+7 
           6970      3.26775e+7 
           6990      3.24028e+7 
           7010      3.19345e+7 
           7030      3.18011e+7 
           7050      3.14542e+7 
           7070      3.11989e+7 
           7090      3.09534e+7 
           7110      3.05485e+7 
           7130      3.03462e+7 
           7150      3.00462e+7 
           7170      2.98158e+7 
           7190      2.95598e+7 
           7210       2.9304e+7 
           7230      2.89994e+7 
           7250      2.86992e+7 
           7270      2.85229e+7 
           7290      2.82461e+7 
           7310      2.79818e+7 
           7330      2.77648e+7 
           7350      2.75393e+7 
           7370      2.73075e+7 
           7390      2.70544e+7 
           7410       2.6796e+7 
           7430      2.64267e+7 
           7450      2.62721e+7 
           7470      2.59804e+7 
           7490      2.58311e+7 
           7510      2.56042e+7 
           7530      2.54458e+7 
           7550      2.52351e+7 
           7570       2.5008e+7 
           7590      2.47848e+7 
           7610      2.46026e+7 
           7630      2.43794e+7 
           7650      2.41452e+7 
           7670      2.39535e+7 
           7690      2.37462e+7 
           7710      2.35281e+7 
           7730      2.33586e+7 
           7750      2.31623e+7 
           7770      2.24498e+7 
           7790      2.27761e+7 
           7810      2.25972e+7 
           7830      2.23952e+7 
           7850      2.21254e+7 
           7870      2.18896e+7 
           7890      2.16244e+7 
           7910      2.16381e+7 
           7930      2.14769e+7 
           7950      2.11044e+7 
           7970      2.11385e+7 
           7990      2.05914e+7 
           8010      2.07894e+7 
           8030      2.06188e+7 
           8050      2.04449e+7 
           8070      2.02818e+7 
           8090      2.01195e+7 
           8110       1.9935e+7 
           8130      1.97966e+7 
           8150      1.96434e+7 
           8170      1.94887e+7 
           8190      1.92386e+7 
           8210      1.90963e+7 
           8230      1.88468e+7 
           8250      1.88933e+7 
           8270      1.88643e+7 
           8290      1.86731e+7 
           8310      1.85659e+7 
           8330      1.83547e+7 
           8350      1.82333e+7 
           8370      1.80258e+7 
           8390      1.78276e+7 
           8410       1.7589e+7 
           8430      1.75512e+7 
           8450      1.72108e+7 
           8470      1.67105e+7 
           8490      1.77117e+7 
           8510      1.61876e+7 
           8530      1.79037e+7 
           8550      1.54047e+7 
           8570       1.8135e+7 
           8590      1.66354e+7 
           8610      1.61156e+7 
           8630      1.83436e+7 
           8650      1.77372e+7 
           8670      1.43262e+7 
           8690      1.80173e+7 
           8710      1.85276e+7 
           8730      1.79272e+7 
           8750      1.39458e+7 
           8770      1.71469e+7 
           8790      1.80963e+7 
           8810      1.79963e+7 
           8830      1.76056e+7 
           8850      1.62544e+7 
           8870       1.3526e+7 
           8890      1.70532e+7 
           8910      1.72491e+7 
           8930      1.71356e+7 
           8950      1.71508e+7 
           8970      1.69601e+7 
           8990      1.65067e+7 
           9010      1.33066e+7 
           9030      1.46703e+7 
           9050      1.62692e+7 
           9070      1.61092e+7 
           9090      1.59855e+7 
           9110      1.60334e+7 
           9130      1.59772e+7 
           9150      1.59043e+7 
           9170      1.57078e+7 
