# Kurucz ODFNEW /NOVER (2003)
# teff = 22000 K (value for the effective temperature for the model. Temperatures are given in K)
# logg = 4 log(cm/s2) (value for Log(G) for the model.)
# meta = -0.5  (value for the Metallicity for the model.)
# lh = 1.25  (l/Hp where l is the  mixing length of the convective element and Hp is the pressure scale height)
# vtur = 2 km/s (Microturbulence velocity)
# alpha = 0  (Alpha)
#
# column 1: WAVELENGTH (ANGSTROM), Wavelength in Angstrom
# column 2: FLUX (ERG/CM2/S/A), Flux in erg/cm2/s/A
          147.2     2.02693e-17 
            151     1.06284e-16 
          155.2     6.07815e-16 
          158.8     2.52981e-15 
            162     8.56197e-15 
            166     3.69771e-14 
          170.3     1.65905e-13 
          173.4     4.69265e-13 
          176.8     1.41107e-12 
          180.2     4.08158e-12 
          181.7     6.44362e-12 
          186.1     2.36525e-11 
            191     9.41653e-11 
          193.9     2.06685e-10 
          198.4     6.70202e-10 
          201.8      1.57674e-9 
            205      3.44009e-9 
          210.5      1.24624e-8 
          216.2      4.42283e-8 
          219.8      9.52116e-8 
            223      1.84429e-7 
          226.8      3.94788e-7 
            230      7.11171e-6 
            234      1.72781e-5 
            240       4.6789e-5 
          246.5     0.000130028 
          252.4     0.000317595 
          256.8     0.000580179 
            260     0.000935025 
            264      0.00160408 
          268.5      0.00288294 
          273.5      0.00539694 
          278.5       0.0099163 
            284       0.0189476 
            290       0.0370328 
            296       0.0703057 
            301        0.117571 
            308        0.230281 
            318        0.603108 
            328         1.43266 
            338         3.29304 
            348         7.12776 
            357         14.1417 
            366         26.6334 
            375         47.5248 
            385         88.6004 
            395         159.244 
            405         277.359 
            414         447.998 
            422         667.152 
            430         982.858 
            441          1639.7 
            451         2549.86 
            460         3707.47 
            470         5554.58 
            480         8132.22 
            490         11753.5 
            500         16696.6 
            506          123850 
            512          540382 
            520          673891 
            530          916436 
            540      1.03563e+6 
            550      1.49172e+6 
            560       1.7831e+6 
            570      2.24971e+6 
            580      2.27919e+6 
            590      3.05496e+6 
            600      3.72941e+6 
            610      4.53199e+6 
            620       5.2058e+6 
            630      6.05605e+6 
            640      6.54917e+6 
            650      6.60984e+6 
            658      8.64296e+6 
            665      9.59575e+6 
            675      1.05497e+7 
            685      1.17188e+7 
            695      1.40248e+7 
            705      1.53572e+7 
            716      1.75175e+7 
            726      1.91382e+7 
            735      2.08266e+7 
            745      2.36406e+7 
            755      2.61009e+7 
            765      2.87048e+7 
            775      3.16468e+7 
            785      3.47033e+7 
            795       3.7253e+7 
            805      4.02149e+7 
            815      4.30217e+7 
            825      4.72051e+7 
            835        4.857e+7 
            845      5.31518e+7 
            855      5.67548e+7 
            865       6.1321e+7 
            875      6.63929e+7 
            885      7.18081e+7 
            895      7.64064e+7 
            905      7.87704e+7 
            915      1.21623e+8 
            925      7.27063e+8 
            935      2.37929e+9 
            945      7.14627e+9 
            955     1.09257e+10 
            965      1.4025e+10 
            975      2.70405e+9 
            985     1.51158e+10 
            995     1.44497e+10 
           1005     1.62728e+10 
           1015      1.4992e+10 
           1025      4.59014e+9 
           1035     1.10772e+10 
           1045      1.8182e+10 
           1055     1.70743e+10 
           1065     1.44537e+10 
           1075     1.64661e+10 
           1085     1.46612e+10 
           1095     1.63791e+10 
           1105      1.4839e+10 
           1115     1.45377e+10 
           1125     1.28495e+10 
           1135     1.51487e+10 
           1145     1.36755e+10 
           1155     1.42471e+10 
           1165     1.43522e+10 
           1175     1.03832e+10 
           1185     1.39362e+10 
           1195     1.20694e+10 
           1205      7.99628e+9 
           1215      3.62534e+9 
           1225      9.99348e+9 
           1235     1.25542e+10 
           1245     1.26849e+10 
           1255     1.23503e+10 
           1265      1.2072e+10 
           1275     1.24535e+10 
           1285     1.22469e+10 
           1295      9.31049e+9 
           1305      9.48181e+9 
           1315     1.16671e+10 
           1325     1.09869e+10 
           1335     1.02803e+10 
           1345     1.07469e+10 
           1355     1.06287e+10 
           1365        9.888e+9 
           1375      9.72836e+9 
           1385       9.7076e+9 
           1395      8.29084e+9 
           1405      8.66581e+9 
           1415      8.83954e+9 
           1425      8.76081e+9 
           1435       8.8358e+9 
           1442      8.99046e+9 
           1447      8.80123e+9 
           1455      8.61396e+9 
           1465       8.1285e+9 
           1475      8.09727e+9 
           1485      7.91068e+9 
           1495      7.80318e+9 
           1505       7.2762e+9 
           1512       6.6174e+9 
           1517      6.81662e+9 
           1525      6.95588e+9 
           1535      6.22823e+9 
           1545      6.30822e+9 
           1555      6.00393e+9 
           1565      6.25492e+9 
           1575      6.49634e+9 
           1585      6.41402e+9 
           1595      6.41841e+9 
           1605      6.32244e+9 
           1615      6.21925e+9 
           1625      6.10186e+9 
           1635      6.29267e+9 
           1645      6.20122e+9 
           1655      6.03587e+9 
           1665      6.19202e+9 
           1672      5.96617e+9 
           1677      6.17767e+9 
           1685      6.08836e+9 
           1695      5.82555e+9 
           1705      5.59348e+9 
           1715      5.34925e+9 
           1725      5.27298e+9 
           1735      5.40798e+9 
           1745       5.2613e+9 
           1755      5.32701e+9 
           1765      5.07502e+9 
           1775      4.97268e+9 
           1785      4.98475e+9 
           1795       5.0878e+9 
           1805      5.07598e+9 
           1815       4.6706e+9 
           1825      4.79963e+9 
           1835      4.64598e+9 
           1845       4.2934e+9 
           1855      4.23125e+9 
           1865      4.29095e+9 
           1875      4.46958e+9 
           1885      4.04643e+9 
           1895      3.78951e+9 
           1905       4.0515e+9 
           1915       3.8475e+9 
           1925       3.7082e+9 
           1935      3.85289e+9 
           1945      3.91445e+9 
           1955      3.59882e+9 
           1967      3.82758e+9 
           1976      3.96366e+9 
           1984      3.69316e+9 
           1995      3.60929e+9 
           2005      3.68996e+9 
           2015       3.6511e+9 
           2025      3.74724e+9 
           2035      3.47444e+9 
           2045      3.49621e+9 
           2055      3.39991e+9 
           2065      3.42899e+9 
           2074      3.55055e+9 
           2078      3.29645e+9 
           2085      3.38892e+9 
           2095       3.2242e+9 
           2105      3.29609e+9 
           2115      3.27813e+9 
           2125      3.32093e+9 
           2135      3.24742e+9 
           2145      3.10495e+9 
           2155      3.19569e+9 
           2165      3.16206e+9 
           2175      3.11537e+9 
           2185      3.04786e+9 
           2195      3.06238e+9 
           2205      3.01731e+9 
           2215      2.97139e+9 
           2225       2.8987e+9 
           2235      2.88187e+9 
           2245       2.8792e+9 
           2255      2.79882e+9 
           2265       2.8172e+9 
           2275      2.77902e+9 
           2285      2.77322e+9 
           2295      2.65676e+9 
           2305      2.68517e+9 
           2315      2.61809e+9 
           2325      2.58969e+9 
           2335      2.51255e+9 
           2345      2.48877e+9 
           2355      2.50029e+9 
           2365      2.45029e+9 
           2375      2.42536e+9 
           2385       2.3897e+9 
           2395      2.38463e+9 
           2405      2.33625e+9 
           2415      2.31074e+9 
           2425      2.31651e+9 
           2435      2.25654e+9 
           2445      2.25154e+9 
           2455       2.2468e+9 
           2465      2.20071e+9 
           2475        2.177e+9 
           2485      2.15823e+9 
           2495      2.06931e+9 
           2505      2.11046e+9 
           2513      2.02725e+9 
           2518      2.07838e+9 
           2525      2.04294e+9 
           2535      2.00974e+9 
           2545      1.97118e+9 
           2555      1.99185e+9 
           2565      1.95968e+9 
           2575      1.96017e+9 
           2585      1.94098e+9 
           2595      1.92045e+9 
           2605      1.90735e+9 
           2615      1.88711e+9 
           2625      1.86768e+9 
           2635      1.84669e+9 
           2645      1.84595e+9 
           2655       1.8287e+9 
           2665      1.78694e+9 
           2675      1.78145e+9 
           2685      1.77338e+9 
           2695       1.7286e+9 
           2705      1.72398e+9 
           2715      1.70512e+9 
           2725      1.67619e+9 
           2735      1.67745e+9 
           2745      1.62491e+9 
           2755      1.61988e+9 
           2765      1.60503e+9 
           2775      1.61212e+9 
           2785      1.58935e+9 
           2795       1.5371e+9 
           2805      1.54948e+9 
           2815      1.54738e+9 
           2825      1.51733e+9 
           2835       1.4772e+9 
           2845      1.49095e+9 
           2855      1.47747e+9 
           2865      1.47011e+9 
           2875      1.45284e+9 
           2885      1.43939e+9 
           2895      1.42353e+9 
           2910      1.40129e+9 
           2930       1.3705e+9 
           2950      1.33501e+9 
           2970      1.31996e+9 
           2990       1.2898e+9 
           3010       1.2639e+9 
           3030      1.24645e+9 
           3050      1.22198e+9 
           3070      1.19875e+9 
           3090      1.16999e+9 
           3110      1.15203e+9 
           3130      1.13116e+9 
           3150      1.11001e+9 
           3170       1.0869e+9 
           3190      1.05873e+9 
           3210      1.04806e+9 
           3230      1.02823e+9 
           3250      1.00983e+9 
           3270       9.9209e+8 
           3290      9.72617e+8 
           3310      9.56979e+8 
           3330      9.39369e+8 
           3350      9.20801e+8 
           3370      9.05791e+8 
           3390      8.90152e+8 
           3410      8.74492e+8 
           3430      8.54781e+8 
           3450      8.36797e+8 
           3470       8.2455e+8 
           3490      8.10116e+8 
           3510      7.98862e+8 
           3530      7.87205e+8 
           3550      7.74055e+8 
           3570      7.64727e+8 
           3590      7.46175e+8 
           3610      7.34345e+8 
           3630      7.22101e+8 
           3640      7.21011e+8 
           3650      7.08299e+8 
           3670      6.99957e+8 
           3690      6.84145e+8 
           3710      6.61927e+8 
           3730      6.39142e+8 
           3750      6.84395e+8 
           3770      6.89637e+8 
           3790        7.304e+8 
           3810      7.63653e+8 
           3830      6.63602e+8 
           3850      7.86525e+8 
           3870      7.91145e+8 
           3890        6.286e+8 
           3910      7.82803e+8 
           3930      7.63781e+8 
           3950      7.57008e+8 
           3970      5.84901e+8 
           3990      7.26099e+8 
           4010      7.23817e+8 
           4030      6.80511e+8 
           4050      7.06719e+8 
           4070      6.86691e+8 
           4090      6.33148e+8 
           4110      5.51888e+8 
           4130      6.45371e+8 
           4150      6.42163e+8 
           4170      6.37599e+8 
           4190      6.30325e+8 
           4210      6.21672e+8 
           4230      6.10375e+8 
           4250      5.99138e+8 
           4270      5.83683e+8 
           4290      5.78908e+8 
           4310      5.65476e+8 
           4330      5.10734e+8 
           4350      4.64638e+8 
           4370      5.36996e+8 
           4390      5.20268e+8 
           4410      5.25904e+8 
           4430      5.16712e+8 
           4450      5.11545e+8 
           4470      4.81374e+8 
           4490      4.93408e+8 
           4510      4.89153e+8 
           4530      4.80768e+8 
           4550      4.73494e+8 
           4570      4.66165e+8 
           4590      4.59447e+8 
           4610      4.51676e+8 
           4630      4.44549e+8 
           4650      4.36255e+8 
           4670      4.32077e+8 
           4690      4.26756e+8 
           4710       4.1295e+8 
           4730      4.11419e+8 
           4750       4.0514e+8 
           4770      4.02544e+8 
           4790       3.9625e+8 
           4810      3.88973e+8 
           4830       3.8143e+8 
           4850      3.51288e+8 
           4870      3.12764e+8 
           4890      3.64534e+8 
           4910      3.61883e+8 
           4930      3.48583e+8 
           4950      3.52752e+8 
           4970      3.48363e+8 
           4990      3.43201e+8 
           5010      3.31836e+8 
           5030      3.33371e+8 
           5050      3.25226e+8 
           5070      3.24512e+8 
           5090      3.19974e+8 
           5110      3.15325e+8 
           5130      3.10094e+8 
           5150      3.05943e+8 
           5170      3.02834e+8 
           5190      2.98742e+8 
           5210      2.93719e+8 
           5230      2.90719e+8 
           5250      2.86827e+8 
           5270      2.82891e+8 
           5290      2.79315e+8 
           5310      2.75505e+8 
           5330      2.71757e+8 
           5350      2.67834e+8 
           5370      2.64876e+8 
           5390      2.61357e+8 
           5410      2.57961e+8 
           5430      2.54212e+8 
           5450      2.51056e+8 
           5470      2.47813e+8 
           5490      2.44773e+8 
           5510      2.41659e+8 
           5530       2.3851e+8 
           5550      2.35584e+8 
           5570       2.3251e+8 
           5590      2.29644e+8 
           5610      2.26597e+8 
           5630      2.23932e+8 
           5650      2.20379e+8 
           5670      2.17503e+8 
           5690      2.14813e+8 
           5710      2.12756e+8 
           5730       2.1016e+8 
           5750      2.07459e+8 
           5770      2.05129e+8 
           5790       2.0258e+8 
           5810      2.00094e+8 
           5830      1.97582e+8 
           5850      1.95242e+8 
           5870      1.86982e+8 
           5890      1.89548e+8 
           5910      1.88138e+8 
           5930      1.85821e+8 
           5950      1.83424e+8 
           5970      1.81574e+8 
           5990      1.79219e+8 
           6010      1.77277e+8 
           6030      1.75129e+8 
           6050      1.73098e+8 
           6070      1.71091e+8 
           6090      1.69054e+8 
           6110      1.67112e+8 
           6130      1.65171e+8 
           6150      1.62943e+8 
           6170      1.61285e+8 
           6190      1.59487e+8 
           6210      1.57661e+8 
           6230      1.55835e+8 
           6250      1.53932e+8 
           6270      1.52262e+8 
           6290      1.50543e+8 
           6310      1.48776e+8 
           6330       1.4717e+8 
           6350      1.45123e+8 
           6370      1.43666e+8 
           6390      1.42214e+8 
           6410      1.40613e+8 
           6430      1.39111e+8 
           6450      1.37525e+8 
           6470      1.35866e+8 
           6490      1.34431e+8 
           6510      1.32886e+8 
           6530      1.30872e+8 
           6550      1.24823e+8 
           6570      1.10379e+8 
           6590      1.25264e+8 
           6610      1.25585e+8 
           6630      1.24528e+8 
           6650      1.23269e+8 
           6670      1.20719e+8 
           6690       1.1946e+8 
           6710      1.19351e+8 
           6730      1.18035e+8 
           6750      1.16833e+8 
           6770      1.15584e+8 
           6790       1.1403e+8 
           6810      1.13093e+8 
           6830      1.11923e+8 
           6850      1.10765e+8 
           6870      1.09602e+8 
           6890      1.08451e+8 
           6910      1.07311e+8 
           6930      1.06175e+8 
           6950      1.05104e+8 
           6970      1.04021e+8 
           6990      1.02933e+8 
           7010      1.01872e+8 
           7030      1.00828e+8 
           7050      9.97714e+7 
           7070      9.71653e+7 
           7090       9.7772e+7 
           7110      9.67309e+7 
           7130      9.57591e+7 
           7150      9.48115e+7 
           7170      9.38436e+7 
           7190      9.29215e+7 
           7210      9.19936e+7 
           7230      9.02313e+7 
           7250      9.01355e+7 
           7270      8.92554e+7 
           7290      8.76463e+7 
           7310      8.74775e+7 
           7330      8.66292e+7 
           7350      8.57749e+7 
           7370      8.49354e+7 
           7390      8.40969e+7 
           7410      8.32731e+7 
           7430      8.24432e+7 
           7450      8.16618e+7 
           7470      8.08267e+7 
           7490        8.008e+7 
           7510        7.928e+7 
           7530      7.85339e+7 
           7550      7.77945e+7 
           7570      7.70487e+7 
           7590      7.63097e+7 
           7610      7.55773e+7 
           7630      7.48646e+7 
           7650      7.41518e+7 
           7670      7.34454e+7 
           7690      7.27517e+7 
           7710      7.20642e+7 
           7730      7.13828e+7 
           7750      7.07138e+7 
           7770      6.98385e+7 
           7790      6.93997e+7 
           7810      6.86988e+7 
           7830      6.81148e+7 
           7850      6.74992e+7 
           7870      6.68829e+7 
           7890      6.61751e+7 
           7910      6.56783e+7 
           7930      6.50778e+7 
           7950      6.43335e+7 
           7970      6.37205e+7 
           7990      6.31009e+7 
           8010      6.25631e+7 
           8030      6.19947e+7 
           8050      6.14429e+7 
           8070      6.09536e+7 
           8090      6.02727e+7 
           8110      5.98097e+7 
           8130      5.93391e+7 
           8150      5.87193e+7 
           8170      5.83023e+7 
           8190      5.76922e+7 
           8210       5.7009e+7 
           8230      5.66433e+7 
           8250      5.62084e+7 
           8270      5.54026e+7 
           8290       5.5163e+7 
           8310      5.47014e+7 
           8330      5.42078e+7 
           8350       5.3454e+7 
           8370      5.31483e+7 
           8390      5.27785e+7 
           8410      5.23036e+7 
           8430      5.17737e+7 
           8450      5.09168e+7 
           8470      5.07659e+7 
           8490      5.03368e+7 
           8510       4.9688e+7 
           8530      4.95717e+7 
           8550      4.81872e+7 
           8570      4.93952e+7 
           8590      4.71411e+7 
