# Kurucz ODFNEW /NOVER (2003)
# teff = 30000 K (value for the effective temperature for the model. Temperatures are given in K)
# logg = 5 log(cm/s2) (value for Log(G) for the model.)
# meta = -1.5  (value for the Metallicity for the model.)
# lh = 1.25  (l/Hp where l is the  mixing length of the convective element and Hp is the pressure scale height)
# vtur = 2 km/s (Microturbulence velocity)
# alpha = 0.4  (Alpha)
#
# column 1: WAVELENGTH (ANGSTROM), Wavelength in Angstrom
# column 2: FLUX (ERG/CM2/S/A), Flux in erg/cm2/s/A
          147.2      7.54455e-9 
            151      2.50762e-8 
          155.2      8.84508e-8 
          158.8      2.47454e-7 
            162      5.94967e-7 
            166      1.69895e-6 
          170.3      4.96779e-6 
          173.4      1.04201e-5 
          176.8      2.27822e-5 
          180.2      4.83534e-5 
          181.7      6.67857e-5 
          186.1     0.000167212 
            191     0.000441736 
          193.9     0.000766862 
          198.4      0.00174676 
          201.8       0.0031741 
            205      0.00546641 
          210.5       0.0133874 
          216.2       0.0322347 
          219.8       0.0548133 
            223       0.0865745 
          226.8        0.146537 
            230          17.947 
            234         47.5033 
            240         90.0423 
          246.5         174.228 
          252.4         311.214 
          256.8         420.299 
            260          619.43 
            264         844.312 
          268.5         1252.22 
          273.5         1870.95 
          278.5         2736.02 
            284          4243.3 
            290         6455.47 
            296         9646.98 
            301         13092.7 
            308         18967.5 
            318         37891.3 
            328         64403.7 
            338          110215 
            348          178525 
            357          285530 
            366          432425 
            375          606812 
            385          902041 
            395      1.29497e+6 
            405      1.80669e+6 
            414      2.43715e+6 
            422      3.05472e+6 
            430      3.85857e+6 
            441      5.23114e+6 
            451      6.85852e+6 
            460      8.48941e+6 
            470      1.08298e+7 
            480       1.3531e+7 
            490        1.677e+7 
            500      2.07277e+7 
            506      9.68765e+7 
            512      4.12235e+8 
            520      4.32514e+8 
            530      4.90392e+8 
            540      4.64685e+8 
            550      5.61333e+8 
            560      5.96941e+8 
            570        6.448e+8 
            580      6.16038e+8 
            590       7.0663e+8 
            600      7.37929e+8 
            610      7.88591e+8 
            620      8.28481e+8 
            630      8.75447e+8 
            640      8.83245e+8 
            650      9.52211e+8 
            658      9.84451e+8 
            665      1.01776e+9 
            675       1.0357e+9 
            685      1.05361e+9 
            695      1.16663e+9 
            705      1.17334e+9 
            716       1.2616e+9 
            726      1.29428e+9 
            735       1.3482e+9 
            745      1.41189e+9 
            755       1.4588e+9 
            765      1.51014e+9 
            775      1.57008e+9 
            785      1.63573e+9 
            795      1.67125e+9 
            805      1.72365e+9 
            815      1.76334e+9 
            825      1.83188e+9 
            835      1.78945e+9 
            845       1.9145e+9 
            855      1.95748e+9 
            865      2.01938e+9 
            875      2.07839e+9 
            885      2.13654e+9 
            895      2.18717e+9 
            905      2.21045e+9 
            915      2.43845e+9 
            925      9.39506e+9 
            935      2.0345e+10 
            945     4.70962e+10 
            955     6.09071e+10 
            965     8.15092e+10 
            975     3.47009e+10 
            985     8.72489e+10 
            995     8.03174e+10 
           1005     8.48366e+10 
           1015     7.81342e+10 
           1025      3.1255e+10 
           1035     7.07899e+10 
           1045     8.26233e+10 
           1055     8.03164e+10 
           1065     7.29096e+10 
           1075     7.43076e+10 
           1085     6.72191e+10 
           1095     7.23657e+10 
           1105     6.89484e+10 
           1115     6.72899e+10 
           1125     6.12858e+10 
           1135     6.45797e+10 
           1145     6.01664e+10 
           1155     6.04902e+10 
           1165     5.94229e+10 
           1175     4.99377e+10 
           1185      5.5556e+10 
           1195     5.26172e+10 
           1205     4.59929e+10 
           1215     2.09226e+10 
           1225     4.52213e+10 
           1235     4.94344e+10 
           1245     4.82157e+10 
           1255     4.77518e+10 
           1265     4.66702e+10 
           1275     4.60893e+10 
           1285     4.50211e+10 
           1295     4.11588e+10 
           1305     4.13799e+10 
           1315     4.18836e+10 
           1325     4.03311e+10 
           1335     3.89978e+10 
           1345     3.84804e+10 
           1355     3.82223e+10 
           1365     3.66109e+10 
           1375     3.61102e+10 
           1385     3.53923e+10 
           1395     3.18416e+10 
           1405     3.18708e+10 
           1415     3.27842e+10 
           1425     3.18192e+10 
           1435     3.14816e+10 
           1442     3.13306e+10 
           1447     3.09094e+10 
           1455     3.02732e+10 
           1465     2.95507e+10 
           1475     2.89176e+10 
           1485      2.8374e+10 
           1495     2.77024e+10 
           1505     2.66003e+10 
           1512     2.63661e+10 
           1517     2.61615e+10 
           1525     2.56626e+10 
           1535     2.42788e+10 
           1545     2.36609e+10 
           1555     2.30211e+10 
           1565     2.31324e+10 
           1575     2.29869e+10 
           1585     2.26272e+10 
           1595     2.22763e+10 
           1605     2.14073e+10 
           1615     2.08729e+10 
           1625     2.06838e+10 
           1635      2.0378e+10 
           1645     1.95254e+10 
           1655     1.98404e+10 
           1665     1.94682e+10 
           1672     1.91021e+10 
           1677     1.93192e+10 
           1685     1.89385e+10 
           1695     1.84941e+10 
           1705      1.8051e+10 
           1715     1.75657e+10 
           1725     1.71993e+10 
           1735     1.71418e+10 
           1745     1.68036e+10 
           1755     1.65307e+10 
           1765     1.60682e+10 
           1775     1.58063e+10 
           1785      1.5586e+10 
           1795     1.54152e+10 
           1805     1.52101e+10 
           1815     1.48291e+10 
           1825     1.46049e+10 
           1835     1.43555e+10 
           1845     1.37587e+10 
           1855     1.34684e+10 
           1865     1.33905e+10 
           1875     1.33016e+10 
           1885     1.27505e+10 
           1895     1.23383e+10 
           1905       1.248e+10 
           1915     1.20624e+10 
           1925     1.17697e+10 
           1935     1.18013e+10 
           1945     1.17559e+10 
           1955     1.12111e+10 
           1967      1.1287e+10 
           1976     1.12925e+10 
           1984     1.09432e+10 
           1995      1.0607e+10 
           2005     1.06646e+10 
           2015     1.05757e+10 
           2025     1.04651e+10 
           2035     1.01823e+10 
           2045     1.00208e+10 
           2055      9.37135e+9 
           2065      9.19245e+9 
           2074      9.25473e+9 
           2078      9.05511e+9 
           2085      9.06548e+9 
           2095      8.97056e+9 
           2105      9.11083e+9 
           2115      9.06868e+9 
           2125        8.961e+9 
           2135      8.81692e+9 
           2145       8.6563e+9 
           2155      8.55505e+9 
           2165      8.41593e+9 
           2175      8.30288e+9 
           2185      8.16629e+9 
           2195      8.07485e+9 
           2205      7.95451e+9 
           2215      7.81298e+9 
           2225      7.71551e+9 
           2235      7.59609e+9 
           2245      7.49568e+9 
           2255      7.35371e+9 
           2265      7.27908e+9 
           2275      7.17461e+9 
           2285      7.06505e+9 
           2295      6.85177e+9 
           2305      6.83931e+9 
           2315      6.76362e+9 
           2325      6.67009e+9 
           2335      6.56817e+9 
           2345      6.48603e+9 
           2355      6.39608e+9 
           2365      6.30762e+9 
           2375      6.21501e+9 
           2385      6.10432e+9 
           2395       6.0396e+9 
           2405      5.96186e+9 
           2415      5.87661e+9 
           2425       5.8007e+9 
           2435      5.71293e+9 
           2445      5.64039e+9 
           2455       5.5661e+9 
           2465      5.49319e+9 
           2475      5.41752e+9 
           2485      5.34534e+9 
           2495      5.06964e+9 
           2505      5.19728e+9 
           2513      5.07703e+9 
           2518      5.09397e+9 
           2525      5.06647e+9 
           2535      5.00149e+9 
           2545      4.90369e+9 
           2555      4.85851e+9 
           2565      4.80358e+9 
           2575      4.74538e+9 
           2585      4.68517e+9 
           2595      4.62502e+9 
           2605      4.58935e+9 
           2615       4.5303e+9 
           2625      4.47311e+9 
           2635      4.41469e+9 
           2645      4.35644e+9 
           2655      4.29771e+9 
           2665      4.23221e+9 
           2675      4.17341e+9 
           2685      4.14551e+9 
           2695      4.05931e+9 
           2705      4.03893e+9 
           2715      3.99047e+9 
           2725      3.90857e+9 
           2735      3.88135e+9 
           2745      3.84393e+9 
           2755      3.79825e+9 
           2765      3.71825e+9 
           2775      3.70916e+9 
           2785      3.66266e+9 
           2795      3.58003e+9 
           2805       3.5634e+9 
           2815       3.5339e+9 
           2825      3.45256e+9 
           2835      3.41569e+9 
           2845      3.40954e+9 
           2855      3.36721e+9 
           2865      3.32791e+9 
           2875      3.28913e+9 
           2885      3.25156e+9 
           2895      3.21327e+9 
           2910      3.15563e+9 
           2930      3.08391e+9 
           2950        2.987e+9 
           2970      2.94549e+9 
           2990      2.87832e+9 
           3010      2.81139e+9 
           3030      2.75072e+9 
           3050      2.69107e+9 
           3070      2.63266e+9 
           3090      2.56531e+9 
           3110      2.51824e+9 
           3130      2.46382e+9 
           3150      2.41133e+9 
           3170      2.35993e+9 
           3190      2.28768e+9 
           3210       2.2586e+9 
           3230      2.21176e+9 
           3250      2.16586e+9 
           3270      2.12289e+9 
           3290      2.07603e+9 
           3310      2.03664e+9 
           3330      1.99452e+9 
           3350      1.95063e+9 
           3370      1.91441e+9 
           3390      1.87658e+9 
           3410      1.83915e+9 
           3430      1.79487e+9 
           3450      1.75282e+9 
           3470        1.723e+9 
           3490      1.68927e+9 
           3510      1.65839e+9 
           3530      1.62792e+9 
           3550       1.5974e+9 
           3570      1.57749e+9 
           3590      1.53345e+9 
           3610      1.51217e+9 
           3630      1.47648e+9 
           3640      1.47617e+9 
           3650      1.44739e+9 
           3670      1.42696e+9 
           3690      1.40171e+9 
           3710       1.3559e+9 
           3730      1.31403e+9 
           3750       1.2929e+9 
           3770      1.25186e+9 
           3790      1.28904e+9 
           3810      1.33471e+9 
           3830      1.17116e+9 
           3850      1.36614e+9 
           3870      1.39077e+9 
           3890      1.09567e+9 
           3910       1.3649e+9 
           3930      1.35972e+9 
           3950      1.32013e+9 
           3970      1.01568e+9 
           3990      1.26199e+9 
           4010      1.26857e+9 
           4030      1.18526e+9 
           4050       1.2413e+9 
           4070      1.20425e+9 
           4090      1.08588e+9 
           4110      9.50627e+8 
           4130      1.12854e+9 
           4150      1.12368e+9 
           4170      1.11741e+9 
           4190      1.09986e+9 
           4210      1.08249e+9 
           4230      1.06391e+9 
           4250      1.04364e+9 
           4270      1.02213e+9 
           4290      1.00439e+9 
           4310      9.77755e+8 
           4330      8.67814e+8 
           4350      7.92182e+8 
           4370      9.25958e+8 
           4390      8.93359e+8 
           4410      9.07629e+8 
           4430      8.93424e+8 
           4450      8.80979e+8 
           4470      8.19472e+8 
           4490      8.50982e+8 
           4510      8.40117e+8 
           4530      8.26584e+8 
           4550      8.12054e+8 
           4570      7.98919e+8 
           4590       7.8591e+8 
           4610      7.73912e+8 
           4630      7.61951e+8 
           4650      7.44712e+8 
           4670      7.37121e+8 
           4690      7.24425e+8 
           4710      7.03444e+8 
           4730      7.04344e+8 
           4750      6.92998e+8 
           4770      6.83176e+8 
           4790      6.72081e+8 
           4810       6.5942e+8 
           4830      6.43102e+8 
           4850      5.82972e+8 
           4870      5.21581e+8 
           4890       6.1108e+8 
           4910      6.09112e+8 
           4930      5.84743e+8 
           4950      5.94495e+8 
           4970      5.86639e+8 
           4990      5.77922e+8 
           5010      5.61144e+8 
           5030      5.60935e+8 
           5050      5.49292e+8 
           5070      5.44791e+8 
           5090      5.36795e+8 
           5110      5.29038e+8 
           5130      5.21356e+8 
           5150      5.13849e+8 
           5170      5.06484e+8 
           5190      4.99344e+8 
           5210      4.92186e+8 
           5230      4.85317e+8 
           5250      4.78455e+8 
           5270      4.71724e+8 
           5290      4.65121e+8 
           5310      4.58618e+8 
           5330      4.52239e+8 
           5350      4.45955e+8 
           5370      4.39831e+8 
           5390      4.33733e+8 
           5410       4.2761e+8 
           5430      4.21961e+8 
           5450      4.16194e+8 
           5470      4.10562e+8 
           5490      4.05027e+8 
           5510      3.99573e+8 
           5530      3.94199e+8 
           5550      3.88929e+8 
           5570      3.83725e+8 
           5590      3.78633e+8 
           5610      3.73604e+8 
           5630      3.68672e+8 
           5650      3.63777e+8 
           5670      3.58931e+8 
           5690      3.54108e+8 
           5710      3.49656e+8 
           5730      3.45154e+8 
           5750      3.40512e+8 
           5770      3.36311e+8 
           5790       3.3198e+8 
           5810      3.27723e+8 
           5830      3.23506e+8 
           5850      3.19393e+8 
           5870      3.04264e+8 
           5890      3.10302e+8 
           5910      3.07386e+8 
           5930      3.03506e+8 
           5950      2.99681e+8 
           5970      2.96006e+8 
           5990       2.9229e+8 
           6010      2.88669e+8 
           6030      2.85089e+8 
           6050      2.81591e+8 
           6070      2.78123e+8 
           6090      2.74715e+8 
           6110      2.71355e+8 
           6130      2.68053e+8 
           6150      2.64759e+8 
           6170      2.61571e+8 
           6190      2.58428e+8 
           6210       2.5532e+8 
           6230      2.52247e+8 
           6250      2.49227e+8 
           6270       2.4626e+8 
           6290      2.43325e+8 
           6310      2.40432e+8 
           6330      2.37599e+8 
           6350      2.34769e+8 
           6370      2.32034e+8 
           6390       2.2932e+8 
           6410      2.26626e+8 
           6430      2.23997e+8 
           6450      2.21397e+8 
           6470      2.18797e+8 
           6490      2.16252e+8 
           6510      2.13219e+8 
           6530        2.096e+8 
           6550       1.9796e+8 
           6570      1.75566e+8 
           6590      2.00656e+8 
           6610      2.01013e+8 
           6630      1.99425e+8 
           6650       1.9741e+8 
           6670      1.92739e+8 
           6690      1.90654e+8 
           6710      1.90866e+8 
           6730      1.88694e+8 
           6750      1.86643e+8 
           6770      1.84572e+8 
           6790      1.82473e+8 
           6810      1.80509e+8 
           6830      1.78509e+8 
           6850       1.7656e+8 
           6870      1.74632e+8 
           6890      1.72707e+8 
           6910      1.70809e+8 
           6930      1.68985e+8 
           6950      1.67164e+8 
           6970      1.65353e+8 
           6990      1.63575e+8 
           7010      1.61815e+8 
           7030      1.60088e+8 
           7050      1.58378e+8 
           7070      1.54054e+8 
           7090      1.55022e+8 
           7110      1.53376e+8 
           7130      1.51761e+8 
           7150      1.50161e+8 
           7170       1.4857e+8 
           7190       1.4703e+8 
           7210      1.45491e+8 
           7230      1.43743e+8 
           7250      1.42449e+8 
           7270      1.40997e+8 
           7290      1.38331e+8 
           7310      1.38083e+8 
           7330      1.36679e+8 
           7350      1.35273e+8 
           7370      1.33888e+8 
           7390      1.32523e+8 
           7410       1.3117e+8 
           7430      1.29837e+8 
           7450      1.28537e+8 
           7470      1.27195e+8 
           7490      1.25959e+8 
           7510      1.24654e+8 
           7530      1.23435e+8 
           7550      1.22207e+8 
           7570      1.20984e+8 
           7590      1.19778e+8 
           7610      1.18577e+8 
           7630      1.17412e+8 
           7650      1.16252e+8 
           7670      1.15109e+8 
           7690      1.13975e+8 
           7710      1.12859e+8 
           7730      1.11752e+8 
           7750      1.10662e+8 
           7770      1.09556e+8 
           7790      1.08523e+8 
           7810      1.07418e+8 
           7830      1.06428e+8 
           7850      1.05495e+8 
           7870       1.0446e+8 
           7890      1.03405e+8 
           7910      1.02491e+8 
           7930      1.01508e+8 
           7950      1.00527e+8 
           7970      9.94891e+7 
           7990      9.86022e+7 
           8010      9.76054e+7 
           8030      9.66174e+7 
           8050      9.57019e+7 
           8070      9.48232e+7 
           8090      9.38023e+7 
           8110      9.29794e+7 
           8130      9.22033e+7 
           8150      9.12862e+7 
           8170      9.05181e+7 
           8190      8.95543e+7 
           8210       8.8554e+7 
           8230      8.79127e+7 
           8250      8.71383e+7 
           8270      8.59792e+7 
           8290      8.55265e+7 
           8310       8.4788e+7 
           8330      8.39633e+7 
           8350      8.28645e+7 
           8370      8.23561e+7 
           8390      8.17284e+7 
           8410      8.09886e+7 
           8430      8.02178e+7 
           8450      7.89996e+7 
           8470      7.88003e+7 
           8490      7.79329e+7 
           8510      7.73694e+7 
           8530      7.64996e+7 
           8550       7.5771e+7 
           8570      7.54486e+7 
