# Kurucz ODFNEW /NOVER (2003)
# teff = 33000 K (value for the effective temperature for the model. Temperatures are given in K)
# logg = 4 log(cm/s2) (value for Log(G) for the model.)
# meta = 0  (value for the Metallicity for the model.)
# lh = 1.25  (l/Hp where l is the  mixing length of the convective element and Hp is the pressure scale height)
# vtur = 2 km/s (Microturbulence velocity)
# alpha = 0  (Alpha)
#
# column 1: WAVELENGTH (ANGSTROM), Wavelength in Angstrom
# column 2: FLUX (ERG/CM2/S/A), Flux in erg/cm2/s/A
          147.2      4.93553e-6 
            151      1.31099e-5 
          155.2      3.64654e-5 
          158.8      8.40198e-5 
            162     0.000171168 
            166     0.000401748 
          170.3     0.000960266 
          173.4      0.00175876 
          176.8      0.00334122 
          180.2      0.00618078 
          181.7      0.00808565 
          186.1       0.0171465 
            191       0.0381304 
          193.9       0.0600337 
          198.4        0.118763 
          201.8        0.194594 
            205        0.305355 
          210.5        0.643378 
          216.2         1.33323 
          219.8         2.09037 
            223         3.06867 
          226.8         4.78882 
            230         4130.42 
            234         9229.03 
            240           14009 
          246.5         22715.8 
          252.4         36453.1 
          256.8         48729.1 
            260         89138.9 
            264          170635 
          268.5          255864 
          273.5          335904 
          278.5          392154 
            284          785631 
            290      1.09574e+6 
            296       1.3724e+6 
            301      2.63762e+6 
            308      5.62966e+6 
            318      1.32629e+7 
            328      1.83312e+7 
            338      3.34837e+7 
            348      5.04166e+7 
            357      9.47432e+7 
            366      1.86821e+8 
            375      2.09198e+8 
            385       2.7579e+8 
            395      4.41475e+8 
            405      5.38848e+8 
            414      6.31971e+8 
            422      6.95901e+8 
            430      7.48202e+8 
            441       9.0697e+8 
            451      9.78992e+8 
            460      9.91318e+8 
            470      1.14323e+9 
            480      1.32529e+9 
            490      1.34509e+9 
            500       1.6338e+9 
            506      2.75989e+9 
            512     1.45277e+10 
            520     1.37012e+10 
            530     1.21181e+10 
            540     1.10832e+10 
            550      1.2287e+10 
            560     1.62152e+10 
            570     1.76375e+10 
            580     1.62809e+10 
            590     1.69653e+10 
            600     1.30568e+10 
            610     1.58913e+10 
            620      1.9401e+10 
            630     1.86239e+10 
            640     1.90011e+10 
            650      1.8182e+10 
            658     1.49182e+10 
            665      1.8038e+10 
            675     2.04279e+10 
            685     1.57436e+10 
            695      2.0673e+10 
            705     1.60818e+10 
            716     2.19355e+10 
            726     2.14433e+10 
            735     2.15365e+10 
            745     1.99488e+10 
            755     1.99658e+10 
            765     1.98232e+10 
            775     2.07117e+10 
            785     2.08813e+10 
            795     2.13017e+10 
            805      2.0281e+10 
            815     2.01369e+10 
            825       2.114e+10 
            835      1.7077e+10 
            845     2.00947e+10 
            855     1.98237e+10 
            865     2.03841e+10 
            875     2.03888e+10 
            885     2.05444e+10 
            895     2.05605e+10 
            905     1.99003e+10 
            915     2.09422e+10 
            925     5.21928e+10 
            935     7.62875e+10 
            945     9.01468e+10 
            955     9.57494e+10 
            965     1.03881e+11 
            975     5.26876e+10 
            985     8.54822e+10 
            995     7.81903e+10 
           1005     8.03122e+10 
           1015     8.38424e+10 
           1025      7.2099e+10 
           1035     8.21351e+10 
           1045      9.0789e+10 
           1055     8.68015e+10 
           1065     7.78685e+10 
           1075     7.90639e+10 
           1085     7.36002e+10 
           1095      7.6821e+10 
           1105     7.37523e+10 
           1115     7.23899e+10 
           1125     6.19704e+10 
           1135     6.95687e+10 
           1145     6.75226e+10 
           1155     6.40513e+10 
           1165     6.20293e+10 
           1175     4.35471e+10 
           1185     5.65084e+10 
           1195     5.49994e+10 
           1205     5.31148e+10 
           1215     4.44733e+10 
           1225     5.10331e+10 
           1235     5.38162e+10 
           1245     5.18833e+10 
           1255     5.15956e+10 
           1265     5.26594e+10 
           1275     5.36928e+10 
           1285     5.33783e+10 
           1295     5.05713e+10 
           1305     4.98656e+10 
           1315       5.172e+10 
           1325     5.00453e+10 
           1335     4.84994e+10 
           1345     4.86014e+10 
           1355     4.69941e+10 
           1365     4.56247e+10 
           1375      4.4278e+10 
           1385     4.30753e+10 
           1395     3.62438e+10 
           1405     3.63652e+10 
           1415     4.09934e+10 
           1425     3.69267e+10 
           1435     3.89751e+10 
           1442     3.83675e+10 
           1447     3.81802e+10 
           1455     3.64695e+10 
           1465     3.58013e+10 
           1475     3.58162e+10 
           1485     3.57762e+10 
           1495     3.46115e+10 
           1505     3.40167e+10 
           1512     3.33778e+10 
           1517      3.3497e+10 
           1525     3.23042e+10 
           1535     2.86949e+10 
           1545     2.42023e+10 
           1555     2.44295e+10 
           1565     2.72008e+10 
           1575      2.8363e+10 
           1585     2.84141e+10 
           1595     2.80989e+10 
           1605     2.64176e+10 
           1615      2.5336e+10 
           1625      2.5817e+10 
           1635     2.58981e+10 
           1645     2.55689e+10 
           1655     2.58152e+10 
           1665     2.53674e+10 
           1672     2.35006e+10 
           1677     2.68984e+10 
           1685     2.56816e+10 
           1695     2.48603e+10 
           1705     2.45384e+10 
           1715     2.34564e+10 
           1725     2.27282e+10 
           1735      2.3413e+10 
           1745     2.31059e+10 
           1755      2.2655e+10 
           1765     2.23893e+10 
           1775     2.17073e+10 
           1785     2.18821e+10 
           1795     2.13151e+10 
           1805     2.12206e+10 
           1815     2.07015e+10 
           1825     2.03317e+10 
           1835     2.03053e+10 
           1845     1.94683e+10 
           1855     1.95436e+10 
           1865     1.94407e+10 
           1875     1.89864e+10 
           1885     1.82235e+10 
           1895     1.79792e+10 
           1905     1.82332e+10 
           1915     1.77762e+10 
           1925     1.67766e+10 
           1935     1.75062e+10 
           1945     1.75487e+10 
           1955     1.62184e+10 
           1967     1.67426e+10 
           1976     1.68828e+10 
           1984     1.64378e+10 
           1995     1.59588e+10 
           2005      1.6174e+10 
           2015     1.60584e+10 
           2025     1.59259e+10 
           2035     1.54195e+10 
           2045     1.51763e+10 
           2055     1.22653e+10 
           2065     1.18508e+10 
           2074      1.2349e+10 
           2078     1.23434e+10 
           2085      1.3226e+10 
           2095     1.37902e+10 
           2105     1.38873e+10 
           2115     1.39753e+10 
           2125     1.36972e+10 
           2135     1.35907e+10 
           2145     1.33562e+10 
           2155     1.33412e+10 
           2165     1.27899e+10 
           2175     1.29958e+10 
           2185     1.26026e+10 
           2195     1.27523e+10 
           2205     1.25547e+10 
           2215     1.21099e+10 
           2225     1.21626e+10 
           2235     1.19816e+10 
           2245     1.17854e+10 
           2255     1.14411e+10 
           2265     1.14886e+10 
           2275     1.13638e+10 
           2285      1.1103e+10 
           2295     1.02068e+10 
           2305      1.0619e+10 
           2315     1.06027e+10 
           2325      1.0534e+10 
           2335     1.03741e+10 
           2345     1.02249e+10 
           2355      1.0037e+10 
           2365      9.88496e+9 
           2375      9.69503e+9 
           2385      9.32051e+9 
           2395       9.3604e+9 
           2405      9.32115e+9 
           2415      9.20406e+9 
           2425      9.13151e+9 
           2435      8.97661e+9 
           2445      8.87119e+9 
           2455      8.74406e+9 
           2465      8.63172e+9 
           2475      8.51844e+9 
           2485      8.29263e+9 
           2495      6.56505e+9 
           2505      7.98123e+9 
           2513      7.69486e+9 
           2518      7.84139e+9 
           2525       7.9522e+9 
           2535      7.88841e+9 
           2545      7.74977e+9 
           2555      7.65171e+9 
           2565      7.56983e+9 
           2575      7.47081e+9 
           2585      7.37986e+9 
           2595      7.24757e+9 
           2605      7.20924e+9 
           2615      7.07653e+9 
           2625      7.01998e+9 
           2635      6.94455e+9 
           2645      6.83291e+9 
           2655      6.75855e+9 
           2665      6.63313e+9 
           2675      6.49045e+9 
           2685      6.49654e+9 
           2695      6.36905e+9 
           2705      6.32257e+9 
           2715      6.22599e+9 
           2725      6.16161e+9 
           2735      6.00231e+9 
           2745      6.03865e+9 
           2755      5.96064e+9 
           2765      5.86587e+9 
           2775      5.83394e+9 
           2785      5.73918e+9 
           2795      5.58341e+9 
           2805      5.58868e+9 
           2815      5.54999e+9 
           2825       5.4697e+9 
           2835      5.38431e+9 
           2845      5.35909e+9 
           2855      5.28741e+9 
           2865      5.20605e+9 
           2875      5.15258e+9 
           2885       5.0961e+9 
           2895      5.03623e+9 
           2910      4.92883e+9 
           2930      4.83939e+9 
           2950      4.70776e+9 
           2970      4.60486e+9 
           2990      4.47477e+9 
           3010      4.36353e+9 
           3030      4.25318e+9 
           3050       4.1826e+9 
           3070       4.1035e+9 
           3090      3.99373e+9 
           3110      3.92929e+9 
           3130      3.83405e+9 
           3150      3.75833e+9 
           3170      3.67211e+9 
           3190      3.59315e+9 
           3210      3.49214e+9 
           3230       3.4422e+9 
           3250      3.37999e+9 
           3270      3.28377e+9 
           3290      3.22918e+9 
           3310       3.1595e+9 
           3330       3.0884e+9 
           3350      3.01232e+9 
           3370       2.9577e+9 
           3390      2.91219e+9 
           3410      2.85062e+9 
           3430      2.79467e+9 
           3450      2.72489e+9 
           3470      2.67977e+9 
           3490      2.62626e+9 
           3510      2.57773e+9 
           3530      2.52829e+9 
           3550      2.47686e+9 
           3570      2.43255e+9 
           3590      2.37635e+9 
           3610      2.32763e+9 
           3630      2.28387e+9 
           3640       2.2524e+9 
           3650      2.12654e+9 
           3670      2.09137e+9 
           3690      2.05266e+9 
           3710      2.00034e+9 
           3730      1.96768e+9 
           3750      1.98648e+9 
           3770      1.96527e+9 
           3790       2.0016e+9 
           3810      2.02925e+9 
           3830      1.87226e+9 
           3850      2.00294e+9 
           3870      1.95721e+9 
           3890      1.76981e+9 
           3910      1.92607e+9 
           3930      1.86973e+9 
           3950      1.83725e+9 
           3970      1.63287e+9 
           3990      1.78685e+9 
           4010      1.75321e+9 
           4030      1.69363e+9 
           4050      1.69863e+9 
           4070       1.6452e+9 
           4090      1.57494e+9 
           4110      1.46465e+9 
           4130      1.56327e+9 
           4150      1.54098e+9 
           4170      1.52642e+9 
           4190       1.4979e+9 
           4210      1.46665e+9 
           4230       1.4537e+9 
           4250      1.42086e+9 
           4270      1.39128e+9 
           4290      1.37072e+9 
           4310      1.33923e+9 
           4330      1.27931e+9 
           4350      1.20151e+9 
           4370       1.2773e+9 
           4390      1.24858e+9 
           4410      1.23459e+9 
           4430      1.22264e+9 
           4450       1.2015e+9 
           4470      1.16494e+9 
           4490      1.16388e+9 
           4510      1.13881e+9 
           4530       1.1247e+9 
           4550      1.09852e+9 
           4570      1.09213e+9 
           4590      1.07148e+9 
           4610      1.05458e+9 
           4630      1.03243e+9 
           4650      9.86962e+8 
           4670      1.00138e+9 
           4690      9.74241e+8 
           4710      9.67241e+8 
           4730      9.66067e+8 
           4750      9.50385e+8 
           4770      9.37945e+8 
           4790       9.2338e+8 
           4810      9.08244e+8 
           4830      8.92599e+8 
           4850      8.59963e+8 
           4870       7.9411e+8 
           4890       8.5227e+8 
           4910      8.40262e+8 
           4930       8.1926e+8 
           4950      8.13975e+8 
           4970       8.0544e+8 
           4990      7.93519e+8 
           5010      7.72337e+8 
           5030      7.68396e+8 
           5050      7.55896e+8 
           5070      7.47878e+8 
           5090      7.36865e+8 
           5110      7.26015e+8 
           5130       7.1494e+8 
           5150       7.0471e+8 
           5170      6.94589e+8 
           5190      6.85092e+8 
           5210      6.75651e+8 
           5230      6.66059e+8 
           5250      6.55226e+8 
           5270       6.4588e+8 
           5290      6.38313e+8 
           5310      6.29252e+8 
           5330      6.20507e+8 
           5350      6.12007e+8 
           5370      6.03537e+8 
           5390      5.94995e+8 
           5410      5.81555e+8 
           5430      5.79017e+8 
           5450      5.71046e+8 
           5470      5.63113e+8 
           5490      5.55518e+8 
           5510      5.47832e+8 
           5530      5.40575e+8 
           5550       5.3353e+8 
           5570      5.26124e+8 
           5590      5.18158e+8 
           5610      5.12471e+8 
           5630      5.05675e+8 
           5650      4.98856e+8 
           5670      4.91781e+8 
           5690      4.79672e+8 
           5710      4.65861e+8 
           5730       4.6009e+8 
           5750      4.53796e+8 
           5770      4.48687e+8 
           5790      4.42963e+8 
           5810      4.36816e+8 
           5830      4.31773e+8 
           5850      4.28187e+8 
           5870      4.16517e+8 
           5890      4.18797e+8 
           5910      4.15061e+8 
           5930      4.10949e+8 
           5950      4.07137e+8 
           5970       4.0379e+8 
           5990      3.99555e+8 
           6010      3.95408e+8 
           6030        3.902e+8 
           6050      3.85535e+8 
           6070      3.80882e+8 
           6090      3.76322e+8 
           6110      3.71491e+8 
           6130      3.67006e+8 
           6150      3.62232e+8 
           6170      3.57631e+8 
           6190      3.53859e+8 
           6210      3.49678e+8 
           6230      3.45068e+8 
           6250       3.4106e+8 
           6270      3.37153e+8 
           6290      3.33175e+8 
           6310      3.28445e+8 
           6330      3.25273e+8 
           6350      3.21237e+8 
           6370      3.17608e+8 
           6390      3.13842e+8 
           6410      3.09512e+8 
           6430      3.06542e+8 
           6450      3.02787e+8 
           6470      2.98956e+8 
           6490      2.95623e+8 
           6510      2.92236e+8 
           6530      2.87648e+8 
           6550      2.81714e+8 
           6570      2.57973e+8 
           6590      2.77966e+8 
           6610       2.7589e+8 
           6630      2.72874e+8 
           6650      2.69719e+8 
           6670      2.64555e+8 
           6690      2.60998e+8 
           6710      2.60273e+8 
           6730      2.57214e+8 
           6750       2.5456e+8 
           6770       2.5203e+8 
           6790      2.48971e+8 
           6810      2.46487e+8 
           6830      2.43737e+8 
           6850      2.41047e+8 
           6870      2.38297e+8 
           6890      2.34654e+8 
           6910      2.32879e+8 
           6930       2.3069e+8 
           6950      2.28163e+8 
           6970      2.25685e+8 
           6990      2.23223e+8 
           7010      2.20671e+8 
           7030      2.17991e+8 
           7050      2.15877e+8 
           7070      2.11251e+8 
           7090      2.11455e+8 
           7110      2.09074e+8 
           7130      2.06873e+8 
           7150      2.04781e+8 
           7170      2.02006e+8 
           7190      2.00199e+8 
           7210      1.98351e+8 
           7230      1.95446e+8 
           7250      1.94068e+8 
           7270      1.92168e+8 
           7290      1.89123e+8 
           7310      1.88118e+8 
           7330      1.86209e+8 
           7350       1.8429e+8 
           7370      1.82383e+8 
           7390      1.80521e+8 
           7410      1.78642e+8 
           7430      1.76829e+8 
           7450      1.74964e+8 
           7470       1.7307e+8 
           7490      1.71099e+8 
           7510      1.69688e+8 
           7530      1.67984e+8 
           7550      1.66322e+8 
           7570      1.64616e+8 
           7590      1.62154e+8 
           7610      1.61147e+8 
           7630      1.59669e+8 
           7650      1.58101e+8 
           7670      1.56586e+8 
           7690      1.54792e+8 
           7710      1.53362e+8 
           7730      1.51693e+8 
           7750      1.50447e+8 
           7770      1.48993e+8 
           7790      1.47547e+8 
           7810      1.46057e+8 
           7830      1.44666e+8 
           7850      1.43227e+8 
           7870      1.41782e+8 
           7890      1.40405e+8 
           7910      1.39178e+8 
           7930        1.378e+8 
           7950      1.36535e+8 
           7970      1.35139e+8 
           7990      1.33903e+8 
           8010      1.32601e+8 
           8030      1.31293e+8 
           8050        1.301e+8 
           8070      1.28889e+8 
           8090      1.27556e+8 
           8110      1.26149e+8 
           8130      1.25278e+8 
           8150      1.23984e+8 
           8170      1.22909e+8 
           8190      1.21428e+8 
           8210      1.18869e+8 
           8230      1.17452e+8 
           8250      1.16806e+8 
           8270      1.15399e+8 
           8290      1.14684e+8 
           8310      1.13707e+8 
           8330      1.12483e+8 
           8350      1.11183e+8 
           8370       1.1047e+8 
           8390      1.09628e+8 
           8410      1.08628e+8 
           8430      1.07657e+8 
           8450      1.06383e+8 
           8470      1.05729e+8 
           8490      1.04792e+8 
           8510      1.03421e+8 
           8530      1.03066e+8 
           8550      1.01487e+8 
           8570      1.01839e+8 
           8590      9.93644e+7 
