# Kurucz ODFNEW /NOVER (2003)
# teff = 25000 K (value for the effective temperature for the model. Temperatures are given in K)
# logg = 3 log(cm/s2) (value for Log(G) for the model.)
# meta = -4  (value for the Metallicity for the model.)
# lh = 1.25  (l/Hp where l is the  mixing length of the convective element and Hp is the pressure scale height)
# vtur = 2 km/s (Microturbulence velocity)
# alpha = 0.4  (Alpha)
#
# column 1: WAVELENGTH (ANGSTROM), Wavelength in Angstrom
# column 2: FLUX (ERG/CM2/S/A), Flux in erg/cm2/s/A
          147.2     2.74795e-12 
            151     1.24656e-11 
          155.2     6.06126e-11 
          158.8     2.19353e-10 
            162     6.54482e-10 
            166      2.41232e-9 
          170.3       9.1288e-9 
          173.4      2.28274e-8 
          176.8      6.00077e-8 
          180.2      1.51819e-7 
          181.7      2.26004e-7 
          186.1      6.98424e-7 
            191      2.30059e-6 
          193.9      4.52109e-6 
          198.4      1.23769e-5 
          201.8      2.56687e-5 
            205      4.98215e-5 
          210.5     0.000148174 
          216.2     0.000430911 
          219.8      0.00082041 
            223      0.00142748 
          226.8      0.00269659 
            230       0.0115255 
            234       0.0259361 
            240       0.0603984 
          246.5        0.145695 
          252.4         0.31054 
          256.8        0.481213 
            260        0.765385 
            264         1.20431 
          268.5         1.96892 
          273.5         3.33088 
          278.5         5.53178 
            284          9.4528 
            290         16.5403 
            296         28.1489 
            301         42.2839 
            308         71.8718 
            318          167.42 
            328         345.536 
            338          681.05 
            348         1287.21 
            357         2207.36 
            366         3681.91 
            375         5971.14 
            385         9933.86 
            395         16053.3 
            405         25278.4 
            414           37265 
            422         51782.2 
            430         70963.3 
            441          107282 
            451          153104 
            460          207700 
            470          287041 
            480          390546 
            490          523938 
            500          693227 
            506      6.62215e+6 
            512      1.76348e+7 
            520      1.93492e+7 
            530      2.39141e+7 
            540      2.40068e+7 
            550      3.00176e+7 
            560      3.32617e+7 
            570      3.71233e+7 
            580      3.63896e+7 
            590      4.41632e+7 
            600      5.02944e+7 
            610      5.56367e+7 
            620      6.10754e+7 
            630      6.71763e+7 
            640      7.32277e+7 
            650      8.03793e+7 
            658      8.61329e+7 
            665      9.13573e+7 
            675      9.86339e+7 
            685      1.05988e+8 
            695      1.16234e+8 
            705      1.24223e+8 
            716      1.35207e+8 
            726      1.45023e+8 
            735      1.55155e+8 
            745      1.65991e+8 
            755      1.77134e+8 
            765      1.88588e+8 
            775      2.00738e+8 
            785      2.13092e+8 
            795      2.25635e+8 
            805      2.38726e+8 
            815       2.5196e+8 
            825       2.6571e+8 
            835      2.75842e+8 
            845      2.93839e+8 
            855      3.08284e+8 
            865      3.23155e+8 
            875      3.38278e+8 
            885      3.53538e+8 
            895      3.68986e+8 
            905      3.84013e+8 
            915      1.14374e+9 
            925      1.2508e+10 
            935     1.84946e+10 
            945     2.50145e+10 
            955     2.64373e+10 
            965     2.86476e+10 
            975     2.17258e+10 
            985     2.76816e+10 
            995     2.68122e+10 
           1005     2.72667e+10 
           1015     2.65924e+10 
           1025      2.0318e+10 
           1035     2.57139e+10 
           1045     2.58254e+10 
           1055     2.54441e+10 
           1065     2.47267e+10 
           1075     2.44174e+10 
           1085     2.36849e+10 
           1095     2.39597e+10 
           1105     2.33006e+10 
           1115     2.30788e+10 
           1125     2.24789e+10 
           1135     2.25352e+10 
           1145     2.21694e+10 
           1155     2.18561e+10 
           1165      2.1538e+10 
           1175     2.01129e+10 
           1185      2.0881e+10 
           1195     2.04103e+10 
           1205     1.97066e+10 
           1215     1.43414e+10 
           1225     1.94231e+10 
           1235     1.93225e+10 
           1245     1.89839e+10 
           1255     1.87587e+10 
           1265     1.84706e+10 
           1275     1.81919e+10 
           1285     1.79135e+10 
           1295     1.73446e+10 
           1305     1.72048e+10 
           1315     1.70977e+10 
           1325     1.68296e+10 
           1335     1.63573e+10 
           1345     1.63203e+10 
           1355      1.6075e+10 
           1365     1.58256e+10 
           1375     1.55847e+10 
           1385     1.53479e+10 
           1395     1.48971e+10 
           1405     1.46936e+10 
           1415     1.46496e+10 
           1425     1.44278e+10 
           1435     1.42108e+10 
           1442     1.40605e+10 
           1447     1.39527e+10 
           1455     1.37826e+10 
           1465     1.35738e+10 
           1475     1.33684e+10 
           1485     1.31669e+10 
           1495     1.29679e+10 
           1505     1.27694e+10 
           1512     1.26388e+10 
           1517     1.25436e+10 
           1525     1.23918e+10 
           1535     1.21987e+10 
           1545     1.19299e+10 
           1555     1.17608e+10 
           1565     1.16672e+10 
           1575     1.14975e+10 
           1585     1.13276e+10 
           1595     1.11602e+10 
           1605     1.09875e+10 
           1615     1.08261e+10 
           1625     1.06671e+10 
           1635     1.04606e+10 
           1645     1.00604e+10 
           1655     1.02109e+10 
           1665     1.00613e+10 
           1672      9.95962e+9 
           1677      9.89013e+9 
           1685      9.77389e+9 
           1695      9.63058e+9 
           1705       9.4893e+9 
           1715      9.34502e+9 
           1725      9.21204e+9 
           1735      9.08388e+9 
           1745      8.95248e+9 
           1755      8.82457e+9 
           1765      8.69571e+9 
           1775      8.57278e+9 
           1785      8.45169e+9 
           1795      8.33195e+9 
           1805      8.21421e+9 
           1815      8.09741e+9 
           1825       7.9829e+9 
           1835      7.87096e+9 
           1845      7.75687e+9 
           1855      7.63142e+9 
           1865      7.53226e+9 
           1875      7.43906e+9 
           1885      7.33118e+9 
           1895      7.21876e+9 
           1905      7.13373e+9 
           1915      7.02233e+9 
           1925      6.92842e+9 
           1935      6.84009e+9 
           1945      6.75131e+9 
           1955      6.65255e+9 
           1967      6.55186e+9 
           1976      6.47331e+9 
           1984      6.40006e+9 
           1995      6.29891e+9 
           2005      6.22228e+9 
           2015      6.13979e+9 
           2025      6.05753e+9 
           2035      5.97522e+9 
           2045      5.89503e+9 
           2055      5.57472e+9 
           2065      5.49568e+9 
           2074      5.49556e+9 
           2078      5.49763e+9 
           2085       5.5529e+9 
           2095      5.51512e+9 
           2105      5.44499e+9 
           2115      5.37762e+9 
           2125      5.30744e+9 
           2135      5.23709e+9 
           2145      5.16839e+9 
           2155      5.11064e+9 
           2165      5.03501e+9 
           2175      4.98013e+9 
           2185      4.90609e+9 
           2195      4.85367e+9 
           2205      4.79177e+9 
           2215      4.72027e+9 
           2225      4.67009e+9 
           2235      4.61067e+9 
           2245      4.55227e+9 
           2255      4.48539e+9 
           2265      4.43816e+9 
           2275      4.38242e+9 
           2285      4.32748e+9 
           2295      4.25394e+9 
           2305      4.21115e+9 
           2315       4.1674e+9 
           2325      4.11574e+9 
           2335       4.0646e+9 
           2345      4.01425e+9 
           2355      3.96454e+9 
           2365      3.91566e+9 
           2375      3.86753e+9 
           2385      3.81198e+9 
           2395      3.77339e+9 
           2405      3.72748e+9 
           2415      3.68221e+9 
           2425      3.63774e+9 
           2435      3.59395e+9 
           2445      3.55075e+9 
           2455        3.508e+9 
           2465      3.46589e+9 
           2475      3.42441e+9 
           2485      3.38355e+9 
           2495      3.30449e+9 
           2505      3.30368e+9 
           2513      3.25446e+9 
           2518      3.25296e+9 
           2525      3.22632e+9 
           2535      3.18855e+9 
           2545      3.15092e+9 
           2555      3.11458e+9 
           2565      3.07849e+9 
           2575      3.04287e+9 
           2585      3.00776e+9 
           2595      2.97321e+9 
           2605      2.95292e+9 
           2615      2.91881e+9 
           2625      2.88295e+9 
           2635      2.84467e+9 
           2645      2.81394e+9 
           2655       2.7799e+9 
           2665      2.74677e+9 
           2675      2.71422e+9 
           2685      2.69388e+9 
           2695      2.65089e+9 
           2705      2.63334e+9 
           2715       2.6037e+9 
           2725      2.56017e+9 
           2735      2.54043e+9 
           2745      2.51725e+9 
           2755      2.48924e+9 
           2765      2.44584e+9 
           2775       2.4344e+9 
           2785      2.40758e+9 
           2795      2.38074e+9 
           2805      2.35489e+9 
           2815       2.3293e+9 
           2825      2.28734e+9 
           2835      2.27583e+9 
           2845      2.25427e+9 
           2855      2.22996e+9 
           2865      2.20597e+9 
           2875      2.18227e+9 
           2885      2.15893e+9 
           2895      2.13586e+9 
           2910      2.10175e+9 
           2930      2.05727e+9 
           2950      2.00362e+9 
           2970      1.97195e+9 
           2990      1.93091e+9 
           3010      1.89094e+9 
           3030      1.85195e+9 
           3050      1.81389e+9 
           3070      1.77682e+9 
           3090      1.74068e+9 
           3110      1.70551e+9 
           3130      1.67267e+9 
           3150      1.63889e+9 
           3170      1.60576e+9 
           3190      1.56284e+9 
           3210      1.54131e+9 
           3230      1.51217e+9 
           3250      1.48238e+9 
           3270      1.45489e+9 
           3290      1.42508e+9 
           3310      1.39935e+9 
           3330       1.3726e+9 
           3350      1.34434e+9 
           3370        1.321e+9 
           3390      1.29605e+9 
           3410      1.27169e+9 
           3430      1.24282e+9 
           3450      1.21579e+9 
           3470      1.19659e+9 
           3490      1.17527e+9 
           3510      1.15859e+9 
           3530      1.13766e+9 
           3550      1.11717e+9 
           3570      1.10093e+9 
           3590      1.07634e+9 
           3610      1.05794e+9 
           3630      1.03779e+9 
           3640        1.034e+9 
           3650      1.02111e+9 
           3670      1.00553e+9 
           3690      9.72666e+8 
           3710       9.6229e+8 
           3730      9.53677e+8 
           3750      1.01803e+9 
           3770       1.0097e+9 
           3790      1.01643e+9 
           3810      1.04166e+9 
           3830      9.49779e+8 
           3850      1.03154e+9 
           3870      1.01235e+9 
           3890      9.10399e+8 
           3910      9.87553e+8 
           3930      9.65917e+8 
           3950      9.54446e+8 
           3970      8.44653e+8 
           3990      9.21609e+8 
           4010      9.03184e+8 
           4030      8.73713e+8 
           4050      8.77898e+8 
           4070      8.63265e+8 
           4090      8.38267e+8 
           4110       7.6465e+8 
           4130      8.16211e+8 
           4150      8.02917e+8 
           4170      7.93478e+8 
           4190      7.81909e+8 
           4210      7.68865e+8 
           4230      7.56937e+8 
           4250      7.44824e+8 
           4270      7.32946e+8 
           4290      7.21317e+8 
           4310      7.09872e+8 
           4330      6.83196e+8 
           4350       6.3502e+8 
           4370      6.76822e+8 
           4390      6.58726e+8 
           4410      6.55961e+8 
           4430      6.44023e+8 
           4450      6.35812e+8 
           4470      6.13261e+8 
           4490      6.16424e+8 
           4510      6.07006e+8 
           4530      5.97766e+8 
           4550      5.88373e+8 
           4570      5.79825e+8 
           4590        5.711e+8 
           4610      5.62539e+8 
           4630      5.54122e+8 
           4650      5.45829e+8 
           4670      5.37743e+8 
           4690      5.28148e+8 
           4710      5.17406e+8 
           4730      5.14286e+8 
           4750      5.06758e+8 
           4770      4.99372e+8 
           4790      4.92107e+8 
           4810      4.84995e+8 
           4830      4.77983e+8 
           4850       4.6303e+8 
           4870      4.25051e+8 
           4890      4.57408e+8 
           4910      4.51189e+8 
           4930      4.39228e+8 
           4950      4.38484e+8 
           4970      4.32308e+8 
           4990      4.26232e+8 
           5010      4.16697e+8 
           5030      4.14388e+8 
           5050      4.06946e+8 
           5070      4.02965e+8 
           5090      3.97405e+8 
           5110      3.91934e+8 
           5130      3.86565e+8 
           5150      3.81282e+8 
           5170      3.76082e+8 
           5190      3.70994e+8 
           5210      3.65972e+8 
           5230      3.61043e+8 
           5250      3.56193e+8 
           5270      3.51419e+8 
           5290      3.46707e+8 
           5310      3.42083e+8 
           5330      3.37531e+8 
           5350      3.33064e+8 
           5370      3.28655e+8 
           5390      3.24327e+8 
           5410      3.19913e+8 
           5430      3.15886e+8 
           5450      3.11759e+8 
           5470      3.07708e+8 
           5490       3.0372e+8 
           5510      2.99794e+8 
           5530      2.95942e+8 
           5550      2.92137e+8 
           5570      2.88404e+8 
           5590      2.84728e+8 
           5610       2.8111e+8 
           5630      2.77547e+8 
           5650      2.74052e+8 
           5670      2.70598e+8 
           5690      2.67198e+8 
           5710      2.63862e+8 
           5730      2.60578e+8 
           5750      2.57344e+8 
           5770      2.54149e+8 
           5790      2.51002e+8 
           5810      2.47916e+8 
           5830      2.44865e+8 
           5850      2.41873e+8 
           5870      2.33711e+8 
           5890      2.35982e+8 
           5910      2.33125e+8 
           5930      2.30302e+8 
           5950      2.27522e+8 
           5970      2.24774e+8 
           5990      2.22079e+8 
           6010      2.19414e+8 
           6030      2.16801e+8 
           6050      2.14217e+8 
           6070      2.11683e+8 
           6090      2.09177e+8 
           6110       2.0671e+8 
           6130      2.04281e+8 
           6150      2.01889e+8 
           6170      1.99523e+8 
           6190      1.97203e+8 
           6210      1.94909e+8 
           6230      1.92641e+8 
           6250      1.90417e+8 
           6270      1.88226e+8 
           6290       1.8606e+8 
           6310      1.83927e+8 
           6330      1.81826e+8 
           6350      1.79758e+8 
           6370      1.77711e+8 
           6390      1.75697e+8 
           6410      1.73712e+8 
           6430      1.71759e+8 
           6450      1.69826e+8 
           6470      1.67923e+8 
           6490       1.6604e+8 
           6510      1.64185e+8 
           6530      1.62351e+8 
           6550      1.58946e+8 
           6570      1.45333e+8 
           6590      1.56823e+8 
           6610      1.55306e+8 
           6630      1.53599e+8 
           6650      1.52004e+8 
           6670      1.49298e+8 
           6690      1.47691e+8 
           6710      1.47088e+8 
           6730        1.455e+8 
           6750      1.43928e+8 
           6770       1.4238e+8 
           6790      1.40848e+8 
           6810      1.39348e+8 
           6830      1.37855e+8 
           6850      1.36385e+8 
           6870      1.34945e+8 
           6890      1.33512e+8 
           6910      1.32101e+8 
           6930      1.30704e+8 
           6950      1.29337e+8 
           6970      1.27983e+8 
           6990      1.26635e+8 
           7010      1.25331e+8 
           7030      1.24024e+8 
           7050      1.22738e+8 
           7070      1.19693e+8 
           7090       1.2021e+8 
           7110      1.18976e+8 
           7130      1.17746e+8 
           7150      1.16543e+8 
           7170       1.1533e+8 
           7190      1.14171e+8 
           7210       1.1301e+8 
           7230      1.11867e+8 
           7250      1.10734e+8 
           7270       1.0962e+8 
           7290      1.07701e+8 
           7310      1.07408e+8 
           7330      1.06346e+8 
           7350      1.05287e+8 
           7370      1.04238e+8 
           7390      1.03198e+8 
           7410      1.02175e+8 
           7430      1.01162e+8 
           7450      1.00178e+8 
           7470      9.91903e+7 
           7490      9.82181e+7 
           7510      9.72214e+7 
           7530       9.6307e+7 
           7550      9.53678e+7 
           7570      9.44373e+7 
           7590      9.35217e+7 
           7610      9.26144e+7 
           7630      9.17219e+7 
           7650      9.08374e+7 
           7670      8.99608e+7 
           7690      8.90985e+7 
           7710      8.82376e+7 
           7730      8.74033e+7 
           7750      8.65639e+7 
           7770      8.57444e+7 
           7790      8.49384e+7 
           7810      8.40716e+7 
           7830      8.33354e+7 
           7850      8.26301e+7 
           7870      8.18518e+7 
           7890      8.10561e+7 
           7910      8.03276e+7 
           7930      7.94976e+7 
           7950      7.86809e+7 
           7970      7.79069e+7 
           7990      7.72636e+7 
           8010      7.64907e+7 
           8030      7.58298e+7 
           8050      7.51744e+7 
           8070      7.45014e+7 
           8090      7.36903e+7 
           8110      7.30695e+7 
           8130       7.2511e+7 
           8150      7.17075e+7 
           8170      7.12157e+7 
           8190      7.05201e+7 
           8210      6.97075e+7 
           8230      6.92801e+7 
           8250      6.86678e+7 
           8270      6.77302e+7 
           8290      6.73435e+7 
           8310      6.67633e+7 
           8330      6.61499e+7 
           8350      6.52877e+7 
           8370      6.47717e+7 
           8390      6.42706e+7 
           8410      6.36564e+7 
           8430      6.30525e+7 
           8450      6.22531e+7 
           8470      6.15236e+7 
           8490      6.17411e+7 
           8510      6.01455e+7 
           8530      6.09511e+7 
           8550      5.82854e+7 
           8570      6.07015e+7 
           8590      5.79379e+7 
