# Kurucz ODFNEW /NOVER (2003)
# teff = 10250 K (value for the effective temperature for the model. Temperatures are given in K)
# logg = 3.5 log(cm/s2) (value for Log(G) for the model.)
# meta = 0.5  (value for the Metallicity for the model.)
# lh = 1.25  (l/Hp where l is the  mixing length of the convective element and Hp is the pressure scale height)
# vtur = 2 km/s (Microturbulence velocity)
# alpha = 0  (Alpha)
#
# column 1: WAVELENGTH (ANGSTROM), Wavelength in Angstrom
# column 2: FLUX (ERG/CM2/S/A), Flux in erg/cm2/s/A
          268.5     5.26903e-24 
          273.5     6.35183e-23 
          278.5     2.50895e-22 
            284       1.023e-21 
            290     4.43112e-21 
            296     1.80002e-20 
            301     5.57728e-20 
            308      2.5644e-19 
            318     2.02421e-18 
            328     1.41837e-17 
            338     8.89062e-17 
            348     5.05753e-16 
            357     2.27245e-15 
            366     9.35918e-15 
            375     3.59999e-14 
            385     1.50661e-13 
            395     5.85817e-13 
            405     2.14737e-12 
            414     6.56281e-12 
            422     1.70504e-11 
            430     4.25486e-11 
            441     1.44392e-10 
            451     4.14715e-10 
            460      1.03248e-9 
            470      2.73073e-9 
            480      6.96083e-9 
            490       1.7098e-8 
            500      4.05466e-8 
            506      1.07949e-7 
            512      2.03135e-7 
            520      3.72396e-7 
            530       7.7709e-7 
            540      1.56402e-6 
            550      3.12318e-6 
            560      6.04545e-6 
            570      1.14294e-5 
            580       2.0915e-5 
            590       3.8292e-5 
            600      6.80478e-5 
            610     0.000119164 
            620     0.000204281 
            630     0.000344628 
            640     0.000570456 
            650     0.000935002 
            658      0.00137174 
            665      0.00189947 
            675      0.00299813 
            685      0.00467129 
            695      0.00719142 
            705       0.0108784 
            716       0.0170303 
            726        0.025253 
            735       0.0356614 
            745       0.0517922 
            755         0.07449 
            765        0.106062 
            775        0.149619 
            785        0.209277 
            795        0.289438 
            805        0.398149 
            815        0.543968 
            825        0.735719 
            835        0.986097 
            845         1.31597 
            855         1.74197 
            865         2.29106 
            875         2.98864 
            885         3.88223 
            895          5.0055 
            905         6.40512 
            915         336.571 
            925         2267.84 
            935          3205.3 
            945          4601.2 
            955         6795.81 
            965         8689.79 
            975         8379.69 
            985         11346.6 
            995         12092.3 
           1005         15268.4 
           1015         18053.5 
           1025         16713.2 
           1035           23110 
           1045         27583.4 
           1055           31870 
           1065         34128.1 
           1075         40540.9 
           1085         46149.3 
           1095         48753.9 
           1105         85374.8 
           1115          481569 
           1125          821638 
           1135      1.48206e+6 
           1145      1.42177e+6 
           1155      2.00366e+6 
           1165       2.3722e+6 
           1175      2.09817e+6 
           1185      1.62166e+6 
           1195          192685 
           1205          254490 
           1215         51705.6 
           1225          255743 
           1235          707282 
           1245      4.86702e+6 
           1255      3.11712e+7 
           1265      2.12568e+7 
           1275      5.72942e+7 
           1285      8.98597e+7 
           1295      6.93064e+7 
           1305      2.04521e+7 
           1315      7.52751e+7 
           1325      1.02629e+8 
           1335      7.63975e+7 
           1345      1.21245e+8 
           1355      1.16532e+8 
           1365      9.49575e+7 
           1375      1.08915e+8 
           1385      1.04388e+8 
           1395      1.09854e+8 
           1405      1.11952e+8 
           1415      1.05533e+8 
           1425      1.28197e+8 
           1435      1.11512e+8 
           1442      1.32401e+8 
           1447      1.48707e+8 
           1455      1.46983e+8 
           1465      1.32147e+8 
           1475      1.25674e+8 
           1485      1.45531e+8 
           1495      1.63883e+8 
           1505      1.63163e+8 
           1512       1.3101e+8 
           1517      1.44981e+8 
           1525      1.22339e+8 
           1535      1.07888e+8 
           1545      1.49047e+8 
           1555      1.17377e+8 
           1565      1.01417e+8 
           1575      1.22739e+8 
           1585      1.44924e+8 
           1595      1.57858e+8 
           1605      1.44402e+8 
           1615      1.42894e+8 
           1625      1.24397e+8 
           1635      1.32098e+8 
           1645      1.42922e+8 
           1655      1.17301e+8 
           1665      1.38666e+8 
           1672      7.33007e+7 
           1677       1.3401e+8 
           1685      1.55709e+8 
           1695      1.42731e+8 
           1705      1.28728e+8 
           1715      1.22392e+8 
           1725      1.20305e+8 
           1735      1.35825e+8 
           1745      1.33691e+8 
           1755       1.5699e+8 
           1765      1.21391e+8 
           1775       1.3819e+8 
           1785      1.38195e+8 
           1795      1.65259e+8 
           1805      1.54113e+8 
           1815      1.50498e+8 
           1825      1.43085e+8 
           1835      1.35992e+8 
           1845      1.21772e+8 
           1855      1.30645e+8 
           1865      1.33071e+8 
           1875      1.43282e+8 
           1885       1.3674e+8 
           1895      1.37797e+8 
           1905      1.29648e+8 
           1915      1.36927e+8 
           1925      1.40744e+8 
           1935      1.36134e+8 
           1945      1.42883e+8 
           1955      1.40016e+8 
           1967      1.52879e+8 
           1976      1.54857e+8 
           1984      1.45207e+8 
           1995      1.38622e+8 
           2005      1.38189e+8 
           2015      1.26661e+8 
           2025      1.33112e+8 
           2035      1.32717e+8 
           2045      1.41728e+8 
           2055      1.30887e+8 
           2065      1.28712e+8 
           2074      1.41505e+8 
           2078      1.43683e+8 
           2085      1.40683e+8 
           2095      1.33095e+8 
           2105      1.27531e+8 
           2115      1.27061e+8 
           2125      1.30865e+8 
           2135       1.0598e+8 
           2145       1.2092e+8 
           2155      1.26428e+8 
           2165      1.17916e+8 
           2175      1.15114e+8 
           2185      1.14118e+8 
           2195        1.228e+8 
           2205      1.15544e+8 
           2215      1.03208e+8 
           2225      9.82645e+7 
           2235      1.12599e+8 
           2245      9.98179e+7 
           2255        9.383e+7 
           2265      9.84006e+7 
           2275       1.0478e+8 
           2285      1.09046e+8 
           2295      1.02454e+8 
           2305       9.6731e+7 
           2315      9.03578e+7 
           2325      8.91711e+7 
           2335       7.9758e+7 
           2345      7.27354e+7 
           2355      8.86934e+7 
           2365      7.20492e+7 
           2375      7.92781e+7 
           2385      6.62827e+7 
           2395      7.72502e+7 
           2405      7.18089e+7 
           2415      7.62667e+7 
           2425      8.53573e+7 
           2435      8.07755e+7 
           2445      8.81762e+7 
           2455      8.42653e+7 
           2465      8.37008e+7 
           2475      8.00491e+7 
           2485      8.58912e+7 
           2495      8.18332e+7 
           2505      9.40829e+7 
           2513      7.97106e+7 
           2518      8.32268e+7 
           2525      7.48126e+7 
           2535      7.52788e+7 
           2545      7.39322e+7 
           2555      8.11973e+7 
           2565      7.85442e+7 
           2575      8.67589e+7 
           2585      8.52489e+7 
           2595      8.15386e+7 
           2605      7.69056e+7 
           2615      7.59108e+7 
           2625       8.3704e+7 
           2635      8.43232e+7 
           2645      9.81345e+7 
           2655      9.63118e+7 
           2665      8.40692e+7 
           2675      9.02492e+7 
           2685      8.67146e+7 
           2695      8.45058e+7 
           2705      8.80011e+7 
           2715      8.23863e+7 
           2725      8.39389e+7 
           2735       9.1752e+7 
           2745      7.21958e+7 
           2755      7.33702e+7 
           2765      7.61567e+7 
           2775      8.51731e+7 
           2785      8.25177e+7 
           2795      5.56219e+7 
           2805      6.59514e+7 
           2815      8.65493e+7 
           2825      9.05496e+7 
           2835      8.46856e+7 
           2845      8.11637e+7 
           2855      7.79478e+7 
           2865      8.56981e+7 
           2875      8.18943e+7 
           2885      8.34549e+7 
           2895      7.83888e+7 
           2910      8.99682e+7 
           2930      8.52774e+7 
           2950      8.50212e+7 
           2970      8.71642e+7 
           2990      8.77719e+7 
           3010      8.97612e+7 
           3030      8.77595e+7 
           3050      8.61264e+7 
           3070      8.50038e+7 
           3090      8.66137e+7 
           3110      8.33338e+7 
           3130      8.25991e+7 
           3150       8.4272e+7 
           3170      8.32307e+7 
           3190      7.94471e+7 
           3210      8.12973e+7 
           3230      7.92212e+7 
           3250      7.99077e+7 
           3270      7.96625e+7 
           3290      8.01517e+7 
           3310       8.0362e+7 
           3330      7.81052e+7 
           3350      7.67659e+7 
           3370      7.63948e+7 
           3390      7.56927e+7 
           3410      7.70494e+7 
           3430      7.65601e+7 
           3450      7.57479e+7 
           3470      7.43922e+7 
           3490      7.36874e+7 
           3510      7.45197e+7 
           3530      7.46058e+7 
           3550      7.44371e+7 
           3570      7.27068e+7 
           3590      7.21738e+7 
           3610      7.17318e+7 
           3630      7.12323e+7 
           3640       7.0668e+7 
           3650      7.25832e+7 
           3670      7.18054e+7 
           3690       6.8611e+7 
           3710      7.31146e+7 
           3730      7.84793e+7 
           3750      1.07076e+8 
           3770      1.14287e+8 
           3790      1.41666e+8 
           3810      1.60921e+8 
           3830      1.26043e+8 
           3850      1.70021e+8 
           3870      1.86125e+8 
           3890      1.12772e+8 
           3910      1.81417e+8 
           3930      1.80382e+8 
           3950      1.80451e+8 
           3970      1.05732e+8 
           3990      1.74213e+8 
           4010      1.79585e+8 
           4030      1.76278e+8 
           4050      1.75692e+8 
           4070      1.69908e+8 
           4090      1.44989e+8 
           4110      1.10917e+8 
           4130      1.60267e+8 
           4150      1.64217e+8 
           4170      1.60778e+8 
           4190      1.59083e+8 
           4210      1.57386e+8 
           4230      1.54508e+8 
           4250      1.51422e+8 
           4270         1.48e+8 
           4290      1.48177e+8 
           4310      1.41676e+8 
           4330      1.15453e+8 
           4350      9.82353e+7 
           4370       1.3786e+8 
           4390      1.35827e+8 
           4410      1.35419e+8 
           4430      1.33585e+8 
           4450      1.33515e+8 
           4470       1.3121e+8 
           4490      1.27869e+8 
           4510      1.28187e+8 
           4530       1.2567e+8 
           4550       1.2237e+8 
           4570      1.23689e+8 
           4590      1.20153e+8 
           4610      1.21573e+8 
           4630      1.17063e+8 
           4650      1.18222e+8 
           4670      1.16008e+8 
           4690      1.13871e+8 
           4710      1.10266e+8 
           4730      1.11866e+8 
           4750      1.10388e+8 
           4770      1.09406e+8 
           4790      1.07831e+8 
           4810      1.05525e+8 
           4830      1.02494e+8 
           4850      8.47839e+7 
           4870      6.84031e+7 
           4890       9.7804e+7 
           4910      9.88872e+7 
           4930      9.70882e+7 
           4950      9.69234e+7 
           4970      9.63233e+7 
           4990      9.44921e+7 
           5010      9.14338e+7 
           5030      9.11757e+7 
           5050      8.94549e+7 
           5070      8.95712e+7 
           5090      8.84906e+7 
           5110      8.71082e+7 
           5130      8.63602e+7 
           5150      8.43911e+7 
           5170      8.28782e+7 
           5190      8.22169e+7 
           5210       8.1487e+7 
           5230      7.98058e+7 
           5250       8.0127e+7 
           5270      7.76711e+7 
           5290      7.85954e+7 
           5310      7.64332e+7 
           5330      7.58766e+7 
           5350      7.60882e+7 
           5370      7.49294e+7 
           5390      7.40268e+7 
           5410      7.27159e+7 
           5430      7.21595e+7 
           5450      7.18136e+7 
           5470      7.08613e+7 
           5490      7.01797e+7 
           5510      6.92244e+7 
           5530      6.85571e+7 
           5550      6.79697e+7 
           5570      6.71437e+7 
           5590       6.6523e+7 
           5610      6.60256e+7 
           5630      6.52614e+7 
           5650      6.41688e+7 
           5670      6.35904e+7 
           5690      6.30871e+7 
           5710      6.24426e+7 
           5730      6.17951e+7 
           5750      6.10242e+7 
           5770      6.03993e+7 
           5790      5.95793e+7 
           5810       5.9027e+7 
           5830      5.83977e+7 
           5850       5.7845e+7 
           5870      5.70415e+7 
           5890      5.61227e+7 
           5910      5.59365e+7 
           5930      5.54216e+7 
           5950      5.44761e+7 
           5970      5.41075e+7 
           5990      5.33636e+7 
           6010      5.29787e+7 
           6030      5.25263e+7 
           6050      5.18606e+7 
           6070      5.13854e+7 
           6090      5.08453e+7 
           6110      5.03344e+7 
           6130      4.97579e+7 
           6150      4.84437e+7 
           6170       4.8717e+7 
           6190      4.83073e+7 
           6210      4.78208e+7 
           6230      4.72405e+7 
           6250      4.62424e+7 
           6270       4.6381e+7 
           6290       4.5897e+7 
           6310      4.52564e+7 
           6330       4.4938e+7 
           6350      4.38509e+7 
           6370      4.36299e+7 
           6390      4.35454e+7 
           6410      4.30183e+7 
           6430      4.26937e+7 
           6450      4.18108e+7 
           6470      4.18884e+7 
           6490      4.11351e+7 
           6510      4.07023e+7 
           6530      3.98729e+7 
           6550      3.55299e+7 
           6570      2.85194e+7 
           6590      3.80329e+7 
           6610      3.87472e+7 
           6630      3.85421e+7 
           6650      3.82901e+7 
           6670      3.79084e+7 
           6690      3.75786e+7 
           6710      3.72629e+7 
           6730      3.68063e+7 
           6750      3.65216e+7 
           6770      3.62198e+7 
           6790      3.58449e+7 
           6810       3.5521e+7 
           6830      3.51267e+7 
           6850      3.48239e+7 
           6870      3.45105e+7 
           6890      3.42049e+7 
           6910      3.38636e+7 
           6930      3.35115e+7 
           6950      3.32472e+7 
           6970      3.29303e+7 
           6990      3.26634e+7 
           7010      3.22059e+7 
           7030      3.20458e+7 
           7050      3.16846e+7 
           7070      3.14461e+7 
           7090       3.1191e+7 
           7110      3.06573e+7 
           7130      3.05448e+7 
           7150      3.02821e+7 
           7170      3.00364e+7 
           7190      2.97675e+7 
           7210      2.95127e+7 
           7230      2.91947e+7 
           7250      2.89034e+7 
           7270       2.8724e+7 
           7290       2.8439e+7 
           7310      2.81665e+7 
           7330      2.79527e+7 
           7350      2.77339e+7 
           7370      2.74969e+7 
           7390      2.72337e+7 
           7410      2.69661e+7 
           7430      2.65878e+7 
           7450      2.64249e+7 
           7470      2.60898e+7 
           7490      2.59694e+7 
           7510      2.57465e+7 
           7530      2.56026e+7 
           7550      2.53971e+7 
           7570      2.51717e+7 
           7590      2.49483e+7 
           7610      2.47627e+7 
           7630      2.45327e+7 
           7650      2.42875e+7 
           7670      2.40854e+7 
           7690      2.38864e+7 
           7710      2.36599e+7 
           7730      2.34998e+7 
           7750       2.3299e+7 
           7770       2.2589e+7 
           7790      2.29102e+7 
           7810      2.27324e+7 
           7830      2.25138e+7 
           7850      2.22507e+7 
           7870      2.20094e+7 
           7890      2.17582e+7 
           7910       2.1729e+7 
           7930      2.15974e+7 
           7950      2.12325e+7 
           7970      2.12577e+7 
           7990      2.07342e+7 
           8010      2.09015e+7 
           8030      2.07204e+7 
           8050      2.05577e+7 
           8070      2.03807e+7 
           8090      2.02202e+7 
           8110      2.00427e+7 
           8130      1.99049e+7 
           8150      1.97461e+7 
           8170      1.95908e+7 
           8190      1.92891e+7 
           8210      1.91723e+7 
           8230      1.89591e+7 
           8250      1.89802e+7 
           8270      1.89723e+7 
           8290      1.87679e+7 
           8310       1.8675e+7 
           8330      1.84404e+7 
           8350      1.83652e+7 
           8370      1.82119e+7 
           8390      1.80262e+7 
           8410      1.78015e+7 
           8430      1.76514e+7 
           8450      1.72825e+7 
           8470      1.69495e+7 
           8490      1.75094e+7 
           8510      1.63156e+7 
           8530      1.76107e+7 
           8550      1.53918e+7 
           8570      1.78237e+7 
           8590      1.62862e+7 
           8610      1.58036e+7 
           8630      1.80133e+7 
           8650      1.72252e+7 
           8670      1.39167e+7 
           8690      1.75474e+7 
           8710      1.82738e+7 
           8730      1.75194e+7 
           8750      1.34321e+7 
           8770      1.66262e+7 
           8790      1.80592e+7 
           8810      1.80336e+7 
           8830      1.75003e+7 
           8850      1.56675e+7 
           8870      1.29907e+7 
           8890      1.67953e+7 
           8910      1.72866e+7 
           8930        1.724e+7 
           8950      1.72571e+7 
           8970      1.70065e+7 
           8990      1.63193e+7 
           9010      1.27785e+7 
           9030      1.41182e+7 
           9050      1.61694e+7 
           9070      1.60941e+7 
           9090      1.60028e+7 
           9110       1.6126e+7 
           9130      1.60735e+7 
           9150      1.60173e+7 
           9170      1.57889e+7 
