# Kurucz ODFNEW /NOVER (2003)
# teff = 7750 K (value for the effective temperature for the model. Temperatures are given in K)
# logg = 2.5 log(cm/s2) (value for Log(G) for the model.)
# meta = 0  (value for the Metallicity for the model.)
# lh = 1.25  (l/Hp where l is the  mixing length of the convective element and Hp is the pressure scale height)
# vtur = 2 km/s (Microturbulence velocity)
# alpha = 0.4  (Alpha)
#
# column 1: WAVELENGTH (ANGSTROM), Wavelength in Angstrom
# column 2: FLUX (ERG/CM2/S/A), Flux in erg/cm2/s/A
            348     4.87492e-26 
            357     3.78092e-25 
            366     2.64242e-24 
            375     1.67202e-23 
            385     1.16772e-22 
            395     7.34456e-22 
            405      4.1976e-21 
            414     1.86804e-20 
            422     6.65121e-20 
            430     2.25223e-19 
            441     1.11608e-18 
            451     4.44683e-18 
            460     1.46086e-17 
            470     5.17479e-17 
            480     1.73207e-16 
            490     5.50157e-16 
            500     1.66138e-15 
            506     4.17625e-15 
            512     8.78375e-15 
            520     1.96585e-14 
            530     5.22244e-14 
            540     1.31067e-13 
            550     3.22119e-13 
            560     7.59417e-13 
            570     1.73187e-12 
            580     3.78297e-12 
            590     8.21413e-12 
            600     1.71391e-11 
            610     3.48827e-11 
            620     6.91197e-11 
            630     1.33749e-10 
            640     2.52977e-10 
            650     4.68714e-10 
            658     7.55958e-10 
            665      1.13336e-9 
            675      1.99839e-9 
            685       3.4608e-9 
            695      5.88284e-9 
            705      9.75961e-9 
            716      1.69686e-8 
            726      2.74344e-8 
            735      4.17459e-8 
            745      6.55867e-8 
            755      1.01805e-7 
            765      1.56022e-7 
            775      2.36145e-7 
            785      3.53758e-7 
            795      5.16278e-7 
            805      7.58488e-7 
            815      1.10451e-6 
            825      1.58286e-6 
            835      2.24446e-6 
            845      3.15381e-6 
            855      4.39037e-6 
            865      6.05808e-6 
            875      8.23847e-6 
            885      1.12452e-5 
            895      1.51407e-5 
            905      2.01142e-5 
            915       0.0145198 
            925       0.0438488 
            935       0.0578221 
            945       0.0778032 
            955        0.109306 
            965        0.144708 
            975        0.182764 
            985        0.236275 
            995        0.293857 
           1005        0.398279 
           1015        0.508839 
           1025        0.618544 
           1035        0.800215 
           1045         1.00921 
           1055         1.26224 
           1065         1.53774 
           1075         1.92827 
           1085         2.38801 
           1095         2.86786 
           1105         9.65284 
           1115         32.9389 
           1125         48.1856 
           1135         67.1678 
           1145          84.672 
           1155         92.4721 
           1165         125.108 
           1175         144.765 
           1185         150.635 
           1195         62.0854 
           1205         67.1589 
           1215         15.7784 
           1225         78.5304 
           1235         201.524 
           1245         489.376 
           1255         1134.55 
           1265         1017.99 
           1275         2034.62 
           1285         3066.36 
           1295         3798.46 
           1305         2400.81 
           1315         4986.17 
           1325         6216.08 
           1335         6822.13 
           1345         8732.55 
           1355         9001.58 
           1365         9741.82 
           1375         10616.7 
           1385         11756.4 
           1395         13677.7 
           1405         15382.5 
           1415         15823.9 
           1425         18120.1 
           1435         18210.9 
           1442         21355.1 
           1447         23194.2 
           1455         26465.1 
           1465         26896.6 
           1475         29521.9 
           1485         33203.5 
           1495         38373.7 
           1505         42564.1 
           1512         43080.6 
           1517         37193.5 
           1525         38971.7 
           1535           64452 
           1545          173748 
           1555          169028 
           1565          161122 
           1575          275596 
           1585          350828 
           1595          448073 
           1605          405726 
           1615          385074 
           1625          339176 
           1635          405489 
           1645          610251 
           1655          323690 
           1665          549380 
           1672          240733 
           1677       1.8774e+6 
           1685      1.94095e+6 
           1695       2.5609e+6 
           1705      3.59672e+6 
           1715      5.84661e+6 
           1725      6.18162e+6 
           1735      7.95703e+6 
           1745      7.07045e+6 
           1755      9.30979e+6 
           1765      6.36343e+6 
           1775      8.89718e+6 
           1785      7.78105e+6 
           1795      1.12831e+7 
           1805      8.21768e+6 
           1815      9.67994e+6 
           1825      7.77862e+6 
           1835      7.36156e+6 
           1845      6.70693e+6 
           1855      8.17686e+6 
           1865      9.51402e+6 
           1875      8.81487e+6 
           1885        9.299e+6 
           1895      1.03157e+7 
           1905      8.94314e+6 
           1915      9.89925e+6 
           1925      9.61225e+6 
           1935      6.56721e+6 
           1945      1.08128e+7 
           1955       1.1079e+7 
           1967      1.23259e+7 
           1976      1.14276e+7 
           1984       1.1639e+7 
           1995      1.13283e+7 
           2005       1.0703e+7 
           2015      9.77308e+6 
           2025      9.22846e+6 
           2035      1.11357e+7 
           2045      1.23738e+7 
           2055       1.0746e+7 
           2065       1.0538e+7 
           2074      1.32073e+7 
           2078      1.42758e+7 
           2085      1.34635e+7 
           2095      1.24863e+7 
           2105      1.14004e+7 
           2115      1.17039e+7 
           2125      1.17692e+7 
           2135      8.94915e+6 
           2145      1.13534e+7 
           2155      1.16214e+7 
           2165      1.03224e+7 
           2175      1.04825e+7 
           2185      1.10757e+7 
           2195      1.22597e+7 
           2205      1.15358e+7 
           2215       9.5422e+6 
           2225      9.26029e+6 
           2235      1.18248e+7 
           2245      1.05828e+7 
           2255      9.07702e+6 
           2265      9.18284e+6 
           2275      1.05428e+7 
           2285      1.11023e+7 
           2295      9.84484e+6 
           2305      1.05665e+7 
           2315      9.90675e+6 
           2325      9.38265e+6 
           2335      6.88995e+6 
           2345      5.36119e+6 
           2355       8.6737e+6 
           2365       5.4407e+6 
           2375      7.27662e+6 
           2385      4.30096e+6 
           2395      5.68717e+6 
           2405      5.44262e+6 
           2415      6.49433e+6 
           2425      9.48002e+6 
           2435      9.12402e+6 
           2445       9.9589e+6 
           2455      9.88981e+6 
           2465      9.64233e+6 
           2475      8.86223e+6 
           2485      9.15831e+6 
           2495      8.69712e+6 
           2505      1.13295e+7 
           2513      8.45784e+6 
           2518      8.79565e+6 
           2525      7.12673e+6 
           2535      6.68018e+6 
           2545      7.10938e+6 
           2555      8.97961e+6 
           2565      7.97066e+6 
           2575      9.42644e+6 
           2585      9.04357e+6 
           2595      8.30771e+6 
           2605      7.39244e+6 
           2615      6.86112e+6 
           2625      9.02647e+6 
           2635      1.03411e+7 
           2645      1.40745e+7 
           2655      1.45283e+7 
           2665      1.15238e+7 
           2675      1.29119e+7 
           2685      1.26168e+7 
           2695      1.16841e+7 
           2705      1.25144e+7 
           2715       1.0907e+7 
           2725      1.10813e+7 
           2735      1.21507e+7 
           2745      7.52106e+6 
           2755      8.61958e+6 
           2765      9.49754e+6 
           2775      1.10265e+7 
           2785      7.79568e+6 
           2795      2.64197e+6 
           2805       3.4912e+6 
           2815      9.98752e+6 
           2825      1.31297e+7 
           2835      1.29496e+7 
           2845      1.24529e+7 
           2855      1.08494e+7 
           2865      1.35207e+7 
           2875      1.30699e+7 
           2885      1.33877e+7 
           2895      1.26171e+7 
           2910      1.52607e+7 
           2930      1.42817e+7 
           2950      1.42891e+7 
           2970      1.53619e+7 
           2990      1.54807e+7 
           3010      1.60844e+7 
           3030       1.5897e+7 
           3050      1.57872e+7 
           3070       1.5786e+7 
           3090      1.65072e+7 
           3110      1.58398e+7 
           3130      1.58165e+7 
           3150      1.65093e+7 
           3170        1.635e+7 
           3190       1.5099e+7 
           3210      1.60196e+7 
           3230      1.50361e+7 
           3250      1.60604e+7 
           3270      1.65367e+7 
           3290      1.67668e+7 
           3310       1.7213e+7 
           3330      1.66508e+7 
           3350      1.63539e+7 
           3370      1.61404e+7 
           3390      1.65082e+7 
           3410      1.69643e+7 
           3430      1.73098e+7 
           3450      1.71224e+7 
           3470      1.68458e+7 
           3490      1.67056e+7 
           3510      1.73037e+7 
           3530      1.73425e+7 
           3550        1.799e+7 
           3570      1.69915e+7 
           3590      1.69886e+7 
           3610      1.71579e+7 
           3630      1.73531e+7 
           3640      1.69738e+7 
           3650       1.7891e+7 
           3670      1.76045e+7 
           3690      1.74405e+7 
           3710      2.08675e+7 
           3730      2.40274e+7 
           3750      3.28763e+7 
           3770      3.59503e+7 
           3790      4.56457e+7 
           3810      5.34336e+7 
           3830      4.13175e+7 
           3850      5.75343e+7 
           3870      6.42711e+7 
           3890       3.7603e+7 
           3910      6.13241e+7 
           3930      4.03319e+7 
           3950      5.74613e+7 
           3970      2.97972e+7 
           3990      6.08585e+7 
           4010      6.63536e+7 
           4030      6.52374e+7 
           4050       6.4675e+7 
           4070      6.26105e+7 
           4090      5.32436e+7 
           4110      4.06434e+7 
           4130      6.01662e+7 
           4150      6.28185e+7 
           4170      6.10756e+7 
           4190      6.07665e+7 
           4210      6.04774e+7 
           4230      5.88815e+7 
           4250      5.90044e+7 
           4270      5.67091e+7 
           4290      5.68489e+7 
           4310      5.24693e+7 
           4330      4.37896e+7 
           4350      3.72678e+7 
           4370      5.40823e+7 
           4390      5.36551e+7 
           4410      5.24451e+7 
           4430       5.1915e+7 
           4450      5.25072e+7 
           4470      5.24437e+7 
           4490      5.18243e+7 
           4510      5.29456e+7 
           4530       5.0344e+7 
           4550      4.95694e+7 
           4570      5.12849e+7 
           4590      4.90812e+7 
           4610      5.05778e+7 
           4630      4.87816e+7 
           4650      4.91748e+7 
           4670      4.89462e+7 
           4690       4.7168e+7 
           4710      4.54098e+7 
           4730      4.72223e+7 
           4750      4.71661e+7 
           4770      4.60793e+7 
           4790      4.56526e+7 
           4810      4.47918e+7 
           4830      4.36739e+7 
           4850      3.53242e+7 
           4870      2.80535e+7 
           4890      4.12318e+7 
           4910      4.22842e+7 
           4930      4.14458e+7 
           4950      4.20864e+7 
           4970       4.2241e+7 
           4990      4.03749e+7 
           5010      3.85793e+7 
           5030      3.96922e+7 
           5050      3.90785e+7 
           5070      3.96311e+7 
           5090      3.91298e+7 
           5110      3.89496e+7 
           5130      3.79136e+7 
           5150      3.71041e+7 
           5170      3.63397e+7 
           5190      3.58155e+7 
           5210      3.59185e+7 
           5230      3.55465e+7 
           5250      3.60348e+7 
           5270      3.34599e+7 
           5290      3.51702e+7 
           5310      3.44915e+7 
           5330       3.3167e+7 
           5350      3.43252e+7 
           5370       3.3938e+7 
           5390      3.33689e+7 
           5410      3.26168e+7 
           5430      3.26325e+7 
           5450      3.29262e+7 
           5470      3.24844e+7 
           5490      3.21019e+7 
           5510      3.18221e+7 
           5530      3.15739e+7 
           5550      3.16036e+7 
           5570      3.10577e+7 
           5590      3.06019e+7 
           5610      3.05469e+7 
           5630      3.05347e+7 
           5650      3.00203e+7 
           5670      2.94843e+7 
           5690      2.95416e+7 
           5710      2.92252e+7 
           5730      2.93922e+7 
           5750      2.88166e+7 
           5770      2.87122e+7 
           5790       2.8358e+7 
           5810      2.81854e+7 
           5830      2.79835e+7 
           5850      2.76274e+7 
           5870      2.74263e+7 
           5890      2.67875e+7 
           5910      2.69388e+7 
           5930      2.66984e+7 
           5950      2.63766e+7 
           5970      2.62436e+7 
           5990       2.5845e+7 
           6010      2.55303e+7 
           6030      2.54255e+7 
           6050      2.51692e+7 
           6070      2.51426e+7 
           6090      2.48163e+7 
           6110      2.44916e+7 
           6130      2.40343e+7 
           6150      2.34419e+7 
           6170      2.34782e+7 
           6190      2.37918e+7 
           6210      2.35763e+7 
           6230      2.32058e+7 
           6250      2.24808e+7 
           6270      2.30333e+7 
           6290       2.2848e+7 
           6310       2.2395e+7 
           6330      2.23063e+7 
           6350      2.18811e+7 
           6370      2.17773e+7 
           6390      2.17879e+7 
           6410      2.13844e+7 
           6430      2.13719e+7 
           6450      2.07895e+7 
           6470      2.09357e+7 
           6490      2.05108e+7 
           6510      2.04649e+7 
           6530      2.01074e+7 
           6550      1.79248e+7 
           6570      1.42122e+7 
           6590      1.91921e+7 
           6610      1.96538e+7 
           6630      1.96897e+7 
           6650      1.95629e+7 
           6670      1.93747e+7 
           6690      1.92783e+7 
           6710      1.91084e+7 
           6730      1.89159e+7 
           6750      1.86188e+7 
           6770      1.87029e+7 
           6790      1.85096e+7 
           6810      1.83815e+7 
           6830      1.81723e+7 
           6850       1.8043e+7 
           6870      1.79581e+7 
           6890      1.78143e+7 
           6910      1.76656e+7 
           6930      1.75041e+7 
           6950      1.73848e+7 
           6970      1.72239e+7 
           6990      1.71178e+7 
           7010      1.67282e+7 
           7030      1.67924e+7 
           7050      1.66988e+7 
           7070      1.65766e+7 
           7090      1.64585e+7 
           7110      1.60053e+7 
           7130       1.6095e+7 
           7150      1.59527e+7 
           7170       1.5836e+7 
           7190      1.56956e+7 
           7210      1.56006e+7 
           7230      1.54669e+7 
           7250      1.52971e+7 
           7270      1.53093e+7 
           7290      1.50836e+7 
           7310      1.50132e+7 
           7330       1.4904e+7 
           7350      1.48404e+7 
           7370      1.47697e+7 
           7390      1.45885e+7 
           7410      1.43719e+7 
           7430      1.42305e+7 
           7450       1.4178e+7 
           7470      1.40238e+7 
           7490       1.3984e+7 
           7510      1.39296e+7 
           7530      1.38597e+7 
           7550      1.38115e+7 
           7570       1.3642e+7 
           7590      1.35944e+7 
           7610      1.34827e+7 
           7630      1.34011e+7 
           7650      1.32423e+7 
           7670      1.30862e+7 
           7690      1.30061e+7 
           7710      1.29375e+7 
           7730      1.28889e+7 
           7750      1.27704e+7 
           7770      1.23896e+7 
           7790      1.26489e+7 
           7810      1.25224e+7 
           7830      1.23916e+7 
           7850      1.22466e+7 
           7870      1.21801e+7 
           7890      1.20483e+7 
           7910      1.19916e+7 
           7930      1.18384e+7 
           7950      1.17419e+7 
           7970      1.18337e+7 
           7990      1.15645e+7 
           8010      1.16401e+7 
           8030      1.15232e+7 
           8050      1.14666e+7 
           8070      1.13838e+7 
           8090      1.13051e+7 
           8110        1.125e+7 
           8130      1.11918e+7 
           8150      1.11086e+7 
           8170      1.10306e+7 
           8190      1.07825e+7 
           8210      1.07032e+7 
           8230       1.0634e+7 
           8250      1.06085e+7 
           8270      1.06922e+7 
           8290      1.06006e+7 
           8310      1.04826e+7 
           8330      1.03226e+7 
           8350      1.03467e+7 
           8370      1.02382e+7 
           8390      1.01172e+7 
           8410      1.00318e+7 
           8430       1.0023e+7 
           8450      9.78829e+6 
           8470      9.54572e+6 
           8490      1.00475e+7 
           8510      9.01403e+6 
           8530      1.01067e+7 
           8550      8.10379e+6 
           8570      1.03645e+7 
           8590      9.56118e+6 
           8610      9.22613e+6 
           8630      1.04849e+7 
           8650      1.00921e+7 
           8670      7.78479e+6 
           8690      1.00742e+7 
           8710      1.06284e+7 
           8730      1.02456e+7 
           8750      8.08446e+6 
           8770      9.88149e+6 
           8790      1.05036e+7 
           8810      1.04759e+7 
           8830      1.01472e+7 
           8850       9.3227e+6 
           8870      7.84182e+6 
           8890      9.82245e+6 
           8910      1.01025e+7 
           8930      1.00564e+7 
           8950      1.01248e+7 
           8970      9.95892e+6 
           8990      9.62053e+6 
           9010      7.74155e+6 
           9030      8.55925e+6 
           9050       9.5771e+6 
           9070      9.45248e+6 
           9090      9.32111e+6 
           9110       9.4963e+6 
           9130      9.53112e+6 
           9150      9.51335e+6 
           9170      9.39394e+6 
           9190      9.20054e+6 
           9210      8.65654e+6 
           9230      6.79673e+6 
           9250      8.28375e+6 
           9270      8.67505e+6 
           9290      9.03235e+6 
           9310      9.01488e+6 
           9330      8.92693e+6 
           9350      8.91938e+6 
           9370      8.88049e+6 
           9390        8.744e+6 
           9410      8.40948e+6 
