# Kurucz ODFNEW /NOVER (2003)
# teff = 29000 K (value for the effective temperature for the model. Temperatures are given in K)
# logg = 5 log(cm/s2) (value for Log(G) for the model.)
# meta = -1.5  (value for the Metallicity for the model.)
# lh = 1.25  (l/Hp where l is the  mixing length of the convective element and Hp is the pressure scale height)
# vtur = 2 km/s (Microturbulence velocity)
# alpha = 0.4  (Alpha)
#
# column 1: WAVELENGTH (ANGSTROM), Wavelength in Angstrom
# column 2: FLUX (ERG/CM2/S/A), Flux in erg/cm2/s/A
          147.2     7.09094e-10 
            151      2.51142e-9 
          155.2      9.47883e-9 
          158.8      2.80335e-8 
            162      7.06834e-8 
            166      2.13753e-7 
          170.3      6.63087e-7 
          173.4      1.44915e-6 
          176.8      3.30989e-6 
          180.2      7.32517e-6 
          181.7      1.03006e-5 
          186.1      2.71431e-5 
            191      7.57269e-5 
          193.9     0.000135573 
          198.4     0.000323434 
          201.8     0.000607641 
            205      0.00107878 
          210.5      0.00277602 
          216.2      0.00701692 
          219.8       0.0122871 
            223       0.0199043 
          226.8       0.0346678 
            230         2.68852 
            234         6.51928 
            240         12.9913 
          246.5           26.46 
          252.4         49.4695 
          256.8         70.6772 
            260         103.991 
            264         147.419 
          268.5         223.606 
          273.5         344.712 
          278.5         522.578 
            284         825.333 
            290         1302.29 
            296         2015.69 
            301         2831.34 
            308         4276.25 
            318         8763.31 
            328         15628.2 
            338         27741.9 
            348         46714.8 
            357         76011.6 
            366          117980 
            375          171582 
            385          262421 
            395          387269 
            405          557291 
            414          769544 
            422          988681 
            430      1.27381e+6 
            441      1.77685e+6 
            451      2.38409e+6 
            460      3.01811e+6 
            470       3.9305e+6 
            480      5.01668e+6 
            490       6.3465e+6 
            500      7.97943e+6 
            506      3.87064e+7 
            512       1.5745e+8 
            520      1.70685e+8 
            530      2.00811e+8 
            540      1.95703e+8 
            550      2.42228e+8 
            560      2.59914e+8 
            570      2.86762e+8 
            580      2.77205e+8 
            590      3.25106e+8 
            600      3.47795e+8 
            610      3.78066e+8 
            620        4.003e+8 
            630      4.29694e+8 
            640      4.39631e+8 
            650       4.7986e+8 
            658      5.03624e+8 
            665      5.24231e+8 
            675      5.39042e+8 
            685      5.57244e+8 
            695      6.21447e+8 
            705      6.34306e+8 
            716      6.86019e+8 
            726      7.11423e+8 
            735      7.46939e+8 
            745       7.9001e+8 
            755      8.24406e+8 
            765      8.59965e+8 
            775      9.02081e+8 
            785      9.45515e+8 
            795      9.73616e+8 
            805       1.0126e+9 
            815      1.04371e+9 
            825      1.09057e+9 
            835      1.07757e+9 
            845      1.15474e+9 
            855      1.18802e+9 
            865      1.23332e+9 
            875      1.27757e+9 
            885       1.3212e+9 
            895      1.35971e+9 
            905      1.38079e+9 
            915      1.56811e+9 
            925       6.3733e+9 
            935     1.47033e+10 
            945     3.73125e+10 
            955     5.06299e+10 
            965     6.87092e+10 
            975     2.72327e+10 
            985     7.59458e+10 
            995     7.05037e+10 
           1005     7.44488e+10 
           1015     6.74089e+10 
           1025      2.3888e+10 
           1035     6.02007e+10 
           1045      7.2774e+10 
           1055     7.06868e+10 
           1065     6.39449e+10 
           1075     6.55578e+10 
           1085     5.93211e+10 
           1095     6.38573e+10 
           1105     6.06334e+10 
           1115     5.92476e+10 
           1125     5.39454e+10 
           1135     5.69294e+10 
           1145     5.27698e+10 
           1155     5.33596e+10 
           1165     5.24364e+10 
           1175     4.39455e+10 
           1185     4.90823e+10 
           1195     4.60298e+10 
           1205     3.92134e+10 
           1215     1.62923e+10 
           1225     3.86941e+10 
           1235     4.33978e+10 
           1245     4.24944e+10 
           1255     4.20017e+10 
           1265     4.09942e+10 
           1275     4.06387e+10 
           1285     3.96733e+10 
           1295     3.59584e+10 
           1305     3.61438e+10 
           1315     3.68881e+10 
           1325     3.54944e+10 
           1335     3.42417e+10 
           1345     3.38365e+10 
           1355     3.36836e+10 
           1365     3.21829e+10 
           1375     3.17623e+10 
           1385     3.11639e+10 
           1395     2.80124e+10 
           1405     2.80864e+10 
           1415     2.88593e+10 
           1425     2.80642e+10 
           1435     2.77293e+10 
           1442      2.7622e+10 
           1447     2.72461e+10 
           1455     2.66946e+10 
           1465     2.60278e+10 
           1475     2.54856e+10 
           1485     2.49795e+10 
           1495     2.44054e+10 
           1505     2.33686e+10 
           1512     2.31231e+10 
           1517     2.29856e+10 
           1525     2.25621e+10 
           1535     2.13321e+10 
           1545      2.0899e+10 
           1555     2.02837e+10 
           1565     2.04144e+10 
           1575     2.02806e+10 
           1585     1.99415e+10 
           1595     1.96448e+10 
           1605     1.88992e+10 
           1615     1.84434e+10 
           1625     1.82942e+10 
           1635     1.80542e+10 
           1645     1.73355e+10 
           1655     1.75214e+10 
           1665     1.72164e+10 
           1672     1.68987e+10 
           1677      1.7062e+10 
           1685     1.67332e+10 
           1695     1.63292e+10 
           1705      1.5936e+10 
           1715     1.55061e+10 
           1725     1.52015e+10 
           1735     1.51194e+10 
           1745     1.48241e+10 
           1755     1.46092e+10 
           1765     1.41587e+10 
           1775     1.39374e+10 
           1785      1.3751e+10 
           1795     1.36216e+10 
           1805     1.34444e+10 
           1815     1.30897e+10 
           1825     1.29082e+10 
           1835     1.26773e+10 
           1845     1.21152e+10 
           1855     1.18645e+10 
           1865     1.18167e+10 
           1875     1.17596e+10 
           1885      1.1228e+10 
           1895     1.08402e+10 
           1905     1.10049e+10 
           1915     1.06242e+10 
           1925     1.03708e+10 
           1935     1.04138e+10 
           1945     1.03876e+10 
           1955      9.88243e+9 
           1967      9.97351e+9 
           1976     1.00015e+10 
           1984      9.67029e+9 
           1995      9.37227e+9 
           2005      9.42942e+9 
           2015       9.3639e+9 
           2025      9.27807e+9 
           2035      9.01136e+9 
           2045      8.87165e+9 
           2055      8.40879e+9 
           2065      8.28169e+9 
           2074      8.34914e+9 
           2078      8.14978e+9 
           2085      8.14307e+9 
           2095      8.00449e+9 
           2105      8.09568e+9 
           2115      8.05022e+9 
           2125      7.96679e+9 
           2135      7.83522e+9 
           2145      7.68545e+9 
           2155      7.60253e+9 
           2165      7.49115e+9 
           2175      7.37838e+9 
           2185      7.27036e+9 
           2195      7.18206e+9 
           2205      7.07553e+9 
           2215       6.9628e+9 
           2225      6.86451e+9 
           2235      6.75842e+9 
           2245      6.67413e+9 
           2255       6.5581e+9 
           2265      6.48357e+9 
           2275      6.39169e+9 
           2285      6.29813e+9 
           2295      6.11269e+9 
           2305      6.10791e+9 
           2315      6.02974e+9 
           2325      5.94752e+9 
           2335      5.85537e+9 
           2345      5.78492e+9 
           2355      5.70723e+9 
           2365      5.62876e+9 
           2375      5.54706e+9 
           2385      5.45965e+9 
           2395      5.39418e+9 
           2405      5.32434e+9 
           2415      5.24836e+9 
           2425      5.18332e+9 
           2435      5.10532e+9 
           2445       5.0414e+9 
           2455      4.97678e+9 
           2465      4.91169e+9 
           2475      4.84495e+9 
           2485      4.78145e+9 
           2495      4.55826e+9 
           2505      4.65161e+9 
           2513      4.55362e+9 
           2518      4.56318e+9 
           2525      4.53473e+9 
           2535      4.47739e+9 
           2545      4.38789e+9 
           2555      4.35078e+9 
           2565      4.30175e+9 
           2575      4.25164e+9 
           2585      4.19846e+9 
           2595      4.14535e+9 
           2605      4.11581e+9 
           2615      4.06345e+9 
           2625      4.01303e+9 
           2635      3.96109e+9 
           2645      3.90998e+9 
           2655      3.85765e+9 
           2665      3.79863e+9 
           2675      3.74633e+9 
           2685      3.72359e+9 
           2695      3.64445e+9 
           2705      3.62889e+9 
           2715      3.58605e+9 
           2725      3.51138e+9 
           2735       3.4933e+9 
           2745      3.45495e+9 
           2755      3.41497e+9 
           2765      3.34257e+9 
           2775      3.33633e+9 
           2785      3.29512e+9 
           2795      3.21675e+9 
           2805      3.20463e+9 
           2815      3.18086e+9 
           2825      3.10598e+9 
           2835      3.07169e+9 
           2845      3.07024e+9 
           2855      3.03273e+9 
           2865      2.99792e+9 
           2875      2.96338e+9 
           2885      2.92988e+9 
           2895      2.89583e+9 
           2910      2.84452e+9 
           2930      2.78033e+9 
           2950      2.69306e+9 
           2970      2.65747e+9 
           2990      2.59747e+9 
           3010       2.5382e+9 
           3030       2.4842e+9 
           3050      2.43083e+9 
           3070       2.3786e+9 
           3090      2.31847e+9 
           3110      2.27652e+9 
           3130      2.22821e+9 
           3150      2.18152e+9 
           3170      2.13537e+9 
           3190      2.06933e+9 
           3210      2.04574e+9 
           3230      2.00279e+9 
           3250       1.9616e+9 
           3270      1.92344e+9 
           3290      1.88123e+9 
           3310      1.84618e+9 
           3330      1.80858e+9 
           3350      1.76899e+9 
           3370      1.73678e+9 
           3390      1.70274e+9 
           3410      1.66919e+9 
           3430        1.629e+9 
           3450      1.59102e+9 
           3470      1.56456e+9 
           3490      1.53428e+9 
           3510      1.50672e+9 
           3530      1.47951e+9 
           3550      1.45224e+9 
           3570      1.43483e+9 
           3590      1.39478e+9 
           3610      1.37578e+9 
           3630      1.34368e+9 
           3640       1.3439e+9 
           3650      1.31816e+9 
           3670          1.3e+9 
           3690      1.27729e+9 
           3710       1.2352e+9 
           3730       1.1951e+9 
           3750      1.17799e+9 
           3770      1.14204e+9 
           3790      1.18088e+9 
           3810      1.22605e+9 
           3830      1.07128e+9 
           3850      1.25982e+9 
           3870       1.2857e+9 
           3890      1.00249e+9 
           3910      1.26347e+9 
           3930      1.26023e+9 
           3950      1.22297e+9 
           3970      9.30081e+8 
           3990      1.16821e+9 
           4010      1.17694e+9 
           4030      1.09637e+9 
           4050      1.15285e+9 
           4070      1.11837e+9 
           4090      1.00325e+9 
           4110      8.74354e+8 
           4130      1.04688e+9 
           4150      1.04373e+9 
           4170      1.03842e+9 
           4190      1.02293e+9 
           4210      1.00701e+9 
           4230      9.89528e+8 
           4250      9.70872e+8 
           4270      9.50352e+8 
           4290      9.34245e+8 
           4310      9.08863e+8 
           4330      8.01928e+8 
           4350      7.30364e+8 
           4370      8.60503e+8 
           4390      8.29399e+8 
           4410      8.44692e+8 
           4430      8.31381e+8 
           4450      8.20006e+8 
           4470      7.60401e+8 
           4490        7.921e+8 
           4510      7.82367e+8 
           4530      7.69783e+8 
           4550      7.56552e+8 
           4570      7.44119e+8 
           4590      7.32248e+8 
           4610      7.21069e+8 
           4630      7.09985e+8 
           4650      6.94464e+8 
           4670      6.86992e+8 
           4690      6.75921e+8 
           4710      6.55266e+8 
           4730      6.56354e+8 
           4750      6.45829e+8 
           4770      6.36881e+8 
           4790      6.26402e+8 
           4810      6.14576e+8 
           4830      5.98968e+8 
           4850      5.40338e+8 
           4870      4.81965e+8 
           4890      5.68967e+8 
           4910       5.6778e+8 
           4930      5.44458e+8 
           4950      5.54551e+8 
           4970      5.47321e+8 
           4990      5.39205e+8 
           5010      5.23172e+8 
           5030      5.23442e+8 
           5050      5.12331e+8 
           5070      5.08458e+8 
           5090      5.01039e+8 
           5110      4.93806e+8 
           5130      4.86671e+8 
           5150      4.79688e+8 
           5170      4.72883e+8 
           5190      4.66239e+8 
           5210      4.59543e+8 
           5230      4.53198e+8 
           5250      4.46827e+8 
           5270      4.40566e+8 
           5290      4.34427e+8 
           5310      4.28382e+8 
           5330      4.22455e+8 
           5350      4.16591e+8 
           5370      4.10933e+8 
           5390      4.05256e+8 
           5410      3.99665e+8 
           5430      3.94286e+8 
           5450      3.88937e+8 
           5470      3.83693e+8 
           5490      3.78541e+8 
           5510      3.73477e+8 
           5530      3.68489e+8 
           5550      3.63576e+8 
           5570      3.58735e+8 
           5590      3.54003e+8 
           5610      3.49316e+8 
           5630      3.44735e+8 
           5650      3.40151e+8 
           5670      3.35646e+8 
           5690      3.31185e+8 
           5710      3.27043e+8 
           5730      3.22848e+8 
           5750      3.18521e+8 
           5770      3.14608e+8 
           5790      3.10584e+8 
           5810      3.06619e+8 
           5830       3.0269e+8 
           5850      2.98852e+8 
           5870      2.84278e+8 
           5890      2.90332e+8 
           5910       2.8768e+8 
           5930      2.84061e+8 
           5950      2.80495e+8 
           5970      2.77075e+8 
           5990      2.73601e+8 
           6010      2.70239e+8 
           6030      2.66895e+8 
           6050      2.63641e+8 
           6070      2.60414e+8 
           6090      2.57233e+8 
           6110      2.54099e+8 
           6130       2.5102e+8 
           6150      2.47936e+8 
           6170      2.44975e+8 
           6190      2.42048e+8 
           6210      2.39143e+8 
           6230       2.3629e+8 
           6250      2.33469e+8 
           6270      2.30697e+8 
           6290      2.27966e+8 
           6310      2.25265e+8 
           6330      2.22622e+8 
           6350      2.19969e+8 
           6370       2.1742e+8 
           6390      2.14899e+8 
           6410      2.12387e+8 
           6430      2.09938e+8 
           6450      2.07515e+8 
           6470      2.05082e+8 
           6490      2.02702e+8 
           6510      1.99823e+8 
           6530      1.96356e+8 
           6550      1.84955e+8 
           6570      1.63504e+8 
           6590      1.87835e+8 
           6610      1.88416e+8 
           6630      1.86955e+8 
           6650      1.85134e+8 
           6670      1.80647e+8 
           6690       1.7871e+8 
           6710      1.79026e+8 
           6730      1.76999e+8 
           6750      1.75075e+8 
           6770      1.73146e+8 
           6790       1.7118e+8 
           6810      1.69348e+8 
           6830      1.67485e+8 
           6850      1.65665e+8 
           6870      1.63856e+8 
           6890      1.62065e+8 
           6910      1.60292e+8 
           6930      1.58584e+8 
           6950      1.56877e+8 
           6970      1.55194e+8 
           6990      1.53529e+8 
           7010      1.51887e+8 
           7030      1.50262e+8 
           7050      1.48668e+8 
           7070      1.44519e+8 
           7090      1.45534e+8 
           7110      1.43993e+8 
           7130      1.42483e+8 
           7150      1.40987e+8 
           7170      1.39498e+8 
           7190       1.3806e+8 
           7210      1.36621e+8 
           7230      1.34951e+8 
           7250      1.33784e+8 
           7270      1.32422e+8 
           7290      1.29874e+8 
           7310      1.29693e+8 
           7330      1.28377e+8 
           7350      1.27065e+8 
           7370      1.25773e+8 
           7390      1.24493e+8 
           7410      1.23232e+8 
           7430      1.21983e+8 
           7450      1.20765e+8 
           7470      1.19512e+8 
           7490      1.18351e+8 
           7510      1.17127e+8 
           7530      1.15994e+8 
           7550      1.14838e+8 
           7570      1.13699e+8 
           7590      1.12571e+8 
           7610      1.11447e+8 
           7630      1.10359e+8 
           7650      1.09267e+8 
           7670      1.08199e+8 
           7690       1.0714e+8 
           7710       1.0609e+8 
           7730      1.05057e+8 
           7750      1.04032e+8 
           7770      1.02992e+8 
           7790      1.02029e+8 
           7810      1.00988e+8 
           7830      1.00074e+8 
           7850      9.91977e+7 
           7870      9.82319e+7 
           7890      9.72383e+7 
           7910      9.63859e+7 
           7930       9.5469e+7 
           7950      9.45422e+7 
           7970      9.35524e+7 
           7990       9.2701e+7 
           8010      9.17513e+7 
           8030      9.08391e+7 
           8050      8.99814e+7 
           8070      8.91426e+7 
           8090      8.82303e+7 
           8110       8.7452e+7 
           8130      8.67259e+7 
           8150      8.58811e+7 
           8170       8.5162e+7 
           8190       8.4258e+7 
           8210      8.33114e+7 
           8230      8.27234e+7 
           8250      8.19962e+7 
           8270      8.08951e+7 
           8290      8.04833e+7 
           8310      7.97963e+7 
           8330      7.90172e+7 
           8350      7.79692e+7 
           8370      7.75056e+7 
           8390      7.69224e+7 
           8410      7.62321e+7 
           8430       7.5505e+7 
           8450      7.43302e+7 
           8470      7.41739e+7 
           8490      7.33492e+7 
           8510       7.2828e+7 
           8530      7.20106e+7 
           8550      7.13082e+7 
           8570      7.10475e+7 
