# Kurucz ODFNEW /NOVER (2003)
# teff = 27000 K (value for the effective temperature for the model. Temperatures are given in K)
# logg = 5 log(cm/s2) (value for Log(G) for the model.)
# meta = -2.5  (value for the Metallicity for the model.)
# lh = 1.25  (l/Hp where l is the  mixing length of the convective element and Hp is the pressure scale height)
# vtur = 2 km/s (Microturbulence velocity)
# alpha = 0  (Alpha)
#
# column 1: WAVELENGTH (ANGSTROM), Wavelength in Angstrom
# column 2: FLUX (ERG/CM2/S/A), Flux in erg/cm2/s/A
          147.2     1.00597e-11 
            151     4.33782e-11 
          155.2     2.00619e-10 
          158.8     6.98529e-10 
            162      2.01959e-9 
            166      7.17886e-9 
          170.3      2.62172e-8 
          173.4      6.40254e-8 
          176.8      1.64235e-7 
          180.2      4.06104e-7 
          181.7       5.9873e-7 
          186.1      1.80102e-6 
            191      5.76975e-6 
          193.9      1.11644e-5 
          198.4      2.98751e-5 
          201.8      6.09565e-5 
            205     0.000116582 
          210.5     0.000338561 
          216.2     0.000962085 
          219.8      0.00180668 
            223      0.00310639 
          226.8      0.00578904 
            230       0.0306846 
            234       0.0659263 
            240        0.148762 
          246.5        0.343477 
          252.4        0.712824 
          256.8         1.15287 
            260         1.71033 
            264         2.65418 
          268.5         4.27636 
          273.5          7.1244 
          278.5         11.6595 
            284          19.617 
            290         33.7726 
            296         56.7356 
            301         85.8568 
            308         146.468 
            318         319.459 
            328         645.333 
            338         1246.78 
            348         2312.53 
            357         3902.41 
            366         6412.41 
            375         10247.3 
            385         16790.1 
            395         26741.1 
            405         41530.4 
            414         60506.7 
            422         83222.2 
            430          112905 
            441          168599 
            451          238001 
            460          319793 
            470          437562 
            480          589604 
            490          783742 
            500      1.02785e+6 
            506      5.05129e+6 
            512      1.79495e+7 
            520      2.08274e+7 
            530      2.67734e+7 
            540      2.75958e+7 
            550      3.51224e+7 
            560      3.92767e+7 
            570      4.45918e+7 
            580      4.45961e+7 
            590      5.41003e+7 
            600      6.15074e+7 
            610      6.83793e+7 
            620      7.52224e+7 
            630      8.29877e+7 
            640      9.01263e+7 
            650      9.95457e+7 
            658      1.06807e+8 
            665      1.13277e+8 
            675      1.21777e+8 
            685      1.30893e+8 
            695      1.44164e+8 
            705      1.54497e+8 
            716      1.67349e+8 
            726      1.79332e+8 
            735      1.91696e+8 
            745      2.05047e+8 
            755      2.18698e+8 
            765      2.32459e+8 
            775      2.47222e+8 
            785      2.62172e+8 
            795       2.7701e+8 
            805      2.92692e+8 
            815      3.08377e+8 
            825      3.24957e+8 
            835      3.37407e+8 
            845      3.57896e+8 
            855      3.74181e+8 
            865      3.92512e+8 
            875       4.1057e+8 
            885      4.28598e+8 
            895      4.46606e+8 
            905      4.61537e+8 
            915      5.77992e+8 
            925      2.58005e+9 
            935      6.59667e+9 
            945     2.07938e+10 
            955     3.22182e+10 
            965     4.46545e+10 
            975     1.78916e+10 
            985     5.51218e+10 
            995     5.32925e+10 
           1005     5.58553e+10 
           1015     4.72857e+10 
           1025     1.25893e+10 
           1035     4.17832e+10 
           1045      5.1361e+10 
           1055     5.07913e+10 
           1065     4.79554e+10 
           1075     4.77324e+10 
           1085      4.3714e+10 
           1095     4.58978e+10 
           1105     4.40033e+10 
           1115     4.29176e+10 
           1125      4.0878e+10 
           1135     4.10762e+10 
           1145     3.95228e+10 
           1155     3.89995e+10 
           1165     3.80109e+10 
           1175     3.38985e+10 
           1185     3.57192e+10 
           1195     3.36386e+10 
           1205     2.83243e+10 
           1215      8.75456e+9 
           1225     2.61617e+10 
           1235     3.08502e+10 
           1245     3.05195e+10 
           1255     3.02359e+10 
           1265     2.94843e+10 
           1275     2.89843e+10 
           1285     2.83113e+10 
           1295     2.68649e+10 
           1305     2.65078e+10 
           1315     2.63676e+10 
           1325     2.55355e+10 
           1335      2.4664e+10 
           1345     2.45548e+10 
           1355     2.40582e+10 
           1365     2.34664e+10 
           1375     2.29669e+10 
           1385     2.24676e+10 
           1395     2.15562e+10 
           1405     2.11893e+10 
           1415     2.09944e+10 
           1425      2.0556e+10 
           1435      2.0137e+10 
           1442     1.98622e+10 
           1447     1.96443e+10 
           1455     1.93078e+10 
           1465     1.88924e+10 
           1475     1.85021e+10 
           1485      1.8117e+10 
           1495      1.7744e+10 
           1505     1.73244e+10 
           1512     1.70852e+10 
           1517     1.69253e+10 
           1525     1.66429e+10 
           1535     1.61933e+10 
           1545     1.58266e+10 
           1555      1.5485e+10 
           1565     1.53408e+10 
           1575     1.50702e+10 
           1585     1.47847e+10 
           1595     1.45051e+10 
           1605     1.41459e+10 
           1615     1.38721e+10 
           1625       1.367e+10 
           1635     1.33951e+10 
           1645     1.29039e+10 
           1655      1.2938e+10 
           1665     1.27118e+10 
           1672     1.25276e+10 
           1677     1.24482e+10 
           1685     1.22591e+10 
           1695      1.2026e+10 
           1705     1.17966e+10 
           1715     1.15626e+10 
           1725     1.13638e+10 
           1735     1.11813e+10 
           1745      1.0978e+10 
           1755     1.07964e+10 
           1765     1.05484e+10 
           1775     1.04006e+10 
           1785     1.02381e+10 
           1795     1.00705e+10 
           1805      9.90509e+9 
           1815      9.72431e+9 
           1825       9.5643e+9 
           1835      9.40228e+9 
           1845      9.20092e+9 
           1855      8.95385e+9 
           1865      8.84163e+9 
           1875      8.78036e+9 
           1885      8.57517e+9 
           1895      8.37003e+9 
           1905      8.33118e+9 
           1915      8.11824e+9 
           1925      7.98867e+9 
           1935      7.90279e+9 
           1945      7.81875e+9 
           1955      7.61891e+9 
           1967      7.54941e+9 
           1976      7.46806e+9 
           1984      7.33819e+9 
           1995       7.1634e+9 
           2005      7.12576e+9 
           2015      7.03035e+9 
           2025      6.93104e+9 
           2035      6.81069e+9 
           2045      6.70659e+9 
           2055      6.53407e+9 
           2065      6.41572e+9 
           2074      6.38434e+9 
           2078      6.28274e+9 
           2085      6.26983e+9 
           2095      6.16901e+9 
           2105      6.13111e+9 
           2115      6.05356e+9 
           2125      5.97094e+9 
           2135      5.88224e+9 
           2145      5.79305e+9 
           2155      5.71313e+9 
           2165      5.63226e+9 
           2175      5.55057e+9 
           2185       5.4721e+9 
           2195      5.39632e+9 
           2205      5.32006e+9 
           2215      5.24487e+9 
           2225       5.1712e+9 
           2235      5.09848e+9 
           2245      5.02916e+9 
           2255      4.95725e+9 
           2265      4.89132e+9 
           2275      4.82425e+9 
           2285      4.75859e+9 
           2295      4.66314e+9 
           2305      4.62816e+9 
           2315      4.56675e+9 
           2325      4.50553e+9 
           2335      4.44442e+9 
           2345      4.38563e+9 
           2355      4.32802e+9 
           2365      4.27055e+9 
           2375      4.21383e+9 
           2385      4.15651e+9 
           2395      4.10381e+9 
           2405      4.05048e+9 
           2415       3.9973e+9 
           2425      3.94633e+9 
           2435      3.89505e+9 
           2445      3.84504e+9 
           2455      3.79609e+9 
           2465       3.7475e+9 
           2475      3.69987e+9 
           2485      3.65283e+9 
           2495      3.57235e+9 
           2505      3.56087e+9 
           2513      3.51736e+9 
           2518      3.50317e+9 
           2525      3.47266e+9 
           2535      3.42931e+9 
           2545      3.38503e+9 
           2555      3.34485e+9 
           2565      3.30404e+9 
           2575      3.26377e+9 
           2585      3.22397e+9 
           2595      3.18473e+9 
           2605      3.16699e+9 
           2615      3.12871e+9 
           2625      3.09087e+9 
           2635      3.05188e+9 
           2645      3.01372e+9 
           2655      2.97417e+9 
           2665      2.93221e+9 
           2675      2.89117e+9 
           2685      2.87589e+9 
           2695      2.81823e+9 
           2705      2.80839e+9 
           2715      2.77538e+9 
           2725       2.7173e+9 
           2735         2.71e+9 
           2745      2.67874e+9 
           2755      2.64797e+9 
           2765       2.5916e+9 
           2775      2.58763e+9 
           2785      2.55786e+9 
           2795        2.523e+9 
           2805      2.49834e+9 
           2815      2.47135e+9 
           2825      2.41201e+9 
           2835      2.39634e+9 
           2845      2.38851e+9 
           2855      2.36168e+9 
           2865      2.33522e+9 
           2875       2.3092e+9 
           2885      2.28354e+9 
           2895      2.25817e+9 
           2910      2.22084e+9 
           2930      2.17224e+9 
           2950       2.1054e+9 
           2970      2.07927e+9 
           2990      2.03453e+9 
           3010      1.99111e+9 
           3030      1.94903e+9 
           3050      1.90793e+9 
           3070      1.86792e+9 
           3090       1.8287e+9 
           3110      1.79104e+9 
           3130      1.75592e+9 
           3150      1.71991e+9 
           3170      1.68463e+9 
           3190      1.63314e+9 
           3210      1.61629e+9 
           3230      1.58356e+9 
           3250      1.55157e+9 
           3270      1.52268e+9 
           3290      1.49034e+9 
           3310      1.46341e+9 
           3330      1.43487e+9 
           3350       1.4042e+9 
           3370      1.37985e+9 
           3390      1.35336e+9 
           3410      1.32752e+9 
           3430      1.29642e+9 
           3450      1.26694e+9 
           3470      1.24703e+9 
           3490      1.22374e+9 
           3510       1.2025e+9 
           3530      1.18159e+9 
           3550      1.16063e+9 
           3570      1.14761e+9 
           3590      1.11682e+9 
           3610      1.10188e+9 
           3630       1.0771e+9 
           3640      1.07711e+9 
           3650      1.06505e+9 
           3670      1.05084e+9 
           3690      1.03265e+9 
           3710      9.98556e+8 
           3730      9.62883e+8 
           3750      9.53899e+8 
           3770      9.28405e+8 
           3790      9.69487e+8 
           3810      1.01342e+9 
           3830      8.76738e+8 
           3850      1.04923e+9 
           3870      1.07677e+9 
           3890      8.20922e+8 
           3910      1.06035e+9 
           3930      1.06287e+9 
           3950      1.02833e+9 
           3970      7.62977e+8 
           3990      9.80768e+8 
           4010      9.91415e+8 
           4030      9.18645e+8 
           4050      9.73376e+8 
           4070      9.49186e+8 
           4090      8.40677e+8 
           4110       7.2435e+8 
           4130      8.84415e+8 
           4150      8.82648e+8 
           4170      8.78492e+8 
           4190      8.67228e+8 
           4210      8.52568e+8 
           4230      8.38082e+8 
           4250       8.2383e+8 
           4270      8.08507e+8 
           4290      7.92962e+8 
           4310      7.71241e+8 
           4330      6.71944e+8 
           4350      6.09397e+8 
           4370      7.29672e+8 
           4390       7.0091e+8 
           4410      7.18936e+8 
           4430      7.05414e+8 
           4450      6.96709e+8 
           4470       6.4207e+8 
           4490      6.73625e+8 
           4510      6.64848e+8 
           4530      6.54272e+8 
           4550      6.43857e+8 
           4570      6.33706e+8 
           4590      6.23779e+8 
           4610      6.14053e+8 
           4630      6.04453e+8 
           4650      5.94892e+8 
           4670      5.85869e+8 
           4690      5.76447e+8 
           4710      5.59165e+8 
           4730      5.59296e+8 
           4750      5.50739e+8 
           4770      5.42504e+8 
           4790      5.33435e+8 
           4810        5.237e+8 
           4830      5.10232e+8 
           4850      4.55343e+8 
           4870      4.03623e+8 
           4890      4.83892e+8 
           4910      4.83989e+8 
           4930      4.63346e+8 
           4950       4.7377e+8 
           4970      4.67173e+8 
           4990       4.6038e+8 
           5010      4.46625e+8 
           5030      4.47086e+8 
           5050      4.37554e+8 
           5070      4.34431e+8 
           5090      4.28232e+8 
           5110      4.22145e+8 
           5130      4.16155e+8 
           5150      4.10273e+8 
           5170      4.04511e+8 
           5190       3.9884e+8 
           5210      3.93272e+8 
           5230      3.87804e+8 
           5250      3.82422e+8 
           5270      3.77151e+8 
           5290      3.71949e+8 
           5310      3.66854e+8 
           5330      3.61839e+8 
           5350      3.56914e+8 
           5370      3.52066e+8 
           5390      3.47305e+8 
           5410      3.42618e+8 
           5430      3.38016e+8 
           5450      3.33498e+8 
           5470      3.29049e+8 
           5490      3.24669e+8 
           5510      3.20368e+8 
           5530      3.16145e+8 
           5550      3.11975e+8 
           5570      3.07881e+8 
           5590      3.03861e+8 
           5610      2.99903e+8 
           5630      2.96005e+8 
           5650      2.92167e+8 
           5670      2.88398e+8 
           5690      2.84676e+8 
           5710      2.81044e+8 
           5730      2.77456e+8 
           5750      2.73911e+8 
           5770      2.70443e+8 
           5790      2.67016e+8 
           5810      2.63652e+8 
           5830      2.60327e+8 
           5850      2.57064e+8 
           5870      2.43847e+8 
           5890      2.49849e+8 
           5910      2.47589e+8 
           5930      2.44519e+8 
           5950      2.41505e+8 
           5970      2.38536e+8 
           5990      2.35613e+8 
           6010      2.32733e+8 
           6030      2.29897e+8 
           6050      2.27103e+8 
           6070      2.24361e+8 
           6090      2.21651e+8 
           6110      2.18991e+8 
           6130      2.16362e+8 
           6150      2.13771e+8 
           6170       2.1123e+8 
           6190      2.08717e+8 
           6210      2.06241e+8 
           6230      2.03813e+8 
           6250      2.01411e+8 
           6270      1.99045e+8 
           6290      1.96715e+8 
           6310       1.9442e+8 
           6330      1.92159e+8 
           6350      1.89923e+8 
           6370      1.87729e+8 
           6390      1.85569e+8 
           6410      1.83431e+8 
           6430      1.81326e+8 
           6450      1.79253e+8 
           6470       1.7721e+8 
           6490      1.75091e+8 
           6510      1.72604e+8 
           6530       1.6948e+8 
           6550      1.58805e+8 
           6570      1.39774e+8 
           6590      1.62106e+8 
           6610      1.62816e+8 
           6630      1.61527e+8 
           6650      1.60165e+8 
           6670      1.56098e+8 
           6690      1.54451e+8 
           6710       1.5492e+8 
           6730      1.53219e+8 
           6750      1.51543e+8 
           6770      1.49885e+8 
           6790      1.48251e+8 
           6810      1.46643e+8 
           6830       1.4505e+8 
           6850      1.43482e+8 
           6870      1.41937e+8 
           6890      1.40408e+8 
           6910      1.38902e+8 
           6930      1.37419e+8 
           6950      1.35951e+8 
           6970      1.34505e+8 
           6990      1.33081e+8 
           7010      1.31671e+8 
           7030      1.30283e+8 
           7050      1.28915e+8 
           7070      1.25172e+8 
           7090      1.26228e+8 
           7110      1.24908e+8 
           7130      1.23608e+8 
           7150      1.22328e+8 
           7170      1.21046e+8 
           7190      1.19812e+8 
           7210      1.18576e+8 
           7230      1.17322e+8 
           7250      1.16153e+8 
           7270      1.14966e+8 
           7290      1.12719e+8 
           7310      1.12625e+8 
           7330        1.115e+8 
           7350      1.10371e+8 
           7370      1.09252e+8 
           7390      1.08158e+8 
           7410      1.07067e+8 
           7430         1.06e+8 
           7450      1.04957e+8 
           7470      1.03909e+8 
           7490      1.02879e+8 
           7510      1.01824e+8 
           7530      1.00852e+8 
           7550      9.98554e+7 
           7570      9.88748e+7 
           7590      9.79032e+7 
           7610      9.69469e+7 
           7630      9.59993e+7 
           7650      9.50602e+7 
           7670      9.41361e+7 
           7690      9.32266e+7 
           7710      9.23253e+7 
           7730       9.1432e+7 
           7750      9.05531e+7 
           7770      8.96819e+7 
           7790      8.88247e+7 
           7810      8.79256e+7 
           7830      8.71391e+7 
           7850      8.64022e+7 
           7870      8.55804e+7 
           7890      8.47174e+7 
           7910      8.39704e+7 
           7930      8.31819e+7 
           7950      8.23944e+7 
           7970      8.14832e+7 
           7990      8.07276e+7 
           8010      7.99198e+7 
           8030      7.91658e+7 
           8050      7.84241e+7 
           8070      7.77062e+7 
           8090      7.69137e+7 
           8110      7.62657e+7 
           8130       7.5623e+7 
           8150      7.48723e+7 
           8170      7.42465e+7 
           8190      7.35025e+7 
           8210      7.27703e+7 
           8230      7.22891e+7 
           8250      7.16512e+7 
           8270      7.06882e+7 
           8290      7.03365e+7 
           8310       6.9742e+7 
           8330      6.90709e+7 
           8350      6.81244e+7 
           8370      6.77508e+7 
           8390      6.72516e+7 
           8410      6.66551e+7 
           8430      6.60159e+7 
           8450      6.49756e+7 
           8470      6.48634e+7 
           8490      6.41349e+7 
           8510      6.36829e+7 
           8530      6.29756e+7 
           8550      6.23257e+7 
           8570       6.2189e+7 
           8590       6.0363e+7 
