# Kurucz ODFNEW /NOVER (2003)
# teff = 32000 K (value for the effective temperature for the model. Temperatures are given in K)
# logg = 5 log(cm/s2) (value for Log(G) for the model.)
# meta = 0.2  (value for the Metallicity for the model.)
# lh = 1.25  (l/Hp where l is the  mixing length of the convective element and Hp is the pressure scale height)
# vtur = 2 km/s (Microturbulence velocity)
# alpha = 0  (Alpha)
#
# column 1: WAVELENGTH (ANGSTROM), Wavelength in Angstrom
# column 2: FLUX (ERG/CM2/S/A), Flux in erg/cm2/s/A
          147.2      8.11866e-7 
            151      2.26705e-6 
          155.2      6.67076e-6 
          158.8      1.61179e-5 
            162      3.42522e-5 
            166      8.45098e-5 
          170.3     0.000212486 
          173.4     0.000403448 
          176.8     0.000792996 
          180.2      0.00152016 
          181.7       0.0020122 
          186.1      0.00446007 
            191       0.0103815 
          193.9       0.0167727 
          198.4       0.0343743 
          201.8       0.0578805 
            205       0.0930416 
          210.5        0.203837 
          216.2        0.439849 
          219.8        0.702414 
            223         1.05052 
          226.8         1.70237 
            230         266.488 
            234         574.947 
            240         976.815 
          246.5         1738.12 
          252.4          2904.4 
          256.8         4040.23 
            260         6360.37 
            264         9280.94 
          268.5           13651 
          273.5           19409 
          278.5         26195.4 
            284         51229.5 
            290         75166.7 
            296          104381 
            301          142503 
            308          273540 
            318          544321 
            328          831274 
            338      1.41964e+6 
            348      2.21541e+6 
            357      5.39308e+6 
            366      1.01821e+7 
            375      1.27982e+7 
            385      1.87047e+7 
            395      3.28137e+7 
            405      4.11376e+7 
            414      5.52315e+7 
            422      6.40519e+7 
            430      7.82758e+7 
            441       9.9168e+7 
            451      1.15774e+8 
            460      1.29843e+8 
            470      1.59069e+8 
            480      1.90376e+8 
            490       2.2155e+8 
            500      2.62324e+8 
            506      5.45445e+8 
            512      4.12766e+9 
            520      3.89756e+9 
            530      3.70694e+9 
            540      3.39289e+9 
            550      4.29509e+9 
            560      5.06218e+9 
            570      5.25601e+9 
            580      4.80151e+9 
            590      5.27097e+9 
            600      4.66077e+9 
            610      5.42628e+9 
            620      6.11881e+9 
            630      5.98999e+9 
            640      5.72406e+9 
            650      5.94965e+9 
            658      5.49018e+9 
            665      6.05885e+9 
            675      6.30384e+9 
            685      5.35912e+9 
            695      7.01414e+9 
            705      6.13894e+9 
            716      7.44191e+9 
            726      7.25546e+9 
            735      7.26157e+9 
            745      7.47045e+9 
            755      7.47346e+9 
            765      7.68426e+9 
            775      7.88113e+9 
            785      8.18537e+9 
            795      8.14645e+9 
            805       7.9581e+9 
            815      7.91091e+9 
            825      8.33689e+9 
            835      7.03398e+9 
            845      8.02448e+9 
            855      7.94764e+9 
            865      8.21758e+9 
            875      8.35017e+9 
            885      8.59687e+9 
            895      8.70166e+9 
            905      8.45568e+9 
            915      8.59495e+9 
            925     2.54835e+10 
            935     4.60578e+10 
            945     7.64744e+10 
            955     8.90123e+10 
            965     1.09965e+11 
            975     3.33888e+10 
            985     9.28908e+10 
            995     8.27528e+10 
           1005     8.94692e+10 
           1015      9.2103e+10 
           1025     5.54431e+10 
           1035      8.4319e+10 
           1045     1.05137e+11 
           1055     9.84179e+10 
           1065     8.07948e+10 
           1075     8.70703e+10 
           1085      7.8298e+10 
           1095     8.53766e+10 
           1105     8.04043e+10 
           1115     7.90807e+10 
           1125     6.23514e+10 
           1135     7.53649e+10 
           1145     7.02037e+10 
           1155     6.83183e+10 
           1165      6.5857e+10 
           1175     4.14242e+10 
           1185     6.00336e+10 
           1195     5.78275e+10 
           1205     5.22327e+10 
           1215     3.46048e+10 
           1225      5.2075e+10 
           1235     5.72347e+10 
           1245     5.49506e+10 
           1255     5.45591e+10 
           1265      5.5887e+10 
           1275     5.71713e+10 
           1285     5.69694e+10 
           1295     4.99266e+10 
           1305     5.10535e+10 
           1315     5.52101e+10 
           1325     5.22405e+10 
           1335     5.07168e+10 
           1345     4.99842e+10 
           1355     4.94051e+10 
           1365     4.66498e+10 
           1375     4.52105e+10 
           1385     4.34131e+10 
           1395     3.29179e+10 
           1405     3.44682e+10 
           1415     4.00338e+10 
           1425     3.63905e+10 
           1435     3.85854e+10 
           1442     3.87226e+10 
           1447     3.82881e+10 
           1455     3.65194e+10 
           1465     3.48219e+10 
           1475     3.50561e+10 
           1485      3.4811e+10 
           1495     3.37148e+10 
           1505     3.15401e+10 
           1512      2.9858e+10 
           1517     3.02852e+10 
           1525     2.98273e+10 
           1535     2.53389e+10 
           1545     2.27519e+10 
           1555     2.24228e+10 
           1565     2.47674e+10 
           1575     2.60576e+10 
           1585     2.61588e+10 
           1595     2.59902e+10 
           1605      2.5135e+10 
           1615     2.38368e+10 
           1625     2.42819e+10 
           1635     2.47313e+10 
           1645     2.45805e+10 
           1655     2.46681e+10 
           1665     2.43998e+10 
           1672      2.2754e+10 
           1677     2.60679e+10 
           1685     2.47144e+10 
           1695     2.36264e+10 
           1705     2.31336e+10 
           1715     2.21051e+10 
           1725     2.10836e+10 
           1735     2.18687e+10 
           1745     2.16015e+10 
           1755     2.13633e+10 
           1765      2.0995e+10 
           1775     2.00129e+10 
           1785     2.03226e+10 
           1795     2.01049e+10 
           1805     2.00747e+10 
           1815     1.89701e+10 
           1825     1.89574e+10 
           1835     1.86831e+10 
           1845     1.72283e+10 
           1855     1.75926e+10 
           1865     1.77251e+10 
           1875     1.75579e+10 
           1885     1.61963e+10 
           1895     1.54509e+10 
           1905     1.61695e+10 
           1915     1.55182e+10 
           1925     1.44932e+10 
           1935     1.54768e+10 
           1945      1.5808e+10 
           1955     1.41741e+10 
           1967     1.49909e+10 
           1976      1.5586e+10 
           1984     1.45935e+10 
           1995     1.43156e+10 
           2005     1.45583e+10 
           2015     1.45033e+10 
           2025     1.46066e+10 
           2035     1.36729e+10 
           2045     1.36224e+10 
           2055     1.18772e+10 
           2065     1.16185e+10 
           2074     1.19706e+10 
           2078     1.14282e+10 
           2085     1.17329e+10 
           2095     1.16821e+10 
           2105     1.25117e+10 
           2115     1.26244e+10 
           2125     1.25284e+10 
           2135     1.23113e+10 
           2145     1.19397e+10 
           2155     1.20725e+10 
           2165     1.17193e+10 
           2175      1.1736e+10 
           2185     1.14244e+10 
           2195     1.15341e+10 
           2205     1.13785e+10 
           2215     1.10464e+10 
           2225     1.09717e+10 
           2235     1.07584e+10 
           2245     1.06717e+10 
           2255     1.03269e+10 
           2265     1.03849e+10 
           2275     1.02509e+10 
           2285     1.00171e+10 
           2295       9.0459e+9 
           2305      9.58518e+9 
           2315      9.51028e+9 
           2325      9.43561e+9 
           2335      9.26031e+9 
           2345      9.22877e+9 
           2355      9.05885e+9 
           2365      8.93324e+9 
           2375      8.71792e+9 
           2385      8.46747e+9 
           2395      8.44288e+9 
           2405      8.38714e+9 
           2415      8.26551e+9 
           2425      8.20132e+9 
           2435       8.0102e+9 
           2445      7.94733e+9 
           2455      7.85897e+9 
           2465      7.75875e+9 
           2475      7.63284e+9 
           2485      7.45684e+9 
           2495      6.06517e+9 
           2505      7.15033e+9 
           2513      6.81614e+9 
           2518       6.9834e+9 
           2525      7.11255e+9 
           2535      7.05185e+9 
           2545      6.84764e+9 
           2555      6.79761e+9 
           2565      6.71551e+9 
           2575       6.6464e+9 
           2585      6.57873e+9 
           2595      6.48617e+9 
           2605      6.42758e+9 
           2615      6.31296e+9 
           2625      6.26058e+9 
           2635      6.18439e+9 
           2645      6.07417e+9 
           2655      6.01407e+9 
           2665      5.83005e+9 
           2675      5.75285e+9 
           2685      5.76808e+9 
           2695      5.57805e+9 
           2705      5.49723e+9 
           2715      5.45886e+9 
           2725      5.41887e+9 
           2735      5.31737e+9 
           2745      5.29619e+9 
           2755       5.2469e+9 
           2765      5.14594e+9 
           2775      5.16469e+9 
           2785      5.07327e+9 
           2795      4.88416e+9 
           2805      4.90685e+9 
           2815      4.91199e+9 
           2825      4.81968e+9 
           2835      4.68421e+9 
           2845      4.72702e+9 
           2855      4.64313e+9 
           2865      4.59103e+9 
           2875      4.53805e+9 
           2885      4.47962e+9 
           2895      4.42275e+9 
           2910      4.31445e+9 
           2930      4.25843e+9 
           2950      4.11621e+9 
           2970      4.04674e+9 
           2990      3.93101e+9 
           3010      3.80176e+9 
           3030      3.73599e+9 
           3050      3.67646e+9 
           3070      3.61816e+9 
           3090       3.4756e+9 
           3110      3.45223e+9 
           3130      3.35445e+9 
           3150      3.29217e+9 
           3170      3.20671e+9 
           3190      3.13468e+9 
           3210      3.07431e+9 
           3230      3.00422e+9 
           3250      2.95666e+9 
           3270      2.87734e+9 
           3290      2.82221e+9 
           3310      2.76328e+9 
           3330      2.69441e+9 
           3350      2.63887e+9 
           3370      2.58296e+9 
           3390      2.54529e+9 
           3410      2.49094e+9 
           3430      2.44013e+9 
           3450      2.37856e+9 
           3470      2.33389e+9 
           3490      2.28538e+9 
           3510      2.24244e+9 
           3530      2.20546e+9 
           3550      2.15925e+9 
           3570      2.12487e+9 
           3590      2.06147e+9 
           3610       2.0304e+9 
           3630      1.98784e+9 
           3640      1.98112e+9 
           3650      1.92512e+9 
           3670      1.89843e+9 
           3690      1.86396e+9 
           3710      1.79375e+9 
           3730      1.75404e+9 
           3750      1.72284e+9 
           3770      1.66138e+9 
           3790       1.7001e+9 
           3810      1.74588e+9 
           3830      1.55182e+9 
           3850      1.76133e+9 
           3870      1.74328e+9 
           3890      1.44763e+9 
           3910       1.7452e+9 
           3930      1.70987e+9 
           3950      1.65843e+9 
           3970      1.33686e+9 
           3990      1.60826e+9 
           4010      1.60606e+9 
           4030      1.51702e+9 
           4050      1.55903e+9 
           4070      1.48184e+9 
           4090      1.36329e+9 
           4110      1.22695e+9 
           4130      1.41547e+9 
           4150      1.40612e+9 
           4170      1.40248e+9 
           4190      1.37897e+9 
           4210      1.36108e+9 
           4230      1.33666e+9 
           4250      1.29539e+9 
           4270      1.26313e+9 
           4290       1.2427e+9 
           4310      1.20102e+9 
           4330      1.09437e+9 
           4350      1.01168e+9 
           4370      1.14211e+9 
           4390      1.12547e+9 
           4410      1.12453e+9 
           4430        1.118e+9 
           4450       1.0962e+9 
           4470      1.03847e+9 
           4490      1.06194e+9 
           4510      1.04797e+9 
           4530      1.03451e+9 
           4550      1.01508e+9 
           4570      1.00196e+9 
           4590      9.82768e+8 
           4610      9.59829e+8 
           4630      9.39745e+8 
           4650      9.00788e+8 
           4670      9.14664e+8 
           4690      9.00474e+8 
           4710      8.72974e+8 
           4730       8.8019e+8 
           4750      8.65163e+8 
           4770      8.60241e+8 
           4790      8.45322e+8 
           4810      8.26665e+8 
           4830      8.06316e+8 
           4850      7.43753e+8 
           4870      6.69862e+8 
           4890        7.691e+8 
           4910      7.63738e+8 
           4930      7.36536e+8 
           4950      7.40682e+8 
           4970      7.36472e+8 
           4990      7.24604e+8 
           5010      6.95746e+8 
           5030      7.00349e+8 
           5050       6.8725e+8 
           5070      6.82923e+8 
           5090      6.71387e+8 
           5110      6.60645e+8 
           5130      6.48246e+8 
           5150      6.39513e+8 
           5170      6.31939e+8 
           5190      6.24057e+8 
           5210      6.15209e+8 
           5230      6.06312e+8 
           5250      5.96876e+8 
           5270      5.87688e+8 
           5290      5.80749e+8 
           5310      5.72347e+8 
           5330      5.64479e+8 
           5350      5.56174e+8 
           5370      5.48786e+8 
           5390      5.40584e+8 
           5410      5.31549e+8 
           5430      5.26235e+8 
           5450      5.18638e+8 
           5470       5.1144e+8 
           5490      5.04396e+8 
           5510      4.98036e+8 
           5530      4.90498e+8 
           5550      4.84682e+8 
           5570      4.77953e+8 
           5590       4.7126e+8 
           5610      4.65272e+8 
           5630      4.59156e+8 
           5650      4.52264e+8 
           5670      4.44732e+8 
           5690       4.3556e+8 
           5710      4.31682e+8 
           5730      4.26735e+8 
           5750      4.19909e+8 
           5770      4.16211e+8 
           5790      4.10452e+8 
           5810      4.05053e+8 
           5830       3.9881e+8 
           5850      3.94579e+8 
           5870      3.77966e+8 
           5890      3.81745e+8 
           5910      3.78972e+8 
           5930      3.74084e+8 
           5950      3.69414e+8 
           5970      3.66435e+8 
           5990      3.60874e+8 
           6010      3.57412e+8 
           6030      3.52382e+8 
           6050      3.48369e+8 
           6070      3.44492e+8 
           6090      3.40272e+8 
           6110       3.3598e+8 
           6130      3.31986e+8 
           6150      3.26683e+8 
           6170      3.23084e+8 
           6190      3.19692e+8 
           6210      3.16044e+8 
           6230      3.12261e+8 
           6250      3.07932e+8 
           6270      3.04476e+8 
           6290      3.01019e+8 
           6310      2.97165e+8 
           6330      2.93861e+8 
           6350      2.89985e+8 
           6370      2.86969e+8 
           6390      2.83432e+8 
           6410      2.80098e+8 
           6430      2.76873e+8 
           6450      2.73502e+8 
           6470      2.69339e+8 
           6490      2.66518e+8 
           6510      2.63168e+8 
           6530      2.58819e+8 
           6550      2.46502e+8 
           6570      2.19213e+8 
           6590       2.4744e+8 
           6610      2.47936e+8 
           6630      2.46014e+8 
           6650      2.43199e+8 
           6670      2.37687e+8 
           6690      2.35131e+8 
           6710      2.35004e+8 
           6730       2.3187e+8 
           6750      2.29895e+8 
           6770      2.27445e+8 
           6790       2.2355e+8 
           6810      2.22149e+8 
           6830      2.19615e+8 
           6850      2.17395e+8 
           6870      2.14917e+8 
           6890      2.12227e+8 
           6910      2.09604e+8 
           6930      2.08004e+8 
           6950      2.05724e+8 
           6970      2.03483e+8 
           6990      2.01225e+8 
           7010      1.99005e+8 
           7030      1.96655e+8 
           7050      1.94639e+8 
           7070       1.8959e+8 
           7090      1.90553e+8 
           7110      1.87947e+8 
           7130      1.86012e+8 
           7150      1.84509e+8 
           7170      1.82499e+8 
           7190      1.80632e+8 
           7210      1.78726e+8 
           7230       1.7487e+8 
           7250       1.7463e+8 
           7270      1.73122e+8 
           7290      1.69969e+8 
           7310       1.6947e+8 
           7330      1.67677e+8 
           7350      1.65978e+8 
           7370      1.64288e+8 
           7390      1.62586e+8 
           7410      1.60906e+8 
           7430      1.59243e+8 
           7450      1.57595e+8 
           7470      1.55402e+8 
           7490      1.54183e+8 
           7510      1.52769e+8 
           7530      1.51148e+8 
           7550      1.49753e+8 
           7570      1.48227e+8 
           7590      1.46655e+8 
           7610      1.44994e+8 
           7630      1.43743e+8 
           7650      1.42323e+8 
           7670      1.40935e+8 
           7690      1.39445e+8 
           7710      1.38063e+8 
           7730        1.366e+8 
           7750      1.35425e+8 
           7770      1.33992e+8 
           7790      1.32784e+8 
           7810      1.31431e+8 
           7830      1.30196e+8 
           7850      1.28989e+8 
           7870      1.27495e+8 
           7890      1.26123e+8 
           7910      1.25137e+8 
           7930      1.23895e+8 
           7950       1.2279e+8 
           7970      1.21575e+8 
           7990      1.20425e+8 
           8010       1.1926e+8 
           8030      1.18094e+8 
           8050      1.17003e+8 
           8070      1.15874e+8 
           8090      1.14674e+8 
           8110      1.12941e+8 
           8130      1.12619e+8 
           8150      1.11495e+8 
           8170      1.10543e+8 
           8190      1.08937e+8 
           8210      1.07825e+8 
           8230      1.06634e+8 
           8250      1.06107e+8 
           8270      1.04322e+8 
           8290      1.04093e+8 
           8310       1.0326e+8 
           8330      1.02238e+8 
           8350      1.00928e+8 
           8370      1.00236e+8 
           8390      9.95448e+7 
           8410      9.85552e+7 
           8430      9.77118e+7 
           8450       9.6279e+7 
           8470      9.59613e+7 
           8490      9.49192e+7 
           8510      9.39793e+7 
           8530      9.31508e+7 
           8550      9.22981e+7 
           8570      9.17652e+7 
           8590      8.97149e+7 
