# Kurucz ODFNEW /NOVER (2003)
# teff = 9750 K (value for the effective temperature for the model. Temperatures are given in K)
# logg = 5 log(cm/s2) (value for Log(G) for the model.)
# meta = 0.2  (value for the Metallicity for the model.)
# lh = 1.25  (l/Hp where l is the  mixing length of the convective element and Hp is the pressure scale height)
# vtur = 2 km/s (Microturbulence velocity)
# alpha = 0  (Alpha)
#
# column 1: WAVELENGTH (ANGSTROM), Wavelength in Angstrom
# column 2: FLUX (ERG/CM2/S/A), Flux in erg/cm2/s/A
          273.5     1.75239e-23 
          278.5     1.12986e-22 
            284     5.04448e-22 
            290     2.35691e-21 
            296     1.03552e-20 
            301     3.42171e-20 
            308      1.7194e-19 
            318     1.54232e-18 
            328     1.22739e-17 
            338     8.69936e-17 
            348     5.55121e-16 
            357     2.70585e-15 
            366     1.22238e-14 
            375     5.15433e-14 
            385     2.35721e-13 
            395     9.98221e-13 
            405     3.94036e-12 
            414     1.27974e-11 
            422      3.4958e-11 
            430     9.19065e-11 
            441     3.27331e-10 
            451     9.83344e-10 
            460      2.53651e-9 
            470      6.95594e-9 
            480      1.82642e-8 
            490      4.60125e-8 
            500      1.11566e-7 
            506      1.87029e-7 
            512      3.15244e-7 
            520      6.01151e-7 
            530       1.3097e-6 
            540      2.76914e-6 
            550      5.69266e-6 
            560      1.13913e-5 
            570      2.22188e-5 
            580      4.22925e-5 
            590      7.86998e-5 
            600     0.000143241 
            610     0.000255348 
            620     0.000446283 
            630     0.000765362 
            640      0.00128903 
            650      0.00213447 
            658      0.00315757 
            665      0.00441094 
            675      0.00701963 
            685       0.0110098 
            695       0.0170284 
            705       0.0259862 
            716       0.0407618 
            726       0.0605947 
            735       0.0857121 
            745        0.124668 
            755        0.179375 
            765        0.255421 
            775        0.360117 
            785        0.502879 
            795        0.695789 
            805        0.954286 
            815         1.29769 
            825         1.75024 
            835         2.34205 
            845         3.11028 
            855         4.10034 
            865         5.36728 
            875         6.97832 
            885         9.01342 
            895         11.5682 
            905         14.7564 
            915         108.345 
            925         675.812 
            935          1041.9 
            945         1542.61 
            955         2121.48 
            965         2710.95 
            975         2601.41 
            985          3678.2 
            995         4066.29 
           1005         5082.74 
           1015         5889.59 
           1025         5221.59 
           1035         7702.16 
           1045         9048.89 
           1055         10388.1 
           1065         11554.4 
           1075           13613 
           1085         15535.8 
           1095         17092.3 
           1105         30105.6 
           1115         69192.9 
           1125         90534.1 
           1135          119561 
           1145          135744 
           1155          145013 
           1165          177511 
           1175          193046 
           1185          193716 
           1195          118494 
           1205          121649 
           1215         30077.6 
           1225          127856 
           1235          246397 
           1245          376942 
           1255      1.00201e+6 
           1265      1.77036e+6 
           1275      4.50302e+6 
           1285      1.13494e+7 
           1295      1.49312e+7 
           1305       7.5681e+6 
           1315      1.82621e+7 
           1325      2.31451e+7 
           1335      2.35479e+7 
           1345      3.15061e+7 
           1355      2.83036e+7 
           1365      2.67884e+7 
           1375      2.91261e+7 
           1385      2.25245e+7 
           1395      2.48472e+7 
           1405      3.10235e+7 
           1415      3.47579e+7 
           1425      4.12197e+7 
           1435      3.40538e+7 
           1442      4.40564e+7 
           1447      4.67266e+7 
           1455      4.81165e+7 
           1465      4.37301e+7 
           1475      4.40361e+7 
           1485      4.70428e+7 
           1495       5.3672e+7 
           1505      5.49719e+7 
           1512      4.72003e+7 
           1517      5.44036e+7 
           1525      5.23586e+7 
           1535      5.83235e+7 
           1545       7.9963e+7 
           1555      4.99372e+7 
           1565       4.3153e+7 
           1575      7.02925e+7 
           1585      9.19425e+7 
           1595      1.03204e+8 
           1605      1.04266e+8 
           1615      1.01336e+8 
           1625      8.13415e+7 
           1635      8.67532e+7 
           1645      1.17257e+8 
           1655       8.0034e+7 
           1665       1.1262e+8 
           1672      7.19086e+7 
           1677      1.08544e+8 
           1685      1.26403e+8 
           1695      9.74872e+7 
           1705      1.00578e+8 
           1715      1.06754e+8 
           1725      1.04871e+8 
           1735      1.16715e+8 
           1745       1.1266e+8 
           1755      1.28222e+8 
           1765      9.91277e+7 
           1775      1.21761e+8 
           1785      1.20933e+8 
           1795      1.36157e+8 
           1805      1.23564e+8 
           1815      1.23738e+8 
           1825      1.16368e+8 
           1835      1.11556e+8 
           1845      9.96854e+7 
           1855      1.09122e+8 
           1865      1.12806e+8 
           1875      1.16063e+8 
           1885      1.15217e+8 
           1895      1.16816e+8 
           1905      1.07994e+8 
           1915      1.16761e+8 
           1925      1.17331e+8 
           1935      1.05939e+8 
           1945      1.19929e+8 
           1955      1.18213e+8 
           1967      1.24068e+8 
           1976      1.21107e+8 
           1984      1.16696e+8 
           1995      1.12611e+8 
           2005      1.08304e+8 
           2015       1.0469e+8 
           2025      1.01839e+8 
           2035        1.083e+8 
           2045      1.14405e+8 
           2055      1.08442e+8 
           2065       1.0606e+8 
           2074      1.13155e+8 
           2078      1.16733e+8 
           2085      1.13836e+8 
           2095      1.09001e+8 
           2105      1.03759e+8 
           2115      1.04246e+8 
           2125      1.07005e+8 
           2135      8.91279e+7 
           2145       1.0144e+8 
           2155      1.01483e+8 
           2165      9.49133e+7 
           2175      9.33576e+7 
           2185      9.55983e+7 
           2195      1.01039e+8 
           2205      9.63669e+7 
           2215      8.73287e+7 
           2225      8.63629e+7 
           2235      9.74701e+7 
           2245      8.66847e+7 
           2255       8.3658e+7 
           2265      8.39196e+7 
           2275      8.91958e+7 
           2285       9.2811e+7 
           2295      8.62747e+7 
           2305      8.49605e+7 
           2315      8.22176e+7 
           2325      8.11077e+7 
           2335      7.62341e+7 
           2345      6.93031e+7 
           2355      8.14387e+7 
           2365      7.03856e+7 
           2375      7.50637e+7 
           2385      6.50799e+7 
           2395      7.22456e+7 
           2405      6.85587e+7 
           2415      7.02142e+7 
           2425      7.61323e+7 
           2435      7.22233e+7 
           2445       7.7526e+7 
           2455      7.47768e+7 
           2465      7.48905e+7 
           2475      7.09348e+7 
           2485      7.42267e+7 
           2495      7.09277e+7 
           2505      8.03706e+7 
           2513      7.05118e+7 
           2518      7.16759e+7 
           2525      6.64515e+7 
           2535      6.53069e+7 
           2545      6.39222e+7 
           2555       6.8859e+7 
           2565      6.89874e+7 
           2575      7.52195e+7 
           2585      7.57605e+7 
           2595      7.41596e+7 
           2605      7.08544e+7 
           2615      6.94321e+7 
           2625      7.51422e+7 
           2635      7.51264e+7 
           2645      8.42576e+7 
           2655      8.33141e+7 
           2665      7.48078e+7 
           2675      7.88878e+7 
           2685      7.85103e+7 
           2695      7.44742e+7 
           2705      7.65195e+7 
           2715       7.2042e+7 
           2725      7.28333e+7 
           2735      7.85417e+7 
           2745      6.59912e+7 
           2755      6.71906e+7 
           2765      6.94601e+7 
           2775      7.46842e+7 
           2785      7.15114e+7 
           2795      4.97819e+7 
           2805        5.796e+7 
           2815      7.63564e+7 
           2825      7.80449e+7 
           2835      7.47344e+7 
           2845      7.15663e+7 
           2855      6.87271e+7 
           2865        7.438e+7 
           2875      7.21452e+7 
           2885       7.3479e+7 
           2895      7.03787e+7 
           2910      7.80588e+7 
           2930      7.43901e+7 
           2950      7.40991e+7 
           2970      7.51844e+7 
           2990      7.52776e+7 
           3010      7.60769e+7 
           3030      7.50061e+7 
           3050      7.42929e+7 
           3070      7.36359e+7 
           3090      7.41338e+7 
           3110      7.22213e+7 
           3130      7.19204e+7 
           3150      7.27186e+7 
           3170      7.20475e+7 
           3190      6.89627e+7 
           3210      7.01791e+7 
           3230      6.83377e+7 
           3250      6.92076e+7 
           3270      6.94558e+7 
           3290      6.96999e+7 
           3310      6.97645e+7 
           3330      6.81747e+7 
           3350      6.70275e+7 
           3370      6.67484e+7 
           3390        6.615e+7 
           3410      6.67856e+7 
           3430      6.64317e+7 
           3450      6.57714e+7 
           3470      6.49247e+7 
           3490      6.45662e+7 
           3510      6.50312e+7 
           3530      6.47257e+7 
           3550       6.4683e+7 
           3570      6.31947e+7 
           3590      6.27117e+7 
           3610      6.23744e+7 
           3630      6.21778e+7 
           3640      6.17258e+7 
           3650      6.27029e+7 
           3670      6.24941e+7 
           3690       6.1171e+7 
           3710      5.95416e+7 
           3730       5.6235e+7 
           3750      6.26529e+7 
           3770      6.47493e+7 
           3790      7.77294e+7 
           3810       9.1314e+7 
           3830      7.29734e+7 
           3850      1.02447e+8 
           3870      1.19215e+8 
           3890      6.44484e+7 
           3910      1.20785e+8 
           3930      1.28533e+8 
           3950      1.21058e+8 
           3970      6.17744e+7 
           3990      1.15141e+8 
           4010      1.41915e+8 
           4030         1.45e+8 
           4050      1.42343e+8 
           4070      1.29649e+8 
           4090      9.00808e+7 
           4110      6.82868e+7 
           4130      1.18998e+8 
           4150       1.3321e+8 
           4170      1.35042e+8 
           4190      1.34009e+8 
           4210      1.33075e+8 
           4230      1.29773e+8 
           4250      1.28502e+8 
           4270      1.23561e+8 
           4290      1.21667e+8 
           4310      1.07944e+8 
           4330      7.40201e+7 
           4350      6.30719e+7 
           4370      1.03625e+8 
           4390      1.12428e+8 
           4410      1.13954e+8 
           4430      1.12756e+8 
           4450        1.143e+8 
           4470      1.12927e+8 
           4490       1.0987e+8 
           4510      1.10957e+8 
           4530      1.08804e+8 
           4550      1.06461e+8 
           4570      1.07087e+8 
           4590      1.04761e+8 
           4610      1.05064e+8 
           4630      1.02243e+8 
           4650      1.02247e+8 
           4670      1.00912e+8 
           4690      9.75371e+7 
           4710      9.38915e+7 
           4730      9.67347e+7 
           4750      9.54793e+7 
           4770      9.37349e+7 
           4790      9.16993e+7 
           4810      8.79162e+7 
           4830      7.98678e+7 
           4850      5.77622e+7 
           4870      4.70767e+7 
           4890      7.35353e+7 
           4910      8.17744e+7 
           4930      8.27584e+7 
           4950        8.361e+7 
           4970      8.36522e+7 
           4990      8.22765e+7 
           5010      8.02475e+7 
           5030      8.04043e+7 
           5050      7.87952e+7 
           5070      7.91318e+7 
           5090      7.82145e+7 
           5110      7.73885e+7 
           5130      7.63468e+7 
           5150      7.50874e+7 
           5170      7.32052e+7 
           5190      7.26505e+7 
           5210      7.25865e+7 
           5230      7.11606e+7 
           5250      7.13848e+7 
           5270      6.90589e+7 
           5290      6.97211e+7 
           5310      6.83925e+7 
           5330      6.71244e+7 
           5350       6.7446e+7 
           5370      6.64573e+7 
           5390      6.57796e+7 
           5410      6.45746e+7 
           5430       6.4303e+7 
           5450      6.38293e+7 
           5470      6.31041e+7 
           5490      6.24839e+7 
           5510      6.18586e+7 
           5530      6.09993e+7 
           5550      6.05531e+7 
           5570       5.9813e+7 
           5590      5.91495e+7 
           5610      5.86603e+7 
           5630       5.8129e+7 
           5650      5.74349e+7 
           5670      5.67504e+7 
           5690      5.62428e+7 
           5710      5.56761e+7 
           5730       5.5209e+7 
           5750       5.4494e+7 
           5770      5.39766e+7 
           5790      5.33796e+7 
           5810      5.28654e+7 
           5830      5.23426e+7 
           5850      5.17839e+7 
           5870       5.1202e+7 
           5890      5.02511e+7 
           5910      5.01855e+7 
           5930      4.96997e+7 
           5950      4.90927e+7 
           5970      4.86565e+7 
           5990      4.80602e+7 
           6010      4.75301e+7 
           6030       4.7177e+7 
           6050      4.66845e+7 
           6070      4.62823e+7 
           6090       4.5799e+7 
           6110      4.53109e+7 
           6130      4.47741e+7 
           6150      4.37991e+7 
           6170      4.38076e+7 
           6190      4.35829e+7 
           6210      4.31395e+7 
           6230       4.2663e+7 
           6250      4.19632e+7 
           6270      4.18991e+7 
           6290      4.14931e+7 
           6310      4.09892e+7 
           6330      4.06384e+7 
           6350      3.98036e+7 
           6370      3.95596e+7 
           6390      3.93834e+7 
           6410       3.8885e+7 
           6430      3.85423e+7 
           6450      3.77821e+7 
           6470      3.75767e+7 
           6490      3.68223e+7 
           6510      3.59003e+7 
           6530      3.38077e+7 
           6550      2.81442e+7 
           6570      2.29355e+7 
           6590      3.12162e+7 
           6610      3.37617e+7 
           6630      3.43991e+7 
           6650      3.44472e+7 
           6670      3.42825e+7 
           6690      3.40904e+7 
           6710      3.38373e+7 
           6730      3.35117e+7 
           6750      3.32167e+7 
           6770      3.30289e+7 
           6790      3.27227e+7 
           6810      3.24341e+7 
           6830      3.21031e+7 
           6850      3.18292e+7 
           6870      3.15611e+7 
           6890      3.12814e+7 
           6910      3.09948e+7 
           6930      3.06985e+7 
           6950      3.04363e+7 
           6970      3.01587e+7 
           6990      2.99054e+7 
           7010      2.95211e+7 
           7030      2.93344e+7 
           7050      2.90848e+7 
           7070      2.88526e+7 
           7090      2.86046e+7 
           7110      2.80035e+7 
           7130      2.80245e+7 
           7150      2.77869e+7 
           7170      2.75786e+7 
           7190      2.73328e+7 
           7210      2.71118e+7 
           7230      2.68698e+7 
           7250      2.65812e+7 
           7270      2.64238e+7 
           7290      2.61535e+7 
           7310      2.59507e+7 
           7330      2.57335e+7 
           7350      2.55351e+7 
           7370      2.53197e+7 
           7390      2.50787e+7 
           7410      2.48303e+7 
           7430       2.4533e+7 
           7450      2.43892e+7 
           7470      2.40826e+7 
           7490      2.39515e+7 
           7510      2.38094e+7 
           7530      2.36306e+7 
           7550        2.346e+7 
           7570      2.32566e+7 
           7590      2.30688e+7 
           7610      2.28788e+7 
           7630       2.2682e+7 
           7650      2.24798e+7 
           7670      2.22622e+7 
           7690      2.20943e+7 
           7710      2.19171e+7 
           7730      2.17597e+7 
           7750      2.15735e+7 
           7770      2.09341e+7 
           7790      2.12365e+7 
           7810      2.10611e+7 
           7830       2.0856e+7 
           7850      2.06465e+7 
           7870      2.04152e+7 
           7890      2.02023e+7 
           7910      2.01346e+7 
           7930       2.0008e+7 
           7950      1.97477e+7 
           7970      1.97377e+7 
           7990      1.93487e+7 
           8010      1.94089e+7 
           8030      1.92393e+7 
           8050      1.91055e+7 
           8070      1.89426e+7 
           8090      1.87967e+7 
           8110      1.86595e+7 
           8130      1.85244e+7 
           8150      1.83786e+7 
           8170      1.82363e+7 
           8190      1.79367e+7 
           8210      1.78438e+7 
           8230      1.76821e+7 
           8250      1.76026e+7 
           8270      1.76222e+7 
           8290      1.74737e+7 
           8310      1.73542e+7 
           8330      1.71238e+7 
           8350      1.71089e+7 
           8370      1.70004e+7 
           8390      1.68632e+7 
           8410      1.67437e+7 
           8430      1.65959e+7 
           8450      1.62431e+7 
           8470      1.63009e+7 
           8490      1.61897e+7 
           8510      1.57886e+7 
           8530      1.59544e+7 
           8550      1.50893e+7 
           8570      1.58207e+7 
           8590      1.51962e+7 
           8610      1.49956e+7 
           8630       1.5608e+7 
           8650      1.50264e+7 
           8670      1.34606e+7 
           8690      1.50101e+7 
           8710      1.54915e+7 
           8730      1.47829e+7 
           8750      1.24608e+7 
           8770      1.40807e+7 
           8790      1.52815e+7 
           8810      1.54146e+7 
           8830      1.48201e+7 
           8850      1.30495e+7 
           8870      1.14872e+7 
           8890      1.39624e+7 
           8910      1.48897e+7 
           8930      1.51476e+7 
           8950      1.51868e+7 
           8970      1.46921e+7 
           8990      1.35617e+7 
           9010      1.09487e+7 
           9030      1.17434e+7 
           9050      1.36433e+7 
           9070      1.41373e+7 
           9090      1.42447e+7 
           9110      1.45554e+7 
           9130      1.45518e+7 
           9150      1.44073e+7 
           9170        1.403e+7 
           9190       1.3324e+7 
           9210      1.19489e+7 
