# Kurucz ODFNEW /NOVER (2003)
# teff = 29000 K (value for the effective temperature for the model. Temperatures are given in K)
# logg = 5 log(cm/s2) (value for Log(G) for the model.)
# meta = 0  (value for the Metallicity for the model.)
# lh = 1.25  (l/Hp where l is the  mixing length of the convective element and Hp is the pressure scale height)
# vtur = 2 km/s (Microturbulence velocity)
# alpha = 0.4  (Alpha)
#
# column 1: WAVELENGTH (ANGSTROM), Wavelength in Angstrom
# column 2: FLUX (ERG/CM2/S/A), Flux in erg/cm2/s/A
          147.2     9.08083e-10 
            151      2.92795e-9 
          155.2      1.00294e-8 
          158.8      2.74583e-8 
            162      6.49702e-8 
            166      1.82554e-7 
          170.3      5.25292e-7 
          173.4      1.09833e-6 
          176.8      2.39247e-6 
          180.2      5.07572e-6 
          181.7      7.00629e-6 
          186.1      1.75892e-5 
            191      4.68823e-5 
          193.9      8.19036e-5 
          198.4     0.000188975 
          201.8     0.000347411 
            205     0.000605663 
          210.5      0.00151898 
          216.2      0.00375912 
          219.8       0.0065133 
            223       0.0104688 
          226.8       0.0183318 
            230        0.983485 
            234         2.08895 
            240         4.15652 
          246.5         8.51206 
          252.4         15.9543 
          256.8         23.9207 
            260          35.422 
            264         50.1895 
          268.5          78.134 
          273.5         122.247 
          278.5         185.367 
            284         328.349 
            290         522.359 
            296         818.076 
            301         1165.77 
            308         2022.12 
            318          4182.9 
            328         7478.28 
            338         13971.9 
            348         24220.6 
            357         98059.8 
            366          200362 
            375          278612 
            385          439698 
            395          856826 
            405      1.17836e+6 
            414      1.70603e+6 
            422      2.10501e+6 
            430      2.75589e+6 
            441      3.76359e+6 
            451      4.85171e+6 
            460      5.89877e+6 
            470      7.68671e+6 
            480       9.6635e+6 
            490      1.21857e+7 
            500       1.5137e+7 
            506       4.9583e+7 
            512      3.05357e+8 
            520       3.1161e+8 
            530        3.397e+8 
            540      3.24897e+8 
            550      4.43383e+8 
            560      5.08128e+8 
            570      5.60769e+8 
            580      5.22695e+8 
            590      6.34747e+8 
            600       6.3571e+8 
            610       7.2425e+8 
            620      7.82341e+8 
            630      8.05047e+8 
            640      7.59345e+8 
            650      8.04293e+8 
            658      8.55256e+8 
            665      9.29673e+8 
            675      9.43756e+8 
            685      9.10863e+8 
            695      1.15813e+9 
            705      1.10671e+9 
            716      1.26704e+9 
            726      1.26783e+9 
            735      1.30587e+9 
            745      1.42845e+9 
            755      1.47017e+9 
            765      1.54509e+9 
            775      1.61198e+9 
            785      1.69472e+9 
            795      1.70648e+9 
            805      1.73702e+9 
            815      1.75489e+9 
            825      1.86919e+9 
            835       1.6152e+9 
            845      1.87445e+9 
            855      1.89054e+9 
            865      1.97613e+9 
            875      2.04567e+9 
            885       2.1541e+9 
            895      2.21473e+9 
            905      2.18289e+9 
            915      2.39431e+9 
            925       8.8011e+9 
            935     1.93177e+10 
            945     4.11265e+10 
            955     5.33603e+10 
            965     6.92108e+10 
            975     1.61198e+10 
            985     6.42699e+10 
            995      5.7132e+10 
           1005     6.30838e+10 
           1015     6.27501e+10 
           1025     2.75709e+10 
           1035     5.30862e+10 
           1045     7.41505e+10 
           1055     6.91501e+10 
           1065     5.35122e+10 
           1075     6.09026e+10 
           1085     5.57114e+10 
           1095      6.1749e+10 
           1105     5.55981e+10 
           1115     5.33507e+10 
           1125     4.02083e+10 
           1135     5.38296e+10 
           1145     4.73618e+10 
           1155     4.82679e+10 
           1165     4.82311e+10 
           1175     3.05668e+10 
           1185     4.47066e+10 
           1195      4.1115e+10 
           1205     3.05244e+10 
           1215      1.9037e+10 
           1225     3.56966e+10 
           1235      4.1612e+10 
           1245     4.05622e+10 
           1255     3.99231e+10 
           1265     4.04668e+10 
           1275     4.12065e+10 
           1285     4.06497e+10 
           1295     3.02727e+10 
           1305     3.21708e+10 
           1315     3.90318e+10 
           1325     3.63656e+10 
           1335     3.55861e+10 
           1345     3.44404e+10 
           1355      3.4847e+10 
           1365     3.17442e+10 
           1375     3.06803e+10 
           1385      2.9689e+10 
           1395     1.97616e+10 
           1405     2.20825e+10 
           1415     2.69928e+10 
           1425     2.56561e+10 
           1435     2.66517e+10 
           1442     2.73774e+10 
           1447     2.69006e+10 
           1455     2.58671e+10 
           1465     2.42637e+10 
           1475     2.44154e+10 
           1485     2.39203e+10 
           1495     2.33603e+10 
           1505     2.11016e+10 
           1512      1.9651e+10 
           1517     2.00766e+10 
           1525     2.03298e+10 
           1535     1.73078e+10 
           1545     1.65384e+10 
           1555     1.59991e+10 
           1565      1.7232e+10 
           1575     1.81468e+10 
           1585     1.79065e+10 
           1595     1.79641e+10 
           1605     1.77263e+10 
           1615      1.7025e+10 
           1625     1.69731e+10 
           1635     1.75539e+10 
           1645      1.7426e+10 
           1655     1.72793e+10 
           1665     1.72246e+10 
           1672     1.64284e+10 
           1677     1.80345e+10 
           1685     1.73369e+10 
           1695     1.64996e+10 
           1705     1.59451e+10 
           1715     1.52794e+10 
           1725     1.46862e+10 
           1735     1.51769e+10 
           1745     1.49787e+10 
           1755     1.48746e+10 
           1765      1.4594e+10 
           1775     1.37748e+10 
           1785     1.38999e+10 
           1795     1.40846e+10 
           1805     1.40908e+10 
           1815     1.29868e+10 
           1825     1.32373e+10 
           1835     1.28305e+10 
           1845     1.16925e+10 
           1855     1.18941e+10 
           1865      1.2029e+10 
           1875     1.21421e+10 
           1885     1.10117e+10 
           1895     1.03135e+10 
           1905     1.09831e+10 
           1915      1.0428e+10 
           1925      9.85116e+9 
           1935     1.04128e+10 
           1945     1.06515e+10 
           1955      9.59776e+9 
           1967     1.02199e+10 
           1976     1.07194e+10 
           1984      9.87989e+9 
           1995      9.73622e+9 
           2005      9.92235e+9 
           2015      9.85288e+9 
           2025      9.98456e+9 
           2035      9.25079e+9 
           2045      9.29927e+9 
           2055      8.70862e+9 
           2065      8.69321e+9 
           2074      8.90002e+9 
           2078      8.36466e+9 
           2085      8.59803e+9 
           2095      8.25083e+9 
           2105      8.63982e+9 
           2115      8.65011e+9 
           2125      8.66983e+9 
           2135      8.48798e+9 
           2145      8.14963e+9 
           2155      8.34738e+9 
           2165      8.22624e+9 
           2175      8.10379e+9 
           2185      7.92168e+9 
           2195      7.94115e+9 
           2205      7.86618e+9 
           2215      7.72621e+9 
           2225      7.54726e+9 
           2235      7.41539e+9 
           2245      7.42004e+9 
           2255      7.20598e+9 
           2265      7.22261e+9 
           2275      7.11332e+9 
           2285       7.0061e+9 
           2295      6.44822e+9 
           2305      6.76656e+9 
           2315      6.63119e+9 
           2325      6.55782e+9 
           2335      6.40331e+9 
           2345      6.42472e+9 
           2355      6.34772e+9 
           2365      6.27637e+9 
           2375      6.13026e+9 
           2385      6.05657e+9 
           2395      5.97385e+9 
           2405       5.8994e+9 
           2415      5.80155e+9 
           2425      5.77174e+9 
           2435      5.61889e+9 
           2445      5.58802e+9 
           2455      5.54341e+9 
           2465      5.47831e+9 
           2475      5.38474e+9 
           2485      5.27268e+9 
           2495      4.40781e+9 
           2505      5.07511e+9 
           2513      4.89717e+9 
           2518      4.98992e+9 
           2525      5.02174e+9 
           2535      4.98501e+9 
           2545      4.78172e+9 
           2555      4.81026e+9 
           2565       4.7312e+9 
           2575      4.72845e+9 
           2585      4.67761e+9 
           2595      4.62272e+9 
           2605      4.57897e+9 
           2615      4.51267e+9 
           2625      4.47157e+9 
           2635      4.41643e+9 
           2645       4.3516e+9 
           2655      4.30263e+9 
           2665        4.164e+9 
           2675       4.1524e+9 
           2685      4.14186e+9 
           2695      4.00106e+9 
           2705      3.94774e+9 
           2715      3.93241e+9 
           2725      3.88854e+9 
           2735      3.85295e+9 
           2745      3.79243e+9 
           2755      3.76634e+9 
           2765      3.70081e+9 
           2775      3.72056e+9 
           2785      3.65426e+9 
           2795      3.50923e+9 
           2805      3.54315e+9 
           2815      3.54731e+9 
           2825      3.47763e+9 
           2835      3.37439e+9 
           2845      3.41797e+9 
           2855      3.35353e+9 
           2865      3.33026e+9 
           2875      3.28799e+9 
           2885      3.25215e+9 
           2895      3.20599e+9 
           2910      3.12493e+9 
           2930      3.08544e+9 
           2950      2.98808e+9 
           2970      2.94605e+9 
           2990      2.86876e+9 
           3010      2.76402e+9 
           3030       2.7325e+9 
           3050      2.69107e+9 
           3070       2.6504e+9 
           3090      2.53611e+9 
           3110      2.52755e+9 
           3130      2.45551e+9 
           3150      2.41604e+9 
           3170      2.35604e+9 
           3190      2.29878e+9 
           3210      2.27056e+9 
           3230      2.21104e+9 
           3250      2.17756e+9 
           3270      2.12574e+9 
           3290      2.08212e+9 
           3310      2.04246e+9 
           3330      1.99591e+9 
           3350      1.95896e+9 
           3370      1.91594e+9 
           3390      1.88701e+9 
           3410      1.84939e+9 
           3430      1.81094e+9 
           3450      1.76741e+9 
           3470       1.7337e+9 
           3490       1.6983e+9 
           3510       1.6698e+9 
           3530      1.64352e+9 
           3550      1.61059e+9 
           3570      1.58807e+9 
           3590      1.53868e+9 
           3610       1.5196e+9 
           3630      1.48703e+9 
           3640        1.487e+9 
           3650       1.4636e+9 
           3670      1.44629e+9 
           3690      1.42161e+9 
           3710      1.36726e+9 
           3730      1.32835e+9 
           3750      1.30827e+9 
           3770      1.26294e+9 
           3790      1.30076e+9 
           3810      1.34299e+9 
           3830      1.18161e+9 
           3850      1.36357e+9 
           3870      1.36684e+9 
           3890      1.10481e+9 
           3910      1.36832e+9 
           3930       1.3407e+9 
           3950      1.30704e+9 
           3970      1.02476e+9 
           3990       1.2614e+9 
           4010      1.27075e+9 
           4030      1.18949e+9 
           4050      1.23355e+9 
           4070      1.16522e+9 
           4090      1.06395e+9 
           4110      9.47973e+8 
           4130      1.11412e+9 
           4150      1.11257e+9 
           4170      1.11286e+9 
           4190      1.09563e+9 
           4210      1.08718e+9 
           4230       1.0625e+9 
           4250      1.02662e+9 
           4270      9.98329e+8 
           4290      9.83168e+8 
           4310      9.49566e+8 
           4330       8.5833e+8 
           4350       7.8595e+8 
           4370      9.04297e+8 
           4390      8.91796e+8 
           4410      8.95018e+8 
           4430      8.90775e+8 
           4450      8.72076e+8 
           4470      8.20189e+8 
           4490      8.43489e+8 
           4510      8.40321e+8 
           4530      8.27704e+8 
           4550      8.14074e+8 
           4570      7.99677e+8 
           4590      7.84891e+8 
           4610      7.66573e+8 
           4630      7.55448e+8 
           4650      7.28335e+8 
           4670      7.32284e+8 
           4690      7.25144e+8 
           4710      6.93254e+8 
           4730      7.03721e+8 
           4750      6.91145e+8 
           4770      6.89319e+8 
           4790      6.76892e+8 
           4810      6.60218e+8 
           4830      6.42521e+8 
           4850      5.88017e+8 
           4870      5.26474e+8 
           4890      6.14656e+8 
           4910      6.11925e+8 
           4930      5.87982e+8 
           4950      5.93603e+8 
           4970      5.91688e+8 
           4990      5.82082e+8 
           5010      5.57858e+8 
           5030      5.63228e+8 
           5050      5.50459e+8 
           5070      5.49231e+8 
           5090      5.39165e+8 
           5110      5.30942e+8 
           5130      5.21457e+8 
           5150      5.14574e+8 
           5170      5.08669e+8 
           5190      5.02449e+8 
           5210      4.93921e+8 
           5230      4.88636e+8 
           5250      4.81831e+8 
           5270      4.74179e+8 
           5290      4.68446e+8 
           5310      4.61664e+8 
           5330      4.55249e+8 
           5350      4.48219e+8 
           5370      4.43097e+8 
           5390      4.36365e+8 
           5410      4.30673e+8 
           5430      4.24645e+8 
           5450      4.18388e+8 
           5470      4.12829e+8 
           5490      4.07714e+8 
           5510      4.02724e+8 
           5530      3.96737e+8 
           5550      3.92011e+8 
           5570      3.86639e+8 
           5590      3.81671e+8 
           5610      3.76357e+8 
           5630      3.71774e+8 
           5650      3.65453e+8 
           5670      3.59575e+8 
           5690      3.53945e+8 
           5710      3.51192e+8 
           5730      3.47472e+8 
           5750      3.41606e+8 
           5770      3.39016e+8 
           5790      3.34441e+8 
           5810      3.30145e+8 
           5830      3.25368e+8 
           5850      3.21617e+8 
           5870      3.06713e+8 
           5890      3.10759e+8 
           5910      3.08637e+8 
           5930       3.0478e+8 
           5950       3.0066e+8 
           5970      2.98416e+8 
           5990      2.93623e+8 
           6010      2.90755e+8 
           6030      2.86736e+8 
           6050      2.83475e+8 
           6070       2.8025e+8 
           6090      2.76828e+8 
           6110      2.73454e+8 
           6130      2.70269e+8 
           6150      2.65805e+8 
           6170      2.63085e+8 
           6190      2.60395e+8 
           6210       2.5743e+8 
           6230      2.54421e+8 
           6250      2.50915e+8 
           6270      2.48109e+8 
           6290      2.45334e+8 
           6310      2.42145e+8 
           6330      2.39611e+8 
           6350      2.36011e+8 
           6370      2.33863e+8 
           6390      2.31119e+8 
           6410      2.28386e+8 
           6430      2.25974e+8 
           6450      2.23244e+8 
           6470      2.19805e+8 
           6490      2.17522e+8 
           6510      2.14828e+8 
           6530      2.10863e+8 
           6550      1.99839e+8 
           6570       1.7643e+8 
           6590      2.01498e+8 
           6610      2.02496e+8 
           6630      2.01028e+8 
           6650      1.98688e+8 
           6670      1.94263e+8 
           6690      1.92262e+8 
           6710      1.92381e+8 
           6730      1.89767e+8 
           6750      1.88272e+8 
           6770      1.86207e+8 
           6790      1.83012e+8 
           6810      1.81882e+8 
           6830      1.79671e+8 
           6850      1.78046e+8 
           6870      1.76077e+8 
           6890      1.73858e+8 
           6910      1.71646e+8 
           6930      1.70413e+8 
           6950      1.68638e+8 
           6970      1.66826e+8 
           6990      1.64994e+8 
           7010      1.63203e+8 
           7030      1.61422e+8 
           7050      1.59734e+8 
           7070      1.55342e+8 
           7090      1.56363e+8 
           7110       1.5433e+8 
           7130      1.52761e+8 
           7150      1.51436e+8 
           7170      1.49882e+8 
           7190      1.48342e+8 
           7210      1.46788e+8 
           7230      1.43498e+8 
           7250      1.43403e+8 
           7270      1.42244e+8 
           7290      1.39565e+8 
           7310      1.39296e+8 
           7330      1.37849e+8 
           7350      1.36459e+8 
           7370      1.35088e+8 
           7390      1.33709e+8 
           7410       1.3235e+8 
           7430      1.30936e+8 
           7450      1.29643e+8 
           7470      1.27546e+8 
           7490      1.26946e+8 
           7510      1.25737e+8 
           7530      1.24398e+8 
           7550      1.23284e+8 
           7570      1.22068e+8 
           7590      1.20824e+8 
           7610      1.19377e+8 
           7630      1.18435e+8 
           7650      1.17263e+8 
           7670      1.16133e+8 
           7690      1.14976e+8 
           7710      1.13848e+8 
           7730      1.12654e+8 
           7750      1.11653e+8 
           7770      1.10087e+8 
           7790      1.09497e+8 
           7810      1.08388e+8 
           7830      1.07392e+8 
           7850      1.06344e+8 
           7870      1.05117e+8 
           7890      1.03901e+8 
           7910      1.03304e+8 
           7930      1.02305e+8 
           7950      1.01236e+8 
           7970      1.00319e+8 
           7990      9.92926e+7 
           8010      9.84568e+7 
           8030      9.74645e+7 
           8050      9.65332e+7 
           8070      9.56851e+7 
           8090        9.466e+7 
           8110      9.31226e+7 
           8130      9.30069e+7 
           8150        9.212e+7 
           8170      9.13591e+7 
           8190      8.99362e+7 
           8210      8.92806e+7 
           8230        8.838e+7 
           8250      8.79686e+7 
           8270      8.62436e+7 
           8290      8.62611e+7 
           8310      8.56063e+7 
           8330      8.48211e+7 
           8350      8.36804e+7 
           8370      8.30767e+7 
           8390      8.25419e+7 
           8410      8.17396e+7 
           8430      8.10395e+7 
           8450      7.96486e+7 
           8470       7.9609e+7 
           8490       7.8696e+7 
           8510      7.80924e+7 
           8530      7.72917e+7 
           8550      7.65234e+7 
           8570      7.62026e+7 
           8590      7.42552e+7 
