# Kurucz ODFNEW /NOVER (2003)
# teff = 25000 K (value for the effective temperature for the model. Temperatures are given in K)
# logg = 4 log(cm/s2) (value for Log(G) for the model.)
# meta = -0.5  (value for the Metallicity for the model.)
# lh = 1.25  (l/Hp where l is the  mixing length of the convective element and Hp is the pressure scale height)
# vtur = 2 km/s (Microturbulence velocity)
# alpha = 0  (Alpha)
#
# column 1: WAVELENGTH (ANGSTROM), Wavelength in Angstrom
# column 2: FLUX (ERG/CM2/S/A), Flux in erg/cm2/s/A
          147.2     3.31162e-14 
            151     1.45486e-13 
          155.2     6.91694e-13 
          158.8     2.47991e-12 
            162      7.3909e-12 
            166     2.74043e-11 
          170.3     1.05116e-10 
          173.4     2.66701e-10 
          176.8     7.14452e-10 
          180.2      1.84745e-9 
          181.7      2.77878e-9 
          186.1      8.88164e-9 
            191      3.04886e-8 
          193.9      6.14786e-8 
          198.4      1.75422e-7 
          201.8       3.7571e-7 
            205      7.52159e-7 
          210.5      2.36273e-6 
          216.2      7.27645e-6 
          219.8       1.4366e-5 
            223      2.58133e-5 
          226.8      5.06742e-5 
            230      0.00494947 
            234       0.0114596 
            240       0.0262409 
          246.5       0.0619218 
          252.4        0.131353 
          256.8        0.208895 
            260        0.331266 
            264        0.514403 
          268.5        0.842899 
          273.5         1.42246 
          278.5         2.36328 
            284         4.16118 
            290         7.23088 
            296         12.3309 
            301         18.6907 
            308         32.3181 
            318         75.1827 
            328         152.122 
            338         308.532 
            348         584.736 
            357         1230.99 
            366         2128.77 
            375         3335.58 
            385         5561.79 
            395         9110.32 
            405         14147.7 
            414         20971.8 
            422         28548.1 
            430           39527 
            441         59604.6 
            451         84663.7 
            460          113425 
            470          158173 
            480          214428 
            490          289710 
            500          384791 
            506      2.45472e+6 
            512      1.08528e+7 
            520      1.25467e+7 
            530      1.52341e+7 
            540      1.64218e+7 
            550      2.22962e+7 
            560      2.57704e+7 
            570      3.07657e+7 
            580      3.03746e+7 
            590      3.87216e+7 
            600      4.37017e+7 
            610       5.0701e+7 
            620      5.60449e+7 
            630      6.15932e+7 
            640      6.21898e+7 
            650      5.92468e+7 
            658      7.55592e+7 
            665       8.4882e+7 
            675      8.96378e+7 
            685      9.49963e+7 
            695      1.14097e+8 
            705      1.18637e+8 
            716      1.32928e+8 
            726      1.40077e+8 
            735       1.4724e+8 
            745      1.64274e+8 
            755      1.75826e+8 
            765      1.88633e+8 
            775      2.02664e+8 
            785      2.17451e+8 
            795      2.27429e+8 
            805      2.39005e+8 
            815      2.48155e+8 
            825      2.68063e+8 
            835      2.59357e+8 
            845      2.86051e+8 
            855       2.9756e+8 
            865      3.16025e+8 
            875      3.36369e+8 
            885      3.58868e+8 
            895      3.75311e+8 
            905      3.80927e+8 
            915      5.40284e+8 
            925      3.61559e+9 
            935      9.36927e+9 
            945     2.02652e+10 
            955     2.54455e+10 
            965     3.10174e+10 
            975      7.28472e+9 
            985     2.91738e+10 
            995     2.73917e+10 
           1005     3.02614e+10 
           1015     2.94505e+10 
           1025     1.37539e+10 
           1035     2.40332e+10 
           1045     3.35961e+10 
           1055     3.13711e+10 
           1065     2.67564e+10 
           1075     2.97201e+10 
           1085     2.66704e+10 
           1095      2.9476e+10 
           1105     2.71702e+10 
           1115     2.67905e+10 
           1125     2.30069e+10 
           1135     2.69581e+10 
           1145     2.46091e+10 
           1155     2.52508e+10 
           1165     2.50374e+10 
           1175     1.72821e+10 
           1185     2.36556e+10 
           1195     2.19349e+10 
           1205      1.6595e+10 
           1215      1.0053e+10 
           1225     1.95047e+10 
           1235     2.19012e+10 
           1245      2.1518e+10 
           1255     2.10984e+10 
           1265     2.10569e+10 
           1275     2.14475e+10 
           1285      2.1023e+10 
           1295     1.68005e+10 
           1305     1.75388e+10 
           1315     2.00726e+10 
           1325     1.89349e+10 
           1335     1.82158e+10 
           1345     1.83008e+10 
           1355     1.82131e+10 
           1365     1.70769e+10 
           1375     1.66836e+10 
           1385      1.6464e+10 
           1395      1.3401e+10 
           1405     1.40587e+10 
           1415     1.49305e+10 
           1425     1.44846e+10 
           1435     1.47465e+10 
           1442     1.49741e+10 
           1447     1.46565e+10 
           1455     1.42935e+10 
           1465     1.34952e+10 
           1475     1.34907e+10 
           1485     1.32484e+10 
           1495      1.2987e+10 
           1505     1.20659e+10 
           1512     1.09823e+10 
           1517     1.12692e+10 
           1525     1.14487e+10 
           1535     1.00561e+10 
           1545     1.00057e+10 
           1555      9.56288e+9 
           1565     1.01412e+10 
           1575      1.0564e+10 
           1585     1.04319e+10 
           1595     1.03785e+10 
           1605     1.01979e+10 
           1615      9.94174e+9 
           1625      9.86241e+9 
           1635     1.01849e+10 
           1645     1.00055e+10 
           1655      9.92306e+9 
           1665       9.9533e+9 
           1672      9.59887e+9 
           1677     1.01495e+10 
           1685      9.85111e+9 
           1695      9.42392e+9 
           1705      9.10389e+9 
           1715      8.70766e+9 
           1725      8.56623e+9 
           1735      8.74135e+9 
           1745      8.55323e+9 
           1755       8.5786e+9 
           1765      8.34223e+9 
           1775      7.99321e+9 
           1785      8.04437e+9 
           1795      8.15329e+9 
           1805      8.14807e+9 
           1815      7.49085e+9 
           1825      7.66845e+9 
           1835      7.45577e+9 
           1845      6.84571e+9 
           1855      6.85783e+9 
           1865      6.95442e+9 
           1875      7.12658e+9 
           1885      6.42976e+9 
           1895      5.99804e+9 
           1905      6.40456e+9 
           1915      6.10414e+9 
           1925      5.83075e+9 
           1935      6.10277e+9 
           1945      6.21814e+9 
           1955      5.65751e+9 
           1967      6.02237e+9 
           1976        6.265e+9 
           1984       5.8216e+9 
           1995      5.69975e+9 
           2005      5.82353e+9 
           2015      5.79138e+9 
           2025      5.90668e+9 
           2035      5.45286e+9 
           2045      5.48687e+9 
           2055      5.30023e+9 
           2065      5.31501e+9 
           2074      5.52875e+9 
           2078      5.10878e+9 
           2085      5.26172e+9 
           2095      5.02183e+9 
           2105      5.16314e+9 
           2115      5.13515e+9 
           2125      5.19089e+9 
           2135      5.08584e+9 
           2145      4.84505e+9 
           2155       4.9875e+9 
           2165       4.9474e+9 
           2175      4.86673e+9 
           2185      4.75877e+9 
           2195      4.76969e+9 
           2205      4.72033e+9 
           2215      4.65615e+9 
           2225      4.54743e+9 
           2235      4.47289e+9 
           2245      4.48276e+9 
           2255      4.36937e+9 
           2265      4.37552e+9 
           2275       4.3148e+9 
           2285      4.29046e+9 
           2295      4.05982e+9 
           2305      4.15811e+9 
           2315       4.0576e+9 
           2325      4.00911e+9 
           2335      3.91383e+9 
           2345      3.90936e+9 
           2355        3.889e+9 
           2365      3.83813e+9 
           2375      3.76975e+9 
           2385      3.73125e+9 
           2395      3.68676e+9 
           2405      3.63135e+9 
           2415      3.58267e+9 
           2425      3.57234e+9 
           2435      3.49076e+9 
           2445      3.47235e+9 
           2455      3.45418e+9 
           2465      3.40141e+9 
           2475      3.35498e+9 
           2485      3.30772e+9 
           2495      3.06551e+9 
           2505      3.21813e+9 
           2513        3.095e+9 
           2518      3.17227e+9 
           2525      3.14342e+9 
           2535      3.10319e+9 
           2545       3.0222e+9 
           2555      3.02998e+9 
           2565      2.99197e+9 
           2575      2.97759e+9 
           2585      2.94022e+9 
           2595       2.9077e+9 
           2605      2.88619e+9 
           2615      2.85122e+9 
           2625      2.82472e+9 
           2635      2.79215e+9 
           2645      2.76278e+9 
           2655      2.73682e+9 
           2665      2.67373e+9 
           2675      2.65804e+9 
           2685      2.64727e+9 
           2695      2.57273e+9 
           2705      2.55719e+9 
           2715      2.53844e+9 
           2725      2.50295e+9 
           2735      2.49233e+9 
           2745      2.43691e+9 
           2755      2.42332e+9 
           2765      2.38897e+9 
           2775      2.39145e+9 
           2785      2.35765e+9 
           2795      2.28443e+9 
           2805      2.29341e+9 
           2815      2.28774e+9 
           2825      2.24424e+9 
           2835      2.18841e+9 
           2845      2.20903e+9 
           2855      2.17893e+9 
           2865      2.16361e+9 
           2875      2.13988e+9 
           2885       2.1181e+9 
           2895      2.09118e+9 
           2910      2.05384e+9 
           2930      2.01299e+9 
           2950      1.95631e+9 
           2970      1.92984e+9 
           2990      1.88603e+9 
           3010       1.8371e+9 
           3030      1.81399e+9 
           3050      1.77825e+9 
           3070      1.74373e+9 
           3090      1.69187e+9 
           3110      1.67139e+9 
           3130      1.63625e+9 
           3150      1.60525e+9 
           3170      1.56977e+9 
           3190      1.52993e+9 
           3210      1.51158e+9 
           3230      1.47956e+9 
           3250      1.45267e+9 
           3270      1.42431e+9 
           3290      1.39518e+9 
           3310      1.37108e+9 
           3330      1.34403e+9 
           3350      1.31715e+9 
           3370       1.2936e+9 
           3390      1.27052e+9 
           3410      1.24701e+9 
           3430      1.21787e+9 
           3450      1.19113e+9 
           3470        1.172e+9 
           3490      1.14997e+9 
           3510      1.13241e+9 
           3530       1.1152e+9 
           3550      1.09517e+9 
           3570       1.0808e+9 
           3590      1.05245e+9 
           3610       1.0351e+9 
           3630      1.01718e+9 
           3640      1.01569e+9 
           3650      9.95176e+8 
           3670      9.83017e+8 
           3690      9.61738e+8 
           3710      9.28679e+8 
           3730      8.94241e+8 
           3750      9.37182e+8 
           3770      9.34713e+8 
           3790       9.7586e+8 
           3810      1.01134e+9 
           3830      8.91686e+8 
           3850      1.02935e+9 
           3870      1.02628e+9 
           3890       8.4537e+8 
           3910      1.01219e+9 
           3930      9.86162e+8 
           3950      9.76032e+8 
           3970      7.85063e+8 
           3990       9.3841e+8 
           4010      9.31814e+8 
           4030       8.8218e+8 
           4050      9.06746e+8 
           4070      8.77206e+8 
           4090      8.20138e+8 
           4110      7.28565e+8 
           4130      8.29154e+8 
           4150      8.23085e+8 
           4170       8.1653e+8 
           4190       8.0562e+8 
           4210      7.95327e+8 
           4230      7.80266e+8 
           4250      7.63992e+8 
           4270      7.44764e+8 
           4290      7.37427e+8 
           4310      7.19871e+8 
           4330      6.62339e+8 
           4350      6.06729e+8 
           4370      6.84082e+8 
           4390      6.66662e+8 
           4410      6.68842e+8 
           4430      6.59208e+8 
           4450      6.50537e+8 
           4470      6.17107e+8 
           4490      6.28982e+8 
           4510      6.22378e+8 
           4530      6.11957e+8 
           4550      6.02094e+8 
           4570      5.92218e+8 
           4590      5.83259e+8 
           4610      5.72962e+8 
           4630       5.6428e+8 
           4650      5.50533e+8 
           4670      5.47417e+8 
           4690      5.41096e+8 
           4710      5.23554e+8 
           4730       5.2252e+8 
           4750      5.14139e+8 
           4770      5.10664e+8 
           4790      5.02517e+8 
           4810       4.9356e+8 
           4830      4.83909e+8 
           4850      4.52652e+8 
           4870      4.06896e+8 
           4890      4.62922e+8 
           4910      4.58518e+8 
           4930      4.42731e+8 
           4950      4.45618e+8 
           4970      4.40666e+8 
           4990      4.34009e+8 
           5010      4.19609e+8 
           5030      4.21505e+8 
           5050      4.12175e+8 
           5070      4.09971e+8 
           5090      4.04021e+8 
           5110      3.98124e+8 
           5130      3.91347e+8 
           5150      3.86111e+8 
           5170      3.81903e+8 
           5190       3.7677e+8 
           5210      3.71079e+8 
           5230      3.66415e+8 
           5250      3.61455e+8 
           5270       3.5633e+8 
           5290      3.51729e+8 
           5310      3.46839e+8 
           5330      3.42199e+8 
           5350      3.37355e+8 
           5370      3.33227e+8 
           5390      3.28671e+8 
           5410      3.24418e+8 
           5430      3.19911e+8 
           5450      3.15652e+8 
           5470      3.11523e+8 
           5490      3.07495e+8 
           5510      3.03641e+8 
           5530      2.99514e+8 
           5550      2.95819e+8 
           5570      2.91889e+8 
           5590      2.88237e+8 
           5610      2.84414e+8 
           5630      2.80887e+8 
           5650      2.76766e+8 
           5670      2.72672e+8 
           5690      2.68839e+8 
           5710      2.66497e+8 
           5730      2.63217e+8 
           5750      2.59543e+8 
           5770      2.56864e+8 
           5790      2.53609e+8 
           5810       2.5046e+8 
           5830      2.47149e+8 
           5850      2.44218e+8 
           5870      2.34444e+8 
           5890      2.37079e+8 
           5910      2.35132e+8 
           5930      2.32059e+8 
           5950      2.29118e+8 
           5970      2.26899e+8 
           5990      2.23811e+8 
           6010      2.21354e+8 
           6030      2.18552e+8 
           6050      2.16018e+8 
           6070      2.13533e+8 
           6090      2.10975e+8 
           6110      2.08476e+8 
           6130      2.06035e+8 
           6150      2.03213e+8 
           6170      2.01017e+8 
           6190      1.98786e+8 
           6210      1.96502e+8 
           6230      1.94213e+8 
           6250      1.91815e+8 
           6270      1.89664e+8 
           6290      1.87507e+8 
           6310      1.85289e+8 
           6330      1.83218e+8 
           6350      1.80832e+8 
           6370      1.78946e+8 
           6390      1.76942e+8 
           6410       1.7495e+8 
           6430      1.73007e+8 
           6450       1.7103e+8 
           6470      1.68868e+8 
           6490      1.67023e+8 
           6510      1.65252e+8 
           6530       1.6281e+8 
           6550       1.5654e+8 
           6570       1.3946e+8 
           6590      1.56033e+8 
           6610      1.56048e+8 
           6630      1.54576e+8 
           6650      1.52932e+8 
           6670      1.49874e+8 
           6690      1.48272e+8 
           6710      1.48026e+8 
           6730      1.46299e+8 
           6750      1.44838e+8 
           6770      1.43268e+8 
           6790      1.41257e+8 
           6810      1.40128e+8 
           6830       1.3863e+8 
           6850      1.37195e+8 
           6870      1.35727e+8 
           6890      1.34242e+8 
           6910      1.32796e+8 
           6930      1.31434e+8 
           6950       1.3007e+8 
           6970      1.28697e+8 
           6990      1.27337e+8 
           7010      1.26006e+8 
           7030      1.24687e+8 
           7050      1.23382e+8 
           7070      1.20168e+8 
           7090       1.2084e+8 
           7110      1.19431e+8 
           7130      1.18243e+8 
           7150      1.17125e+8 
           7170      1.15916e+8 
           7190      1.14754e+8 
           7210      1.13582e+8 
           7230      1.11355e+8 
           7250      1.11222e+8 
           7270      1.10147e+8 
           7290      1.08161e+8 
           7310      1.07916e+8 
           7330      1.06844e+8 
           7350      1.05782e+8 
           7370      1.04723e+8 
           7390      1.03681e+8 
           7410      1.02649e+8 
           7430      1.01612e+8 
           7450      1.00626e+8 
           7470      9.95211e+7 
           7490      9.86479e+7 
           7510      9.76422e+7 
           7530      9.67056e+7 
           7550      9.57842e+7 
           7570      9.48514e+7 
           7590      9.39272e+7 
           7610      9.29852e+7 
           7630      9.21037e+7 
           7650      9.12236e+7 
           7670       9.0345e+7 
           7690       8.9468e+7 
           7710      8.86115e+7 
           7730      8.77564e+7 
           7750      8.69277e+7 
           7770      8.59316e+7 
           7790      8.52861e+7 
           7810      8.44175e+7 
           7830      8.36796e+7 
           7850      8.29358e+7 
           7870      8.21377e+7 
           7890       8.1274e+7 
           7910      8.06407e+7 
           7930       7.9863e+7 
           7950      7.90087e+7 
           7970      7.81975e+7 
           7990      7.74584e+7 
           8010       7.6755e+7 
           8030      7.60459e+7 
           8050       7.5372e+7 
           8070      7.47386e+7 
           8090      7.39033e+7 
           8110      7.32471e+7 
           8130      7.27447e+7 
           8150      7.19684e+7 
           8170      7.14528e+7 
           8190      7.06549e+7 
           8210      6.98248e+7 
           8230      6.93302e+7 
           8250      6.88062e+7 
           8270      6.77633e+7 
           8290      6.75079e+7 
           8310      6.69324e+7 
           8330      6.63182e+7 
           8350      6.53958e+7 
           8370      6.50083e+7 
           8390      6.45382e+7 
           8410      6.39546e+7 
           8430      6.33229e+7 
           8450      6.23006e+7 
           8470      6.21065e+7 
           8490      6.15373e+7 
           8510      6.08166e+7 
           8530      6.05473e+7 
           8550      5.91048e+7 
           8570      6.01988e+7 
           8590      5.77183e+7 
