# Kurucz ODFNEW /NOVER (2003)
# teff = 22000 K (value for the effective temperature for the model. Temperatures are given in K)
# logg = 4 log(cm/s2) (value for Log(G) for the model.)
# meta = 0.5  (value for the Metallicity for the model.)
# lh = 1.25  (l/Hp where l is the  mixing length of the convective element and Hp is the pressure scale height)
# vtur = 2 km/s (Microturbulence velocity)
# alpha = 0.4  (Alpha)
#
# column 1: WAVELENGTH (ANGSTROM), Wavelength in Angstrom
# column 2: FLUX (ERG/CM2/S/A), Flux in erg/cm2/s/A
          147.2     1.41918e-17 
            151     7.15176e-17 
          155.2     3.90789e-16 
          158.8     1.56369e-15 
            162     5.10703e-15 
            166     2.10813e-14 
          170.3     8.94694e-14 
          173.4     2.46015e-13 
          176.8      7.1209e-13 
          180.2     1.98377e-12 
          181.7     3.07649e-12 
          186.1     1.07729e-11 
            191     4.08866e-11 
          193.9     8.72995e-11 
          198.4     2.71695e-10 
          201.8     6.20213e-10 
            205      1.31723e-9 
          210.5      4.57183e-9 
          216.2       1.5581e-8 
          219.8      3.27642e-8 
            223      6.22347e-8 
          226.8      1.30373e-7 
            230      1.60555e-6 
            234      3.93097e-6 
            240      1.08951e-5 
          246.5      3.08949e-5 
          252.4      7.67879e-5 
          256.8     0.000143285 
            260     0.000238198 
            264     0.000412588 
          268.5     0.000755108 
          273.5      0.00143213 
          278.5       0.0026925 
            284      0.00555921 
            290       0.0110457 
            296       0.0214383 
            301       0.0364467 
            308       0.0791035 
            318        0.212889 
            328        0.513108 
            338         1.24711 
            348         2.78957 
            357         11.7125 
            366         23.9147 
            375         41.2052 
            385         76.1312 
            395         143.653 
            405         244.423 
            414         395.575 
            422         583.169 
            430         872.488 
            441         1442.06 
            451         2205.17 
            460         3148.79 
            470         4724.55 
            480         6860.43 
            490         9976.66 
            500         14138.5 
            506         71798.1 
            512      1.14132e+6 
            520      1.34982e+6 
            530      1.76952e+6 
            540      1.92654e+6 
            550      3.04572e+6 
            560       3.6617e+6 
            570      4.70407e+6 
            580       4.6744e+6 
            590      6.67897e+6 
            600      7.89499e+6 
            610      9.78444e+6 
            620      1.06658e+7 
            630      1.15287e+7 
            640      1.04658e+7 
            650      6.93878e+6 
            658      1.23252e+7 
            665      1.61826e+7 
            675      1.80276e+7 
            685      1.90739e+7 
            695      2.57301e+7 
            705      2.68268e+7 
            716      3.09155e+7 
            726      3.23476e+7 
            735      3.50826e+7 
            745      4.08655e+7 
            755      4.46881e+7 
            765      4.92289e+7 
            775      5.38809e+7 
            785      5.84506e+7 
            795       6.1085e+7 
            805      6.46752e+7 
            815      6.84122e+7 
            825      7.55701e+7 
            835      6.52715e+7 
            845      8.01498e+7 
            855      8.35476e+7 
            865      9.06245e+7 
            875      9.72841e+7 
            885       1.0796e+8 
            895      1.14746e+8 
            905      1.10867e+8 
            915      1.77137e+8 
            925      1.27396e+9 
            935      3.17293e+9 
            945       6.7531e+9 
            955      9.88681e+9 
            965     1.08772e+10 
            975       1.4613e+9 
            985      7.98248e+9 
            995      9.05992e+9 
           1005     1.25582e+10 
           1015     1.29658e+10 
           1025      6.01225e+9 
           1035      8.82156e+9 
           1045     1.76417e+10 
           1055     1.61066e+10 
           1065     1.06882e+10 
           1075      1.4306e+10 
           1085     1.26095e+10 
           1095     1.52423e+10 
           1105       1.194e+10 
           1115      9.63562e+9 
           1125      7.92378e+9 
           1135     1.35292e+10 
           1145     1.13999e+10 
           1155     1.24858e+10 
           1165     1.26429e+10 
           1175      6.79525e+9 
           1185     1.23008e+10 
           1195      8.36071e+9 
           1205      2.71308e+9 
           1215      4.25415e+9 
           1225      9.15624e+9 
           1235     1.29193e+10 
           1245     1.27546e+10 
           1255     1.24089e+10 
           1265     1.22246e+10 
           1275     1.26379e+10 
           1285     1.29702e+10 
           1295      5.52259e+9 
           1305      5.65196e+9 
           1315     1.22477e+10 
           1325     1.13026e+10 
           1335     1.05312e+10 
           1345     1.14587e+10 
           1355     1.12718e+10 
           1365      9.28709e+9 
           1375       9.1232e+9 
           1385        8.607e+9 
           1395      5.33454e+9 
           1405      6.24058e+9 
           1415      7.42536e+9 
           1425      7.94914e+9 
           1435      8.28769e+9 
           1442      8.75856e+9 
           1447      8.60421e+9 
           1455      8.25788e+9 
           1465      7.36213e+9 
           1475      7.68342e+9 
           1485      7.53997e+9 
           1495      7.40741e+9 
           1505      6.37106e+9 
           1512      5.65701e+9 
           1517      5.98828e+9 
           1525        6.328e+9 
           1535      5.20384e+9 
           1545       5.0854e+9 
           1555      5.00867e+9 
           1565       5.3954e+9 
           1575      5.82493e+9 
           1585      5.95785e+9 
           1595      5.88056e+9 
           1605      6.14724e+9 
           1615        6.131e+9 
           1625      5.83407e+9 
           1635      6.41091e+9 
           1645      6.41102e+9 
           1655      6.12733e+9 
           1665      6.53855e+9 
           1672      6.20106e+9 
           1677      6.69568e+9 
           1685      6.68891e+9 
           1695      6.18025e+9 
           1705      5.95984e+9 
           1715      5.51487e+9 
           1725      5.45769e+9 
           1735      5.86678e+9 
           1745      5.64273e+9 
           1755      5.73884e+9 
           1765      5.55028e+9 
           1775      5.17153e+9 
           1785      5.32456e+9 
           1795      5.74315e+9 
           1805      5.85499e+9 
           1815      4.92128e+9 
           1825      5.29754e+9 
           1835      4.99416e+9 
           1845      4.48874e+9 
           1855       4.4154e+9 
           1865      4.50681e+9 
           1875      5.02059e+9 
           1885      4.33333e+9 
           1895      4.01695e+9 
           1905      4.53567e+9 
           1915      4.05583e+9 
           1925      3.88093e+9 
           1935      4.22618e+9 
           1945      4.25155e+9 
           1955       3.8063e+9 
           1967      4.33058e+9 
           1976      4.51227e+9 
           1984      4.13667e+9 
           1995      4.04991e+9 
           2005      4.33424e+9 
           2015      4.13702e+9 
           2025      4.37996e+9 
           2035      3.92356e+9 
           2045      4.10031e+9 
           2055      3.90733e+9 
           2065      3.87991e+9 
           2074      4.12167e+9 
           2078      3.63295e+9 
           2085      3.96243e+9 
           2095      3.68968e+9 
           2105      3.83478e+9 
           2115       3.8888e+9 
           2125      3.90977e+9 
           2135      3.79984e+9 
           2145      3.62014e+9 
           2155      3.82471e+9 
           2165      3.82257e+9 
           2175      3.77715e+9 
           2185      3.58121e+9 
           2195       3.6833e+9 
           2205      3.67212e+9 
           2215       3.5674e+9 
           2225      3.43427e+9 
           2235      3.45844e+9 
           2245      3.49878e+9 
           2255      3.31328e+9 
           2265      3.44358e+9 
           2275      3.39707e+9 
           2285      3.41546e+9 
           2295      3.06747e+9 
           2305      3.25476e+9 
           2315      3.11571e+9 
           2325      3.07105e+9 
           2335       2.9082e+9 
           2345      2.95312e+9 
           2355      2.95398e+9 
           2365      2.90379e+9 
           2375      2.88447e+9 
           2385      2.84463e+9 
           2395      2.87636e+9 
           2405      2.75596e+9 
           2415      2.78628e+9 
           2425      2.79679e+9 
           2435      2.67348e+9 
           2445      2.72753e+9 
           2455      2.73467e+9 
           2465      2.66943e+9 
           2475      2.61181e+9 
           2485      2.59125e+9 
           2495      2.21673e+9 
           2505      2.51216e+9 
           2513      2.38702e+9 
           2518      2.51879e+9 
           2525      2.44032e+9 
           2535      2.42157e+9 
           2545      2.26729e+9 
           2555      2.38335e+9 
           2565      2.34321e+9 
           2575      2.40488e+9 
           2585      2.37616e+9 
           2595      2.35984e+9 
           2605      2.33298e+9 
           2615       2.3025e+9 
           2625       2.2886e+9 
           2635      2.27919e+9 
           2645      2.27259e+9 
           2655      2.27341e+9 
           2665      2.13756e+9 
           2675      2.19026e+9 
           2685       2.1733e+9 
           2695      2.08692e+9 
           2705      2.03836e+9 
           2715      2.04458e+9 
           2725      2.04274e+9 
           2735      2.04823e+9 
           2745      1.95934e+9 
           2755      1.96082e+9 
           2765       1.9547e+9 
           2775       1.9923e+9 
           2785      1.95592e+9 
           2795      1.85027e+9 
           2805      1.89911e+9 
           2815      1.91269e+9 
           2825      1.89143e+9 
           2835      1.78549e+9 
           2845      1.80745e+9 
           2855      1.78783e+9 
           2865      1.81255e+9 
           2875      1.78642e+9 
           2885      1.76709e+9 
           2895      1.73652e+9 
           2910      1.70661e+9 
           2930      1.68813e+9 
           2950      1.63674e+9 
           2970      1.61879e+9 
           2990      1.58145e+9 
           3010      1.52212e+9 
           3030      1.52872e+9 
           3050      1.50271e+9 
           3070      1.48483e+9 
           3090      1.41935e+9 
           3110      1.41794e+9 
           3130      1.38461e+9 
           3150      1.36579e+9 
           3170       1.3253e+9 
           3190      1.29703e+9 
           3210      1.28465e+9 
           3230      1.25572e+9 
           3250      1.24074e+9 
           3270       1.2144e+9 
           3290      1.19074e+9 
           3310      1.17117e+9 
           3330      1.14488e+9 
           3350      1.12544e+9 
           3370      1.10233e+9 
           3390      1.08874e+9 
           3410      1.06992e+9 
           3430      1.04569e+9 
           3450      1.02297e+9 
           3470      1.00499e+9 
           3490      9.84839e+8 
           3510      9.70223e+8 
           3530      9.59381e+8 
           3550      9.42115e+8 
           3570      9.29697e+8 
           3590      8.98379e+8 
           3610      8.84781e+8 
           3630      8.75144e+8 
           3640      8.75915e+8 
           3650      8.61536e+8 
           3670       8.5329e+8 
           3690      8.34991e+8 
           3710       8.0116e+8 
           3730      7.70632e+8 
           3750      8.20942e+8 
           3770      8.17901e+8 
           3790      8.62926e+8 
           3810       8.9954e+8 
           3830      7.80713e+8 
           3850      9.05625e+8 
           3870      9.00615e+8 
           3890      7.38939e+8 
           3910      9.09906e+8 
           3930      8.69837e+8 
           3950       8.6658e+8 
           3970      6.86894e+8 
           3990      8.33769e+8 
           4010       8.3632e+8 
           4030      7.83943e+8 
           4050      8.05986e+8 
           4070       7.5924e+8 
           4090      7.14629e+8 
           4110      6.34027e+8 
           4130      7.27754e+8 
           4150      7.24541e+8 
           4170      7.25949e+8 
           4190      7.20816e+8 
           4210      7.17385e+8 
           4230      6.99247e+8 
           4250      6.76267e+8 
           4270      6.52301e+8 
           4290      6.48342e+8 
           4310      6.26824e+8 
           4330      5.75837e+8 
           4350      5.27352e+8 
           4370      5.94915e+8 
           4390       5.9498e+8 
           4410      5.92521e+8 
           4430      5.87163e+8 
           4450      5.81098e+8 
           4470       5.5287e+8 
           4490      5.60625e+8 
           4510      5.62498e+8 
           4530      5.50383e+8 
           4550      5.44791e+8 
           4570      5.35703e+8 
           4590      5.26467e+8 
           4610       5.1184e+8 
           4630      5.04476e+8 
           4650      4.89936e+8 
           4670      4.91051e+8 
           4690      4.89047e+8 
           4710      4.63777e+8 
           4730      4.68737e+8 
           4750       4.6206e+8 
           4770      4.65711e+8 
           4790      4.55475e+8 
           4810      4.42365e+8 
           4830      4.34995e+8 
           4850      4.06575e+8 
           4870      3.61291e+8 
           4890      4.18903e+8 
           4910      4.14529e+8 
           4930      3.99082e+8 
           4950      4.02168e+8 
           4970      4.01408e+8 
           4990      3.93809e+8 
           5010       3.7197e+8 
           5030      3.80111e+8 
           5050      3.68184e+8 
           5070      3.72012e+8 
           5090      3.64921e+8 
           5110      3.57742e+8 
           5130      3.47929e+8 
           5150      3.45644e+8 
           5170      3.45371e+8 
           5190      3.40728e+8 
           5210        3.314e+8 
           5230      3.31748e+8 
           5250      3.27749e+8 
           5270      3.21319e+8 
           5290      3.19433e+8 
           5310      3.14279e+8 
           5330       3.0914e+8 
           5350      3.03871e+8 
           5370      3.02526e+8 
           5390      2.98198e+8 
           5410      2.94066e+8 
           5430       2.8894e+8 
           5450      2.85149e+8 
           5470      2.80637e+8 
           5490      2.78746e+8 
           5510      2.75808e+8 
           5530      2.71033e+8 
           5550      2.68814e+8 
           5570      2.64774e+8 
           5590      2.62304e+8 
           5610      2.57971e+8 
           5630      2.55951e+8 
           5650      2.48041e+8 
           5670      2.44279e+8 
           5690      2.42216e+8 
           5710      2.41192e+8 
           5730      2.39156e+8 
           5750      2.35182e+8 
           5770      2.33871e+8 
           5790      2.30719e+8 
           5810      2.27559e+8 
           5830      2.24172e+8 
           5850      2.21915e+8 
           5870      2.12424e+8 
           5890      2.13362e+8 
           5910      2.12481e+8 
           5930      2.10043e+8 
           5950      2.06197e+8 
           5970      2.06519e+8 
           5990      2.02423e+8 
           6010      2.01506e+8 
           6030       1.9841e+8 
           6050      1.96298e+8 
           6070      1.94331e+8 
           6090      1.91726e+8 
           6110      1.89727e+8 
           6130      1.87819e+8 
           6150      1.82874e+8 
           6170      1.82284e+8 
           6190      1.81029e+8 
           6210      1.79045e+8 
           6230      1.77091e+8 
           6250      1.73713e+8 
           6270       1.7228e+8 
           6290      1.70577e+8 
           6310      1.68126e+8 
           6330      1.66924e+8 
           6350      1.63379e+8 
           6370      1.62485e+8 
           6390      1.60805e+8 
           6410      1.59097e+8 
           6430      1.57891e+8 
           6450      1.55681e+8 
           6470      1.53208e+8 
           6490        1.518e+8 
           6510      1.50131e+8 
           6530      1.47596e+8 
           6550      1.41349e+8 
           6570      1.23601e+8 
           6590      1.40939e+8 
           6610      1.41812e+8 
           6630      1.40786e+8 
           6650      1.39063e+8 
           6670      1.36249e+8 
           6690      1.34964e+8 
           6710      1.34839e+8 
           6730      1.32932e+8 
           6750      1.32154e+8 
           6770      1.30758e+8 
           6790      1.27358e+8 
           6810      1.27455e+8 
           6830      1.25919e+8 
           6850       1.2512e+8 
           6870      1.23746e+8 
           6890      1.22267e+8 
           6910      1.20811e+8 
           6930      1.19636e+8 
           6950      1.18683e+8 
           6970      1.17468e+8 
           6990      1.16118e+8 
           7010       1.1479e+8 
           7030      1.13634e+8 
           7050      1.12392e+8 
           7070      1.09141e+8 
           7090       1.0989e+8 
           7110      1.07261e+8 
           7130      1.06312e+8 
           7150      1.06293e+8 
           7170      1.05627e+8 
           7190       1.0472e+8 
           7210      1.03669e+8 
           7230      1.00415e+8 
           7250      1.01137e+8 
           7270       1.0051e+8 
           7290      9.86269e+7 
           7310      9.84475e+7 
           7330      9.74412e+7 
           7350      9.65699e+7 
           7370      9.56165e+7 
           7390      9.46582e+7 
           7410      9.37225e+7 
           7430      9.24543e+7 
           7450      9.17278e+7 
           7470       9.0076e+7 
           7490      8.97904e+7 
           7510      8.90189e+7 
           7530      8.80284e+7 
           7550      8.73908e+7 
           7570      8.65812e+7 
           7590      8.56023e+7 
           7610      8.47497e+7 
           7630      8.40342e+7 
           7650      8.32413e+7 
           7670      8.24619e+7 
           7690      8.16513e+7 
           7710       8.0867e+7 
           7730      7.99952e+7 
           7750      7.93507e+7 
           7770      7.74826e+7 
           7790      7.78551e+7 
           7810      7.70677e+7 
           7830       7.6398e+7 
           7850      7.52939e+7 
           7870      7.46441e+7 
           7890      7.35399e+7 
           7910      7.33973e+7 
           7930        7.274e+7 
           7950      7.15162e+7 
           7970      7.12644e+7 
           7990      7.00465e+7 
           8010      7.00201e+7 
           8030      6.93621e+7 
           8050      6.86807e+7 
           8070      6.81614e+7 
           8090      6.74334e+7 
           8110      6.65055e+7 
           8130      6.62813e+7 
           8150      6.56728e+7 
           8170      6.52162e+7 
           8190      6.42016e+7 
           8210      6.35203e+7 
           8230      6.26335e+7 
           8250      6.27841e+7 
           8270      6.14562e+7 
           8290      6.15822e+7 
           8310      6.10297e+7 
           8330      6.06121e+7 
           8350      5.97115e+7 
           8370      5.92598e+7 
           8390      5.89776e+7 
           8410      5.84045e+7 
           8430      5.78308e+7 
           8450      5.64388e+7 
           8470      5.67345e+7 
           8490      5.61173e+7 
           8510      5.54221e+7 
           8530      5.53489e+7 
           8550      5.37246e+7 
           8570      5.51258e+7 
