# Kurucz ODFNEW /NOVER (2003)
# teff = 28000 K (value for the effective temperature for the model. Temperatures are given in K)
# logg = 5 log(cm/s2) (value for Log(G) for the model.)
# meta = -1  (value for the Metallicity for the model.)
# lh = 1.25  (l/Hp where l is the  mixing length of the convective element and Hp is the pressure scale height)
# vtur = 2 km/s (Microturbulence velocity)
# alpha = 0.4  (Alpha)
#
# column 1: WAVELENGTH (ANGSTROM), Wavelength in Angstrom
# column 2: FLUX (ERG/CM2/S/A), Flux in erg/cm2/s/A
          147.2     6.59247e-11 
            151      2.3989e-10 
          155.2     9.34103e-10 
          158.8        2.841e-9 
            162      7.35171e-9 
            166      2.29912e-8 
          170.3      7.40025e-8 
          173.4      1.66228e-7 
          176.8      3.91322e-7 
          180.2      8.93119e-7 
          181.7      1.27311e-6 
          186.1      3.49217e-6 
            191      1.01886e-5 
          193.9      1.87266e-5 
          198.4      4.65158e-5 
          201.8      9.00711e-5 
            205     0.000164461 
          210.5       0.0004438 
          216.2      0.00117688 
          219.8      0.00212242 
            223      0.00352752 
          226.8      0.00633175 
            230        0.475049 
            234         1.09484 
            240         2.27189 
          246.5         4.81937 
          252.4         9.33932 
          256.8         13.9418 
            260         20.6577 
            264         29.9525 
          268.5         46.5507 
          273.5         73.6162 
          278.5         114.652 
            284         187.902 
            290         304.582 
            296         484.929 
            301         698.647 
            308         1109.01 
            318         2334.24 
            328         4298.02 
            338         7954.77 
            348         13852.7 
            357         25193.9 
            366         40691.7 
            375         60207.1 
            385         94367.3 
            395          143697 
            405          210654 
            414          297104 
            422          385140 
            430          506048 
            441          718878 
            451          981918 
            460      1.25852e+6 
            470      1.66557e+6 
            480      2.15622e+6 
            490      2.77597e+6 
            500      3.54563e+6 
            506      1.73462e+7 
            512      7.06885e+7 
            520      7.85447e+7 
            530      9.42092e+7 
            540      9.45079e+7 
            550      1.21182e+8 
            560       1.3284e+8 
            570      1.50785e+8 
            580      1.46783e+8 
            590      1.77001e+8 
            600      1.91923e+8 
            610      2.13392e+8 
            620      2.28449e+8 
            630       2.4709e+8 
            640      2.52159e+8 
            650       2.7837e+8 
            658      2.97493e+8 
            665      3.13242e+8 
            675      3.23394e+8 
            685      3.36397e+8 
            695      3.85578e+8 
            705      3.95531e+8 
            716      4.33338e+8 
            726      4.50352e+8 
            735      4.73812e+8 
            745      5.09716e+8 
            755      5.35957e+8 
            765      5.63403e+8 
            775      5.95654e+8 
            785      6.29018e+8 
            795      6.49594e+8 
            805      6.77971e+8 
            815      7.00513e+8 
            825      7.39206e+8 
            835       7.2474e+8 
            845      7.84245e+8 
            855      8.10224e+8 
            865      8.47084e+8 
            875      8.83632e+8 
            885      9.22409e+8 
            895      9.54069e+8 
            905      9.67507e+8 
            915      1.11409e+9 
            925      4.42851e+9 
            935     1.05061e+10 
            945     2.79784e+10 
            955     3.99467e+10 
            965     5.45256e+10 
            975     1.78191e+10 
            985     6.10315e+10 
            995     5.67211e+10 
           1005     6.01521e+10 
           1015     5.42079e+10 
           1025     1.75229e+10 
           1035     4.66786e+10 
           1045      6.1745e+10 
           1055     5.95104e+10 
           1065     5.17684e+10 
           1075     5.49532e+10 
           1085     4.97783e+10 
           1095     5.41235e+10 
           1105     5.03345e+10 
           1115      4.9269e+10 
           1125     4.33933e+10 
           1135      4.8124e+10 
           1145     4.34797e+10 
           1155     4.47181e+10 
           1165     4.42119e+10 
           1175     3.47853e+10 
           1185     4.13638e+10 
           1195     3.81445e+10 
           1205     3.01482e+10 
           1215     1.26006e+10 
           1225     3.11476e+10 
           1235     3.65682e+10 
           1245     3.61047e+10 
           1255     3.54598e+10 
           1265     3.49838e+10 
           1275      3.4954e+10 
           1285     3.40995e+10 
           1295     2.91967e+10 
           1305      2.9649e+10 
           1315     3.18708e+10 
           1325     3.04259e+10 
           1335     2.93503e+10 
           1345     2.88968e+10 
           1355     2.90628e+10 
           1365     2.73505e+10 
           1375     2.69701e+10 
           1385     2.65977e+10 
           1395     2.25435e+10 
           1405     2.31321e+10 
           1415     2.45543e+10 
           1425     2.37266e+10 
           1435     2.36606e+10 
           1442     2.38336e+10 
           1447     2.34335e+10 
           1455     2.28989e+10 
           1465     2.21538e+10 
           1475       2.178e+10 
           1485     2.13048e+10 
           1495      2.0837e+10 
           1505      1.9633e+10 
           1512     1.90676e+10 
           1517     1.91599e+10 
           1525     1.89399e+10 
           1535     1.74724e+10 
           1545      1.7277e+10 
           1555     1.66021e+10 
           1565     1.69936e+10 
           1575     1.71171e+10 
           1585     1.68208e+10 
           1595     1.66787e+10 
           1605     1.60664e+10 
           1615     1.56456e+10 
           1625     1.55863e+10 
           1635     1.55851e+10 
           1645     1.50844e+10 
           1655     1.50979e+10 
           1665     1.49103e+10 
           1672     1.45539e+10 
           1677     1.49187e+10 
           1685     1.45863e+10 
           1695     1.41577e+10 
           1705     1.37446e+10 
           1715     1.33145e+10 
           1725     1.30416e+10 
           1735     1.30469e+10 
           1745     1.28075e+10 
           1755     1.26974e+10 
           1765     1.22564e+10 
           1775     1.19968e+10 
           1785     1.18864e+10 
           1795     1.18724e+10 
           1805     1.17632e+10 
           1815     1.12957e+10 
           1825     1.12467e+10 
           1835     1.10079e+10 
           1845     1.03098e+10 
           1855     1.01988e+10 
           1865     1.02374e+10 
           1875     1.02544e+10 
           1885      9.58717e+9 
           1895      9.12191e+9 
           1905      9.45181e+9 
           1915      9.08143e+9 
           1925      8.79029e+9 
           1935      8.97144e+9 
           1945      9.02671e+9 
           1955      8.44294e+9 
           1967      8.65698e+9 
           1976      8.83312e+9 
           1984       8.3903e+9 
           1995      8.15671e+9 
           2005       8.2223e+9 
           2015       8.2025e+9 
           2025      8.20676e+9 
           2035      7.84393e+9 
           2045      7.75525e+9 
           2055      7.41831e+9 
           2065      7.38709e+9 
           2074      7.50398e+9 
           2078      7.23938e+9 
           2085      7.24848e+9 
           2095      7.03928e+9 
           2105      7.16232e+9 
           2115      7.11657e+9 
           2125      7.09839e+9 
           2135      6.96246e+9 
           2145      6.78379e+9 
           2155      6.77314e+9 
           2165       6.6895e+9 
           2175      6.57597e+9 
           2185      6.48932e+9 
           2195      6.42579e+9 
           2205      6.33176e+9 
           2215      6.24347e+9 
           2225      6.13558e+9 
           2235      6.03562e+9 
           2245      5.98481e+9 
           2255      5.87584e+9 
           2265      5.81937e+9 
           2275      5.73877e+9 
           2285      5.66109e+9 
           2295      5.45787e+9 
           2305      5.49513e+9 
           2315      5.40931e+9 
           2325      5.33967e+9 
           2335      5.24207e+9 
           2345      5.19643e+9 
           2355      5.13636e+9 
           2365      5.06736e+9 
           2375      4.98837e+9 
           2385      4.92087e+9 
           2395      4.85569e+9 
           2405       4.7939e+9 
           2415      4.72198e+9 
           2425       4.6771e+9 
           2435       4.5953e+9 
           2445      4.54544e+9 
           2455      4.49336e+9 
           2465      4.43695e+9 
           2475      4.37583e+9 
           2485      4.31847e+9 
           2495      4.06654e+9 
           2505      4.19648e+9 
           2513      4.08724e+9 
           2518      4.11701e+9 
           2525      4.09735e+9 
           2535      4.04856e+9 
           2545      3.94875e+9 
           2555      3.92944e+9 
           2565      3.88415e+9 
           2575      3.84966e+9 
           2585      3.80376e+9 
           2595      3.75682e+9 
           2605      3.72959e+9 
           2615       3.6842e+9 
           2625      3.64137e+9 
           2635      3.59544e+9 
           2645      3.55038e+9 
           2655       3.5045e+9 
           2665      3.44467e+9 
           2675      3.40333e+9 
           2685      3.38502e+9 
           2695      3.30507e+9 
           2705      3.29345e+9 
           2715      3.25768e+9 
           2725      3.19186e+9 
           2735      3.17909e+9 
           2745      3.13527e+9 
           2755      3.10376e+9 
           2765      3.04114e+9 
           2775      3.03976e+9 
           2785      3.00054e+9 
           2795      2.90937e+9 
           2805      2.91241e+9 
           2815      2.90051e+9 
           2825      2.83318e+9 
           2835      2.78698e+9 
           2845      2.80098e+9 
           2855      2.76503e+9 
           2865      2.73539e+9 
           2875      2.70459e+9 
           2885      2.67528e+9 
           2895      2.64375e+9 
           2910      2.59575e+9 
           2930       2.5384e+9 
           2950      2.46046e+9 
           2970       2.4297e+9 
           2990      2.37396e+9 
           3010      2.31811e+9 
           3030      2.27337e+9 
           3050      2.22624e+9 
           3070       2.1801e+9 
           3090      2.11871e+9 
           3110      2.08714e+9 
           3130      2.04198e+9 
           3150      2.00068e+9 
           3170      1.95872e+9 
           3190      1.89944e+9 
           3210      1.87931e+9 
           3230      1.83889e+9 
           3250       1.8027e+9 
           3270      1.76775e+9 
           3290      1.72962e+9 
           3310      1.69826e+9 
           3330      1.66386e+9 
           3350       1.6284e+9 
           3370      1.59862e+9 
           3390      1.56837e+9 
           3410      1.53801e+9 
           3430      1.50155e+9 
           3450      1.46694e+9 
           3470      1.44257e+9 
           3490      1.41489e+9 
           3510      1.39028e+9 
           3530      1.36583e+9 
           3550      1.34101e+9 
           3570      1.32526e+9 
           3590      1.28768e+9 
           3610      1.27064e+9 
           3630      1.24196e+9 
           3640      1.24245e+9 
           3650      1.21849e+9 
           3670      1.20261e+9 
           3690        1.182e+9 
           3710      1.14258e+9 
           3730      1.10472e+9 
           3750      1.09082e+9 
           3770      1.05876e+9 
           3790      1.09727e+9 
           3810      1.13968e+9 
           3830      9.95775e+8 
           3850      1.17293e+9 
           3870       1.1967e+9 
           3890      9.32382e+8 
           3910      1.17934e+9 
           3930      1.17288e+9 
           3950      1.14109e+9 
           3970      8.65974e+8 
           3990      1.09052e+9 
           4010      1.10115e+9 
           4030      1.02451e+9 
           4050      1.07875e+9 
           4070      1.04129e+9 
           4090      9.33958e+8 
           4110      8.15499e+8 
           4130      9.77068e+8 
           4150      9.76358e+8 
           4170      9.72387e+8 
           4190      9.58062e+8 
           4210      9.44985e+8 
           4230      9.27922e+8 
           4250      9.08614e+8 
           4270      8.86506e+8 
           4290      8.74002e+8 
           4310      8.49117e+8 
           4330      7.48801e+8 
           4350      6.81687e+8 
           4370      8.04576e+8 
           4390      7.77342e+8 
           4410       7.9117e+8 
           4430      7.80338e+8 
           4450      7.69097e+8 
           4470       7.1302e+8 
           4490      7.42336e+8 
           4510      7.35137e+8 
           4530      7.23318e+8 
           4550      7.10586e+8 
           4570      6.98716e+8 
           4590      6.87687e+8 
           4610      6.76965e+8 
           4630      6.66893e+8 
           4650      6.50471e+8 
           4670      6.45188e+8 
           4690      6.36375e+8 
           4710       6.1456e+8 
           4730      6.16884e+8 
           4750      6.06607e+8 
           4770      5.99743e+8 
           4790      5.89704e+8 
           4810      5.78053e+8 
           4830      5.62828e+8 
           4850       5.0749e+8 
           4870      4.52484e+8 
           4890      5.35394e+8 
           4910      5.34604e+8 
           4930      5.12388e+8 
           4950      5.22017e+8 
           4970      5.15963e+8 
           4990       5.0828e+8 
           5010      4.92088e+8 
           5030      4.93394e+8 
           5050      4.82403e+8 
           5070      4.79542e+8 
           5090      4.72466e+8 
           5110      4.65644e+8 
           5130      4.58756e+8 
           5150       4.5226e+8 
           5170      4.46076e+8 
           5190      4.39917e+8 
           5210      4.33368e+8 
           5230      4.27746e+8 
           5250      4.21773e+8 
           5270      4.15851e+8 
           5290      4.10141e+8 
           5310      4.04452e+8 
           5330      3.98863e+8 
           5350      3.93267e+8 
           5370      3.88097e+8 
           5390      3.82745e+8 
           5410      3.77565e+8 
           5430      3.72387e+8 
           5450       3.6735e+8 
           5470      3.62453e+8 
           5490      3.57667e+8 
           5510      3.52941e+8 
           5530      3.48212e+8 
           5550      3.43652e+8 
           5570      3.39076e+8 
           5590      3.34653e+8 
           5610      3.30212e+8 
           5630      3.25956e+8 
           5650      3.21446e+8 
           5670      3.17108e+8 
           5690      3.12835e+8 
           5710      3.09249e+8 
           5730       3.0535e+8 
           5750      3.01087e+8 
           5770      2.97646e+8 
           5790      2.93851e+8 
           5810      2.90113e+8 
           5830      2.86397e+8 
           5850      2.82802e+8 
           5870      2.68873e+8 
           5890       2.7451e+8 
           5910      2.72213e+8 
           5930      2.68816e+8 
           5950      2.65416e+8 
           5970       2.6234e+8 
           5990      2.58985e+8 
           6010      2.55887e+8 
           6030      2.52732e+8 
           6050      2.49674e+8 
           6070      2.46641e+8 
           6090      2.43642e+8 
           6110      2.40708e+8 
           6130      2.37806e+8 
           6150      2.34788e+8 
           6170      2.32071e+8 
           6190      2.29345e+8 
           6210      2.26619e+8 
           6230      2.23934e+8 
           6250       2.2123e+8 
           6270      2.18652e+8 
           6290      2.16083e+8 
           6310      2.13514e+8 
           6330      2.11048e+8 
           6350      2.08412e+8 
           6370      2.06094e+8 
           6390      2.03744e+8 
           6410      2.01375e+8 
           6430      1.99094e+8 
           6450      1.96802e+8 
           6470      1.94426e+8 
           6490      1.92183e+8 
           6510      1.89493e+8 
           6530      1.86143e+8 
           6550      1.75165e+8 
           6570      1.54593e+8 
           6590      1.77816e+8 
           6610      1.78707e+8 
           6630      1.77356e+8 
           6650      1.75652e+8 
           6670      1.71383e+8 
           6690       1.6956e+8 
           6710      1.69923e+8 
           6730      1.67966e+8 
           6750      1.66212e+8 
           6770      1.64384e+8 
           6790      1.62404e+8 
           6810      1.60777e+8 
           6830      1.59005e+8 
           6850      1.57315e+8 
           6870      1.55603e+8 
           6890      1.53891e+8 
           6910      1.52213e+8 
           6930      1.50621e+8 
           6950      1.49015e+8 
           6970      1.47424e+8 
           6990      1.45849e+8 
           7010      1.44298e+8 
           7030      1.42761e+8 
           7050      1.41255e+8 
           7070      1.37276e+8 
           7090      1.38294e+8 
           7110      1.36832e+8 
           7130      1.35406e+8 
           7150      1.33986e+8 
           7170      1.32587e+8 
           7190      1.31224e+8 
           7210      1.29866e+8 
           7230      1.27924e+8 
           7250      1.27162e+8 
           7270      1.25893e+8 
           7290      1.23473e+8 
           7310      1.23313e+8 
           7330      1.22066e+8 
           7350      1.20824e+8 
           7370        1.196e+8 
           7390      1.18395e+8 
           7410      1.17194e+8 
           7430      1.16005e+8 
           7450      1.14867e+8 
           7470      1.13618e+8 
           7490      1.12569e+8 
           7510      1.11416e+8 
           7530      1.10339e+8 
           7550      1.09253e+8 
           7570      1.08177e+8 
           7590      1.07104e+8 
           7610      1.06028e+8 
           7630      1.05007e+8 
           7650      1.03982e+8 
           7670      1.02967e+8 
           7690      1.01961e+8 
           7710       1.0097e+8 
           7730      9.99876e+7 
           7750      9.90269e+7 
           7770      9.79499e+7 
           7790      9.71248e+7 
           7810      9.61401e+7 
           7830      9.52686e+7 
           7850      9.44292e+7 
           7870      9.35058e+7 
           7890      9.25422e+7 
           7910      9.17798e+7 
           7930        9.091e+7 
           7950      9.00002e+7 
           7970      8.90687e+7 
           7990      8.82457e+7 
           8010      8.73475e+7 
           8030      8.65157e+7 
           8050      8.57026e+7 
           8070      8.49081e+7 
           8090      8.40456e+7 
           8110      8.32421e+7 
           8130      8.26165e+7 
           8150      8.18201e+7 
           8170      8.11266e+7 
           8190       8.0259e+7 
           8210      7.93711e+7 
           8230      7.87967e+7 
           8250      7.81383e+7 
           8270      7.70448e+7 
           8290      7.66954e+7 
           8310       7.6043e+7 
           8330      7.53145e+7 
           8350      7.43058e+7 
           8370       7.3865e+7 
           8390      7.33206e+7 
           8410      7.26634e+7 
           8430      7.19744e+7 
           8450      7.08269e+7 
           8470      7.07133e+7 
           8490      6.99206e+7 
           8510      6.94311e+7 
           8530      6.86606e+7 
           8550       6.7979e+7 
           8570      6.77545e+7 
           8590      6.58872e+7 
