# Kurucz ODFNEW /NOVER (2003)
# teff = 21000 K (value for the effective temperature for the model. Temperatures are given in K)
# logg = 4 log(cm/s2) (value for Log(G) for the model.)
# meta = -2.5  (value for the Metallicity for the model.)
# lh = 1.25  (l/Hp where l is the  mixing length of the convective element and Hp is the pressure scale height)
# vtur = 2 km/s (Microturbulence velocity)
# alpha = 0.4  (Alpha)
#
# column 1: WAVELENGTH (ANGSTROM), Wavelength in Angstrom
# column 2: FLUX (ERG/CM2/S/A), Flux in erg/cm2/s/A
          147.2     2.01841e-19 
            151     1.32418e-18 
          155.2     9.53529e-18 
          158.8     4.77413e-17 
            162     1.88422e-16 
            166     9.73391e-16 
          170.3     5.21902e-15 
          173.4     1.66353e-14 
          176.8      5.6597e-14 
          180.2     1.83759e-13 
          181.7      3.0458e-13 
          186.1     1.27933e-12 
            191      5.8439e-12 
          193.9     1.38378e-11 
          198.4     5.00991e-11 
          201.8     1.27395e-10 
            205     2.97861e-10 
          210.5      1.20492e-9 
          216.2      4.74579e-9 
          219.8      1.08608e-8 
            223      2.21482e-8 
          226.8      5.02399e-8 
            230      1.36783e-7 
            234      3.20491e-7 
            240      9.97286e-7 
          246.5      3.19328e-6 
          252.4      8.72609e-6 
          256.8      1.77647e-5 
            260      2.96201e-5 
            264      5.47289e-5 
          268.5     0.000106656 
          273.5     0.000217902 
          278.5     0.000433765 
            284     0.000898011 
            290      0.00192145 
            296      0.00397807 
            301      0.00713158 
            308       0.0155514 
            318       0.0448615 
            328        0.120435 
            338        0.303793 
            348        0.724224 
            357         1.51352 
            366         3.04351 
            375         5.90069 
            385         11.8421 
            395         22.8715 
            405         42.6443 
            414         72.6573 
            422          114.25 
            430         176.348 
            441         311.486 
            451         508.712 
            460         775.269 
            470         1212.49 
            480         1857.32 
            490         2790.56 
            500         4116.75 
            506         28471.4 
            512         84144.2 
            520          108516 
            530          161515 
            540          180639 
            550          265828 
            560          331488 
            570          414333 
            580          428087 
            590          581404 
            600          754055 
            610          912463 
            620      1.08726e+6 
            630       1.2943e+6 
            640      1.51455e+6 
            650      1.78975e+6 
            658      2.02937e+6 
            665       2.2513e+6 
            675      2.58677e+6 
            685      2.96791e+6 
            695      3.44537e+6 
            705      3.92165e+6 
            716      4.50578e+6 
            726      5.08919e+6 
            735      5.69489e+6 
            745      6.40432e+6 
            755       7.1701e+6 
            765      7.98488e+6 
            775      8.88972e+6 
            785      9.85008e+6 
            795      1.08693e+7 
            805      1.19729e+7 
            815      1.31374e+7 
            825      1.43956e+7 
            835      1.55457e+7 
            845      1.71068e+7 
            855      1.85447e+7 
            865      2.01605e+7 
            875      2.18034e+7 
            885      2.35612e+7 
            895      2.53737e+7 
            905      2.70133e+7 
            915      4.80662e+7 
            925      2.97126e+8 
            935      1.13843e+9 
            945      4.98762e+9 
            955       8.5084e+9 
            965     1.15128e+10 
            975      4.12901e+9 
            985     1.45217e+10 
            995     1.45208e+10 
           1005     1.48058e+10 
           1015     1.26118e+10 
           1025      2.77818e+9 
           1035     1.10379e+10 
           1045     1.44268e+10 
           1055     1.42487e+10 
           1065     1.33769e+10 
           1075     1.37023e+10 
           1085     1.28857e+10 
           1095     1.33933e+10 
           1105     1.27169e+10 
           1115     1.26135e+10 
           1125     1.20155e+10 
           1135      1.2215e+10 
           1145      1.1679e+10 
           1155     1.18032e+10 
           1165     1.16123e+10 
           1175     1.05106e+10 
           1185     1.11013e+10 
           1195      1.0113e+10 
           1205      8.08735e+9 
           1215      1.89964e+9 
           1225      7.72074e+9 
           1235      9.72856e+9 
           1245      9.80015e+9 
           1255      9.60633e+9 
           1265       9.4421e+9 
           1275       9.4612e+9 
           1285      9.28531e+9 
           1295      8.60826e+9 
           1305      8.54077e+9 
           1315      8.77541e+9 
           1325      8.51148e+9 
           1335      8.20646e+9 
           1345      8.26836e+9 
           1355      8.17857e+9 
           1365      7.97931e+9 
           1375      7.85869e+9 
           1385      7.74542e+9 
           1395      7.44718e+9 
           1405       7.3759e+9 
           1415         7.32e+9 
           1425      7.21855e+9 
           1435      7.10695e+9 
           1442      7.03757e+9 
           1447      6.97445e+9 
           1455      6.87519e+9 
           1465      6.75339e+9 
           1475      6.64187e+9 
           1485      6.52367e+9 
           1495      6.41528e+9 
           1505      6.26645e+9 
           1512      6.20955e+9 
           1517      6.17277e+9 
           1525      6.07773e+9 
           1535       5.9123e+9 
           1545      5.86852e+9 
           1555      5.74358e+9 
           1565      5.70195e+9 
           1575      5.62628e+9 
           1585      5.53542e+9 
           1595      5.45541e+9 
           1605      5.32578e+9 
           1615      5.24039e+9 
           1625      5.19507e+9 
           1635      5.12382e+9 
           1645      5.01229e+9 
           1655      4.96181e+9 
           1665       4.8979e+9 
           1672       4.7869e+9 
           1677      4.81305e+9 
           1685      4.75379e+9 
           1695      4.67269e+9 
           1705      4.59484e+9 
           1715      4.51208e+9 
           1725      4.45093e+9 
           1735      4.39426e+9 
           1745       4.3261e+9 
           1755      4.27487e+9 
           1765      4.15775e+9 
           1775      4.13304e+9 
           1785      4.08071e+9 
           1795      4.03338e+9 
           1805      3.97714e+9 
           1815      3.91239e+9 
           1825      3.86251e+9 
           1835       3.8071e+9 
           1845      3.72377e+9 
           1855      3.62801e+9 
           1865      3.59419e+9 
           1875      3.58938e+9 
           1885      3.50189e+9 
           1895      3.41918e+9 
           1905       3.4303e+9 
           1915      3.34331e+9 
           1925      3.29819e+9 
           1935      3.27666e+9 
           1945      3.25322e+9 
           1955      3.16926e+9 
           1967      3.15962e+9 
           1976      3.13535e+9 
           1984      3.08083e+9 
           1995      3.01022e+9 
           2005      3.00885e+9 
           2015      2.97887e+9 
           2025      2.94613e+9 
           2035      2.89878e+9 
           2045      2.86095e+9 
           2055      2.78982e+9 
           2065      2.76993e+9 
           2074      2.76608e+9 
           2078      2.72037e+9 
           2085      2.71843e+9 
           2095      2.66962e+9 
           2105      2.65256e+9 
           2115      2.62409e+9 
           2125      2.59586e+9 
           2135      2.56218e+9 
           2145      2.52721e+9 
           2155      2.49927e+9 
           2165      2.46852e+9 
           2175      2.43743e+9 
           2185      2.40886e+9 
           2195      2.38078e+9 
           2205       2.3511e+9 
           2215      2.32262e+9 
           2225      2.29357e+9 
           2235      2.26669e+9 
           2245      2.24071e+9 
           2255      2.21295e+9 
           2265      2.18795e+9 
           2275      2.16177e+9 
           2285      2.13697e+9 
           2295      2.10337e+9 
           2305      2.08679e+9 
           2315       2.0617e+9 
           2325      2.03808e+9 
           2335      2.01216e+9 
           2345      1.98681e+9 
           2355      1.96807e+9 
           2365      1.94372e+9 
           2375      1.92244e+9 
           2385      1.89788e+9 
           2395       1.8774e+9 
           2405      1.85687e+9 
           2415      1.83506e+9 
           2425       1.8174e+9 
           2435      1.79602e+9 
           2445      1.77613e+9 
           2455      1.75738e+9 
           2465      1.73701e+9 
           2475       1.7182e+9 
           2485      1.69928e+9 
           2495       1.6694e+9 
           2505      1.66205e+9 
           2513       1.6442e+9 
           2518      1.63792e+9 
           2525       1.6253e+9 
           2535      1.60711e+9 
           2545      1.58788e+9 
           2555      1.57409e+9 
           2565      1.55611e+9 
           2575      1.54104e+9 
           2585      1.52451e+9 
           2595      1.50814e+9 
           2605      1.50364e+9 
           2615      1.48847e+9 
           2625      1.47245e+9 
           2635      1.45359e+9 
           2645      1.43971e+9 
           2655      1.42247e+9 
           2665      1.40513e+9 
           2675      1.38985e+9 
           2685      1.38417e+9 
           2695      1.35981e+9 
           2705      1.35559e+9 
           2715      1.34149e+9 
           2725       1.3172e+9 
           2735      1.31418e+9 
           2745      1.29837e+9 
           2755      1.28559e+9 
           2765      1.26369e+9 
           2775      1.26165e+9 
           2785      1.24877e+9 
           2795      1.22229e+9 
           2805      1.21776e+9 
           2815      1.21174e+9 
           2825      1.18736e+9 
           2835      1.18115e+9 
           2845      1.17584e+9 
           2855      1.16429e+9 
           2865      1.15288e+9 
           2875       1.1415e+9 
           2885      1.13038e+9 
           2895      1.11931e+9 
           2910      1.10299e+9 
           2930       1.0814e+9 
           2950      1.05393e+9 
           2970      1.04081e+9 
           2990      1.02091e+9 
           3010      1.00177e+9 
           3030      9.83011e+8 
           3050      9.64695e+8 
           3070       9.4677e+8 
           3090      9.29188e+8 
           3110      9.12212e+8 
           3130      8.96592e+8 
           3150      8.80269e+8 
           3170      8.64023e+8 
           3190      8.41969e+8 
           3210      8.33118e+8 
           3230      8.18139e+8 
           3250      8.03535e+8 
           3270      7.90213e+8 
           3290      7.75344e+8 
           3310      7.62839e+8 
           3330      7.49593e+8 
           3350      7.35466e+8 
           3370      7.23976e+8 
           3390      7.11623e+8 
           3410      6.99509e+8 
           3430      6.85227e+8 
           3450      6.71577e+8 
           3470      6.62074e+8 
           3490      6.50951e+8 
           3510      6.42331e+8 
           3530      6.32442e+8 
           3550      6.22198e+8 
           3570      6.14655e+8 
           3590       6.0157e+8 
           3610      5.92928e+8 
           3630      5.82181e+8 
           3640      5.80721e+8 
           3650       5.7562e+8 
           3670      5.68776e+8 
           3690      5.55102e+8 
           3710      5.38294e+8 
           3730      5.21056e+8 
           3750      5.67298e+8 
           3770      5.75475e+8 
           3790      6.15473e+8 
           3810      6.48554e+8 
           3830      5.57355e+8 
           3850      6.73525e+8 
           3870      6.82731e+8 
           3890      5.26975e+8 
           3910      6.72875e+8 
           3930      6.65458e+8 
           3950      6.52241e+8 
           3970      4.91011e+8 
           3990      6.25812e+8 
           4010      6.23919e+8 
           4030      5.86682e+8 
           4050      6.10714e+8 
           4070      5.98131e+8 
           4090      5.44507e+8 
           4110      4.67341e+8 
           4130      5.60912e+8 
           4150      5.57072e+8 
           4170      5.52738e+8 
           4190      5.45564e+8 
           4210      5.36843e+8 
           4230       5.2822e+8 
           4250      5.19735e+8 
           4270      5.11076e+8 
           4290      5.02617e+8 
           4310      4.91636e+8 
           4330       4.3886e+8 
           4350      3.96828e+8 
           4370      4.67595e+8 
           4390      4.50716e+8 
           4410      4.57776e+8 
           4430      4.48641e+8 
           4450      4.44009e+8 
           4470      4.16872e+8 
           4490      4.30023e+8 
           4510      4.24087e+8 
           4530      4.17652e+8 
           4550       4.1135e+8 
           4570      4.05178e+8 
           4590      3.99151e+8 
           4610      3.93231e+8 
           4630      3.87399e+8 
           4650      3.81564e+8 
           4670      3.76057e+8 
           4690      3.70545e+8 
           4710      3.60391e+8 
           4730      3.59775e+8 
           4750      3.54497e+8 
           4770      3.49511e+8 
           4790       3.4448e+8 
           4810      3.38804e+8 
           4830      3.31951e+8 
           4850      3.02425e+8 
           4870      2.67017e+8 
           4890      3.16608e+8 
           4910      3.14815e+8 
           4930      3.03648e+8 
           4950      3.07334e+8 
           4970      3.03081e+8 
           4990      2.98871e+8 
           5010      2.91026e+8 
           5030      2.90652e+8 
           5050      2.84794e+8 
           5070      2.82772e+8 
           5090      2.78911e+8 
           5110      2.75116e+8 
           5130        2.714e+8 
           5150      2.67734e+8 
           5170       2.6413e+8 
           5190      2.60602e+8 
           5210      2.57078e+8 
           5230      2.53697e+8 
           5250      2.50333e+8 
           5270      2.47026e+8 
           5290      2.43775e+8 
           5310      2.40579e+8 
           5330      2.37424e+8 
           5350      2.34323e+8 
           5370      2.31288e+8 
           5390      2.28304e+8 
           5410      2.25357e+8 
           5430      2.22435e+8 
           5450      2.19588e+8 
           5470      2.16789e+8 
           5490      2.14038e+8 
           5510      2.11308e+8 
           5530      2.08636e+8 
           5550       2.0601e+8 
           5570      2.03416e+8 
           5590      2.00866e+8 
           5610      1.98347e+8 
           5630      1.95883e+8 
           5650      1.93436e+8 
           5670      1.91055e+8 
           5690      1.88702e+8 
           5710      1.86388e+8 
           5730      1.84103e+8 
           5750      1.81844e+8 
           5770      1.79635e+8 
           5790      1.77452e+8 
           5810      1.75307e+8 
           5830      1.73186e+8 
           5850      1.71101e+8 
           5870      1.63935e+8 
           5890      1.66819e+8 
           5910      1.65045e+8 
           5930      1.63077e+8 
           5950      1.61142e+8 
           5970      1.59239e+8 
           5990      1.57369e+8 
           6010       1.5552e+8 
           6030      1.53703e+8 
           6050      1.51906e+8 
           6070       1.5014e+8 
           6090      1.48404e+8 
           6110      1.46687e+8 
           6130       1.4499e+8 
           6150      1.43331e+8 
           6170      1.41681e+8 
           6190      1.40069e+8 
           6210      1.38474e+8 
           6230      1.36898e+8 
           6250      1.35348e+8 
           6270      1.33824e+8 
           6290      1.32318e+8 
           6310      1.30827e+8 
           6330      1.29363e+8 
           6350      1.27895e+8 
           6370       1.2649e+8 
           6390       1.2509e+8 
           6410      1.23706e+8 
           6430      1.22345e+8 
           6450      1.20999e+8 
           6470      1.19667e+8 
           6490      1.18358e+8 
           6510       1.1693e+8 
           6530       1.1511e+8 
           6550      1.09254e+8 
           6570      9.62139e+7 
           6590      1.10656e+8 
           6610      1.10556e+8 
           6630      1.09676e+8 
           6650      1.08574e+8 
           6670      1.06366e+8 
           6690      1.05259e+8 
           6710      1.05143e+8 
           6730      1.04029e+8 
           6750      1.02933e+8 
           6770      1.01849e+8 
           6790      1.00776e+8 
           6810      9.97223e+7 
           6830      9.86788e+7 
           6850      9.76538e+7 
           6870       9.6639e+7 
           6890      9.56344e+7 
           6910      9.46477e+7 
           6930      9.36707e+7 
           6950      9.27034e+7 
           6970      9.17534e+7 
           6990      9.08127e+7 
           7010       8.9889e+7 
           7030      8.89742e+7 
           7050       8.8076e+7 
           7070      8.58147e+7 
           7090      8.62981e+7 
           7110      8.54332e+7 
           7130      8.45766e+7 
           7150      8.37283e+7 
           7170      8.28735e+7 
           7190      8.20633e+7 
           7210      8.12463e+7 
           7230      8.04154e+7 
           7250      7.96498e+7 
           7270      7.88629e+7 
           7290       7.7488e+7 
           7310      7.73043e+7 
           7330      7.65604e+7 
           7350      7.58166e+7 
           7370      7.50728e+7 
           7390      7.43427e+7 
           7410      7.36264e+7 
           7430      7.29098e+7 
           7450      7.22202e+7 
           7470      7.15234e+7 
           7490      7.08398e+7 
           7510      7.01357e+7 
           7530      6.94912e+7 
           7550      6.88261e+7 
           7570      6.81736e+7 
           7590      6.75271e+7 
           7610      6.68864e+7 
           7630      6.62515e+7 
           7650      6.56287e+7 
           7670      6.50115e+7 
           7690      6.44062e+7 
           7710         6.38e+7 
           7730      6.32055e+7 
           7750      6.26175e+7 
           7770       6.2026e+7 
           7790      6.14633e+7 
           7810      6.08611e+7 
           7830      6.03343e+7 
           7850      5.98378e+7 
           7870      5.92877e+7 
           7890       5.8717e+7 
           7910      5.82127e+7 
           7930      5.76816e+7 
           7950      5.71474e+7 
           7970      5.65495e+7 
           7990      5.60284e+7 
           8010      5.55117e+7 
           8030      5.50194e+7 
           8050      5.45382e+7 
           8070      5.40663e+7 
           8090      5.34966e+7 
           8110      5.30812e+7 
           8130      5.26545e+7 
           8150      5.21134e+7 
           8170      5.17299e+7 
           8190      5.12153e+7 
           8210      5.07006e+7 
           8230      5.03966e+7 
           8250      4.99732e+7 
           8270      4.93093e+7 
           8290      4.90656e+7 
           8310      4.86584e+7 
           8330      4.82209e+7 
           8350      4.75844e+7 
           8370      4.73046e+7 
           8390      4.69584e+7 
           8410      4.65265e+7 
           8430      4.60574e+7 
           8450      4.54049e+7 
           8470      4.51103e+7 
           8490      4.48186e+7 
           8510       4.4127e+7 
           8530      4.41714e+7 
           8550      4.27055e+7 
           8570      4.40504e+7 
