# Kurucz ODFNEW /NOVER (2003)
# teff = 6750 K (value for the effective temperature for the model. Temperatures are given in K)
# logg = 4 log(cm/s2) (value for Log(G) for the model.)
# meta = -4  (value for the Metallicity for the model.)
# lh = 1.25  (l/Hp where l is the  mixing length of the convective element and Hp is the pressure scale height)
# vtur = 2 km/s (Microturbulence velocity)
# alpha = 0.4  (Alpha)
#
# column 1: WAVELENGTH (ANGSTROM), Wavelength in Angstrom
# column 2: FLUX (ERG/CM2/S/A), Flux in erg/cm2/s/A
          147.2     1.73866e-35 
            151     1.65225e-35 
          155.2     1.56403e-35 
          158.8     1.49392e-35 
            162     1.43549e-35 
            166     1.36714e-35 
          170.3     1.29897e-35 
          173.4     1.25294e-35 
          176.8     1.20522e-35 
          180.2     1.16017e-35 
          181.7     1.14109e-35 
          186.1     1.08777e-35 
            191     1.03267e-35 
          193.9     1.00201e-35 
          198.4     9.57076e-36 
          201.8     9.25097e-36 
            205     8.96441e-36 
          210.5     8.50208e-36 
          216.2     8.05969e-36 
          219.8     7.79784e-36 
            223     7.57565e-36 
          226.8     7.32392e-36 
            230     7.12154e-36 
            234     6.88015e-36 
            240     6.54044e-36 
          246.5     6.20006e-36 
          252.4     5.91358e-36 
          256.8     5.71267e-36 
            260     5.57292e-36 
            264     5.40532e-36 
          268.5     5.22566e-36 
          273.5     5.03634e-36 
          278.5     4.85712e-36 
            284     4.67082e-36 
            290     4.47954e-36 
            296     4.29978e-36 
            301     4.15812e-36 
            308     3.97126e-36 
            318     6.80001e-24 
            328     1.97417e-22 
            338     2.09611e-21 
            348     1.91304e-20 
            357     1.25364e-19 
            366     7.46591e-19 
            375     4.06935e-18 
            385     2.43199e-17 
            395     1.32334e-16 
            405      6.6021e-16 
            414     2.61804e-15 
            422     8.46226e-15 
            430     2.61388e-14 
            441     1.14965e-13 
            451     4.13993e-13 
            460     2.42987e-15 
            470     7.30009e-15 
            480     2.08624e-14 
            490     5.69487e-14 
            500     1.48692e-13 
            506     1.29719e-10 
            512     3.26224e-10 
            520     6.94191e-10 
            530      1.75423e-9 
            540     6.95231e-12 
            550     1.51364e-11 
            560     3.17685e-11 
            570     6.47826e-11 
            580     1.27073e-10 
            590     2.48613e-10 
            600     4.69185e-10 
            610     8.65101e-10 
            620      1.56033e-9 
            630      2.75575e-9 
            640      4.77359e-9 
            650      8.11399e-9 
            658      1.22425e-8 
            665      1.73855e-8 
            675      2.82871e-8 
            685      4.52886e-8 
            695      7.14025e-8 
            705      1.10929e-7 
            716      1.77211e-7 
            726      2.67489e-7 
            735      3.83351e-7 
            745      5.65245e-7 
            755      8.23613e-7 
            765       1.1866e-6 
            775      1.69101e-6 
            785      2.38482e-6 
            795      3.32957e-6 
            805        4.604e-6 
            815      6.30751e-6 
            825      8.56549e-6 
            835      1.15344e-5 
            845      1.54042e-5 
            855      2.04097e-5 
            865      2.68344e-5 
            875      3.50215e-5 
            885      4.53855e-5 
            895      5.84171e-5 
            905      7.46858e-5 
            915         0.28176 
            925        0.931493 
            935          1.3395 
            945          1.9311 
            955         2.63588 
            965         3.25236 
            975         2.50555 
            985         5.69778 
            995         7.09375 
           1005         8.29978 
           1015          6.3551 
           1025         10.4374 
           1035         14.7819 
           1045         20.0307 
           1055         24.4686 
           1065         30.7249 
           1075         36.9126 
           1085         44.8981 
           1095         52.7379 
           1105         61.9539 
           1115         72.4505 
           1125           84.56 
           1135         97.5699 
           1145         110.609 
           1155         123.163 
           1165         93.2702 
           1175         48.5897 
           1185         210.162 
           1195         209.564 
           1205         211.969 
           1215         183.378 
           1225         274.245 
           1235         364.349 
           1245         62.8156 
           1255         102.337 
           1265         193.075 
           1275         377.651 
           1285         698.349 
           1295         834.274 
           1305         961.122 
           1315         1135.57 
           1325         1317.08 
           1335         1520.66 
           1345         1751.03 
           1355         2002.94 
           1365         2286.19 
           1375         2593.19 
           1385         2926.48 
           1395         3295.66 
           1405         3687.28 
           1415         4155.22 
           1425          4603.4 
           1435         5131.12 
           1442         5555.38 
           1447         5780.28 
           1455         6317.84 
           1465         6888.02 
           1475         7627.83 
           1485         8375.35 
           1495         9238.95 
           1505         10141.6 
           1512         10827.7 
           1517         11125.8 
           1525         11990.7 
           1535           13011 
           1545         13975.3 
           1555         15139.9 
           1565         16084.5 
           1575         17437.6 
           1585         18731.3 
           1595         20146.8 
           1605         21651.5 
           1615         23757.3 
           1625         26354.8 
           1635         29579.2 
           1645         35240.4 
           1655         42952.8 
           1665         83966.3 
           1672          155229 
           1677          278174 
           1685          554952 
           1695      1.12236e+6 
           1705      1.83244e+6 
           1715      2.60924e+6 
           1725      3.28009e+6 
           1735      3.84348e+6 
           1745      4.13966e+6 
           1755      4.51142e+6 
           1765      4.65901e+6 
           1775      4.91768e+6 
           1785      5.12202e+6 
           1795      5.39636e+6 
           1805      5.43582e+6 
           1815      5.60081e+6 
           1825      5.69874e+6 
           1835       5.9108e+6 
           1845      5.80695e+6 
           1855      6.11357e+6 
           1865       6.3573e+6 
           1875      6.46391e+6 
           1885      6.60173e+6 
           1895      6.74594e+6 
           1905      6.76748e+6 
           1915      7.02059e+6 
           1925      7.17526e+6 
           1935      7.15401e+6 
           1945      7.41245e+6 
           1955      7.52892e+6 
           1967      7.69167e+6 
           1976      7.65813e+6 
           1984      7.71728e+6 
           1995      7.97734e+6 
           2005      8.02176e+6 
           2015      8.15008e+6 
           2025      8.11912e+6 
           2035      8.42451e+6 
           2045      8.53888e+6 
           2055      8.52431e+6 
           2065      8.62509e+6 
           2074      8.87813e+6 
           2078      8.91291e+6 
           2085      8.92769e+6 
           2095      9.03579e+6 
           2105      9.10743e+6 
           2115      9.25564e+6 
           2125      9.23047e+6 
           2135      9.39215e+6 
           2145      9.54059e+6 
           2155      9.61125e+6 
           2165      9.54437e+6 
           2175      9.69492e+6 
           2185      9.86915e+6 
           2195       9.9968e+6 
           2205      9.94508e+6 
           2215      9.75413e+6 
           2225      1.01179e+7 
           2235        1.037e+7 
           2245      1.03966e+7 
           2255      1.03002e+7 
           2265      1.02498e+7 
           2275      1.04867e+7 
           2285       1.0621e+7 
           2295      1.06102e+7 
           2305      1.07892e+7 
           2315       1.0803e+7 
           2325      1.08371e+7 
           2335       1.0873e+7 
           2345       1.0601e+7 
           2355      1.10634e+7 
           2365      1.07626e+7 
           2375      1.11003e+7 
           2385      1.07054e+7 
           2395      1.11468e+7 
           2405      1.12328e+7 
           2415      1.12937e+7 
           2425      1.16639e+7 
           2435      1.15734e+7 
           2445      1.16913e+7 
           2455      1.17869e+7 
           2465      1.17361e+7 
           2475      1.17448e+7 
           2485      1.16455e+7 
           2495      1.16686e+7 
           2505      1.19514e+7 
           2513      1.16702e+7 
           2518      1.16014e+7 
           2525      1.16104e+7 
           2535      1.18215e+7 
           2545      1.20155e+7 
           2555      1.22812e+7 
           2565      1.21976e+7 
           2575      1.23059e+7 
           2585      1.23637e+7 
           2595      1.23698e+7 
           2605      1.22961e+7 
           2615      1.23042e+7 
           2625      1.23697e+7 
           2635      1.24995e+7 
           2645      1.28592e+7 
           2655      1.28918e+7 
           2665      1.28249e+7 
           2675      1.28745e+7 
           2685      1.30035e+7 
           2695      1.29954e+7 
           2705      1.30519e+7 
           2715      1.28654e+7 
           2725      1.28894e+7 
           2735      1.29464e+7 
           2745      1.25753e+7 
           2755      1.27323e+7 
           2765      1.30297e+7 
           2775      1.32177e+7 
           2785      1.31628e+7 
           2795      1.23218e+7 
           2805      1.28087e+7 
           2815      1.34238e+7 
           2825      1.34427e+7 
           2835      1.33799e+7 
           2845      1.34368e+7 
           2855      1.31506e+7 
           2865      1.34261e+7 
           2875      1.35225e+7 
           2885      1.34217e+7 
           2895      1.36226e+7 
           2910       1.3669e+7 
           2930      1.36151e+7 
           2950      1.36021e+7 
           2970      1.36899e+7 
           2990      1.36986e+7 
           3010      1.37654e+7 
           3030      1.37776e+7 
           3050      1.38449e+7 
           3070       1.3843e+7 
           3090      1.38988e+7 
           3110      1.39395e+7 
           3130       1.3968e+7 
           3150      1.39753e+7 
           3170      1.39964e+7 
           3190      1.39491e+7 
           3210      1.40029e+7 
           3230      1.39073e+7 
           3250      1.40031e+7 
           3270      1.40663e+7 
           3290      1.40809e+7 
           3310      1.40863e+7 
           3330      1.40491e+7 
           3350       1.4004e+7 
           3370      1.40178e+7 
           3390      1.40181e+7 
           3410      1.40709e+7 
           3430      1.40661e+7 
           3450      1.40297e+7 
           3470      1.40362e+7 
           3490      1.40422e+7 
           3510       1.4041e+7 
           3530      1.40338e+7 
           3550      1.40301e+7 
           3570      1.39809e+7 
           3590      1.39747e+7 
           3610      1.39648e+7 
           3630      1.39614e+7 
           3640      1.39604e+7 
           3650      1.39907e+7 
           3670      1.39706e+7 
           3690      1.35335e+7 
           3710      1.39852e+7 
           3730      1.40457e+7 
           3750        1.632e+7 
           3770      1.67158e+7 
           3790      1.82344e+7 
           3810      1.99767e+7 
           3830      1.73989e+7 
           3850       2.0999e+7 
           3870      2.19406e+7 
           3890      1.66724e+7 
           3910      2.18831e+7 
           3930      2.20161e+7 
           3950        2.182e+7 
           3970      1.63964e+7 
           3990      2.14531e+7 
           4010      2.21163e+7 
           4030      2.21068e+7 
           4050      2.19898e+7 
           4070      2.16874e+7 
           4090      1.98385e+7 
           4110      1.69686e+7 
           4130      2.12855e+7 
           4150      2.14818e+7 
           4170      2.14409e+7 
           4190      2.13728e+7 
           4210      2.12828e+7 
           4230      2.11642e+7 
           4250      2.10593e+7 
           4270      2.09141e+7 
           4290      2.07687e+7 
           4310      2.04527e+7 
           4330      1.83473e+7 
           4350      1.65186e+7 
           4370      2.00863e+7 
           4390       2.0238e+7 
           4410      2.01904e+7 
           4430       2.0139e+7 
           4450      2.00383e+7 
           4470      1.99348e+7 
           4490      1.98343e+7 
           4510       1.9731e+7 
           4530      1.96251e+7 
           4550      1.95202e+7 
           4570      1.94201e+7 
           4590      1.93192e+7 
           4610      1.92175e+7 
           4630      1.91133e+7 
           4650      1.90138e+7 
           4670      1.89117e+7 
           4690      1.88107e+7 
           4710      1.87073e+7 
           4730      1.86084e+7 
           4750      1.85071e+7 
           4770      1.84003e+7 
           4790      1.82584e+7 
           4810      1.81118e+7 
           4830      1.78378e+7 
           4850      1.63392e+7 
           4870      1.43281e+7 
           4890      1.74326e+7 
           4910      1.76019e+7 
           4930      1.75632e+7 
           4950      1.75123e+7 
           4970      1.74235e+7 
           4990      1.73265e+7 
           5010      1.72289e+7 
           5030      1.71354e+7 
           5050      1.70398e+7 
           5070      1.69467e+7 
           5090      1.68516e+7 
           5110      1.67574e+7 
           5130      1.66642e+7 
           5150      1.65706e+7 
           5170      1.64567e+7 
           5190      1.63749e+7 
           5210       1.6291e+7 
           5230      1.61997e+7 
           5250      1.61107e+7 
           5270      1.60171e+7 
           5290      1.59286e+7 
           5310      1.58395e+7 
           5330      1.57474e+7 
           5350      1.56602e+7 
           5370      1.55712e+7 
           5390       1.5483e+7 
           5410      1.53945e+7 
           5430      1.53069e+7 
           5450      1.52201e+7 
           5470      1.51342e+7 
           5490      1.50479e+7 
           5510      1.49624e+7 
           5530      1.48778e+7 
           5550      1.47928e+7 
           5570      1.47086e+7 
           5590       1.4624e+7 
           5610      1.45415e+7 
           5630      1.44586e+7 
           5650      1.43764e+7 
           5670      1.42939e+7 
           5690      1.42123e+7 
           5710      1.41314e+7 
           5730      1.40512e+7 
           5750      1.39708e+7 
           5770       1.3891e+7 
           5790       1.3811e+7 
           5810      1.37317e+7 
           5830      1.36531e+7 
           5850      1.35754e+7 
           5870      1.34972e+7 
           5890      1.34166e+7 
           5910      1.33432e+7 
           5930      1.32673e+7 
           5950       1.3191e+7 
           5970      1.31154e+7 
           5990      1.30406e+7 
           6010      1.29654e+7 
           6030       1.2891e+7 
           6050      1.28172e+7 
           6070      1.27441e+7 
           6090      1.26707e+7 
           6110       1.2598e+7 
           6130      1.25259e+7 
           6150      1.24546e+7 
           6170      1.23829e+7 
           6190      1.23118e+7 
           6210      1.22414e+7 
           6230      1.21717e+7 
           6250      1.21016e+7 
           6270      1.20332e+7 
           6290      1.19644e+7 
           6310      1.18962e+7 
           6330      1.18278e+7 
           6350      1.17599e+7 
           6370      1.16936e+7 
           6390      1.16261e+7 
           6410        1.156e+7 
           6430      1.14946e+7 
           6450       1.1428e+7 
           6470      1.13628e+7 
           6490      1.12706e+7 
           6510      1.11801e+7 
           6530      1.10278e+7 
           6550      1.04029e+7 
           6570      8.95634e+6 
           6590      1.07246e+7 
           6610      1.08418e+7 
           6630      1.08219e+7 
           6650      1.07884e+7 
           6670      1.07331e+7 
           6690      1.06724e+7 
           6710      1.06122e+7 
           6730      1.05517e+7 
           6750      1.04926e+7 
           6770      1.04332e+7 
           6790      1.03743e+7 
           6810       1.0315e+7 
           6830      1.02571e+7 
           6850      1.01989e+7 
           6870      1.01412e+7 
           6890       1.0084e+7 
           6910      1.00273e+7 
           6930      9.97109e+6 
           6950      9.91457e+6 
           6970      9.85853e+6 
           6990      9.80373e+6 
           7010      9.74864e+6 
           7030      9.69325e+6 
           7050      9.63909e+6 
           7070      9.58463e+6 
           7090      9.53138e+6 
           7110      9.47784e+6 
           7130      9.42474e+6 
           7150      9.37209e+6 
           7170      9.31914e+6 
           7190      9.26737e+6 
           7210       9.2153e+6 
           7230      9.16367e+6 
           7250      9.11246e+6 
           7270      9.06168e+6 
           7290      9.01132e+6 
           7310      8.96067e+6 
           7330      8.91113e+6 
           7350      8.86131e+6 
           7370      8.81189e+6 
           7390      8.76288e+6 
           7410      8.71427e+6 
           7430      8.66537e+6 
           7450      8.61755e+6 
           7470      8.56944e+6 
           7490       8.5224e+6 
           7510      8.47506e+6 
           7530      8.42811e+6 
           7550      8.38153e+6 
           7570      8.33533e+6 
           7590       8.2895e+6 
           7610      8.24338e+6 
           7630      8.19828e+6 
           7650       8.1529e+6 
           7670      8.10787e+6 
           7690       8.0632e+6 
           7710      8.01889e+6 
           7730      7.97493e+6 
           7750      7.93131e+6 
           7770      7.88804e+6 
           7790       7.8451e+6 
           7810      7.80189e+6 
           7830      7.75962e+6 
           7850      7.71708e+6 
           7870      7.67486e+6 
           7890      7.63298e+6 
           7910      7.59142e+6 
           7930      7.55018e+6 
           7950      7.50926e+6 
           7970      7.46865e+6 
           7990      7.42836e+6 
           8010      7.38778e+6 
           8030      7.34811e+6 
           8050      7.30815e+6 
           8070       7.2685e+6 
           8090      7.22916e+6 
           8110      7.19011e+6 
           8130      7.15136e+6 
           8150       7.1129e+6 
           8170      7.07473e+6 
           8190      7.03629e+6 
           8210      7.00037e+6 
           8230      6.96361e+6 
           8250      6.92712e+6 
           8270       6.8909e+6 
           8290       6.8544e+6 
           8310      6.81872e+6 
           8330      6.78167e+6 
           8350      6.74598e+6 
           8370      6.70679e+6 
           8390      6.67057e+6 
           8410      6.63143e+6 
           8430      6.59947e+6 
           8450       6.5651e+6 
           8470       6.5042e+6 
           8490      6.50809e+6 
           8510      6.39898e+6 
           8530      6.44978e+6 
           8550      6.26092e+6 
           8570      6.39895e+6 
           8590      6.28137e+6 
