# Kurucz ODFNEW /NOVER (2003)
# teff = 24000 K (value for the effective temperature for the model. Temperatures are given in K)
# logg = 5 log(cm/s2) (value for Log(G) for the model.)
# meta = -2.5  (value for the Metallicity for the model.)
# lh = 1.25  (l/Hp where l is the  mixing length of the convective element and Hp is the pressure scale height)
# vtur = 2 km/s (Microturbulence velocity)
# alpha = 0  (Alpha)
#
# column 1: WAVELENGTH (ANGSTROM), Wavelength in Angstrom
# column 2: FLUX (ERG/CM2/S/A), Flux in erg/cm2/s/A
          147.2     1.93113e-15 
            151     1.00359e-14 
          155.2     5.66368e-14 
          158.8     2.32455e-13 
            162     7.74733e-13 
            166     3.27089e-12 
          170.3     1.42705e-11 
          173.4     3.94439e-11 
          176.8     1.15469e-10 
          180.2      3.2451e-10 
          181.7     5.05594e-10 
          186.1      1.78046e-9 
            191      6.75007e-9 
          193.9      1.43799e-8 
          198.4      4.44562e-8 
          201.8       1.0078e-7 
            205      2.12268e-7 
          210.5      7.22983e-7 
          216.2      2.40485e-6 
          219.8      4.96909e-6 
            223      9.27941e-6 
          226.8      1.90217e-5 
            230      5.79786e-5 
            234     0.000125831 
            240     0.000335191 
          246.5     0.000915438 
          252.4      0.00218537 
          256.8      0.00401761 
            260      0.00627455 
            264       0.0106582 
          268.5       0.0189498 
          273.5       0.0350887 
          278.5       0.0635555 
            284         0.11905 
            290        0.229406 
            296        0.429492 
            301        0.710497 
            308         1.38625 
            318         3.46639 
            328         8.11594 
            338         18.0028 
            348         38.0325 
            357         71.7048 
            366         130.782 
            375         231.082 
            385         420.509 
            395         740.131 
            405         1263.64 
            414         1996.16 
            422         2943.03 
            430         4269.74 
            441         6952.45 
            451         10581.5 
            460         15175.1 
            470         22245.6 
            480         32028.5 
            490         45350.3 
            500         63197.1 
            506          324295 
            512       1.0924e+6 
            520      1.37637e+6 
            530      1.92522e+6 
            540      2.08971e+6 
            550      2.84509e+6 
            560      3.37927e+6 
            570      4.02946e+6 
            580      4.13809e+6 
            590      5.31209e+6 
            600      6.44417e+6 
            610      7.47161e+6 
            620      8.58549e+6 
            630       9.8392e+6 
            640      1.11446e+7 
            650      1.27152e+7 
            658      1.40315e+7 
            665      1.52421e+7 
            675      1.70156e+7 
            685      1.89358e+7 
            695      2.13274e+7 
            705      2.36456e+7 
            716      2.63858e+7 
            726      2.90647e+7 
            735      3.17304e+7 
            745      3.48055e+7 
            755      3.80513e+7 
            765      4.14552e+7 
            775      4.50871e+7 
            785      4.88891e+7 
            795      5.28461e+7 
            805      5.70165e+7 
            815      6.13509e+7 
            825      6.59335e+7 
            835      6.99993e+7 
            845      7.55279e+7 
            855      8.04658e+7 
            865      8.59218e+7 
            875      9.14041e+7 
            885      9.70701e+7 
            895      1.02861e+8 
            905      1.07992e+8 
            915      1.50687e+8 
            925      6.33588e+8 
            935      1.72023e+9 
            945      7.17242e+9 
            955      1.4538e+10 
            965     2.07268e+10 
            975      6.98037e+9 
            985     3.02207e+10 
            995     3.14078e+10 
           1005      3.2207e+10 
           1015     2.45738e+10 
           1025      4.16379e+9 
           1035     2.08557e+10 
           1045     2.98882e+10 
           1055      3.0094e+10 
           1065     2.84939e+10 
           1075     2.86616e+10 
           1085     2.65315e+10 
           1095     2.75833e+10 
           1105     2.64159e+10 
           1115     2.58287e+10 
           1125     2.46155e+10 
           1135     2.47031e+10 
           1145     2.37171e+10 
           1155     2.35477e+10 
           1165      2.2962e+10 
           1175     2.05956e+10 
           1185     2.15064e+10 
           1195     1.96917e+10 
           1205     1.49459e+10 
           1215      3.16445e+9 
           1225     1.34047e+10 
           1235     1.81678e+10 
           1245     1.84519e+10 
           1255       1.833e+10 
           1265     1.78528e+10 
           1275     1.77053e+10 
           1285     1.73226e+10 
           1295     1.64116e+10 
           1305     1.62064e+10 
           1315     1.62184e+10 
           1325      1.5684e+10 
           1335     1.51446e+10 
           1345     1.51566e+10 
           1355      1.4874e+10 
           1365     1.45218e+10 
           1375     1.42297e+10 
           1385     1.39387e+10 
           1395     1.34351e+10 
           1405     1.32256e+10 
           1415     1.30774e+10 
           1425     1.28329e+10 
           1435     1.25798e+10 
           1442     1.24165e+10 
           1447     1.22887e+10 
           1455      1.2092e+10 
           1465     1.18443e+10 
           1475     1.16157e+10 
           1485     1.13839e+10 
           1495     1.11659e+10 
           1505     1.09144e+10 
           1512     1.07707e+10 
           1517     1.06802e+10 
           1525       1.051e+10 
           1535     1.02396e+10 
           1545     1.00709e+10 
           1555      9.85485e+9 
           1565      9.74854e+9 
           1575      9.58428e+9 
           1585      9.41019e+9 
           1595      9.24607e+9 
           1605      9.02943e+9 
           1615      8.86538e+9 
           1625      8.75246e+9 
           1635      8.60218e+9 
           1645      8.36343e+9 
           1655      8.30324e+9 
           1665      8.17051e+9 
           1672      8.02596e+9 
           1677      8.00657e+9 
           1685       7.8941e+9 
           1695      7.75219e+9 
           1705      7.61319e+9 
           1715       7.4742e+9 
           1725      7.35259e+9 
           1735      7.23917e+9 
           1745      7.11475e+9 
           1755      7.00772e+9 
           1765      6.83663e+9 
           1775      6.76388e+9 
           1785      6.66419e+9 
           1795      6.56325e+9 
           1805      6.46147e+9 
           1815      6.35067e+9 
           1825      6.25355e+9 
           1835      6.15347e+9 
           1845      6.02995e+9 
           1855      5.86954e+9 
           1865      5.79983e+9 
           1875      5.77081e+9 
           1885      5.64295e+9 
           1895      5.51588e+9 
           1905      5.49436e+9 
           1915        5.361e+9 
           1925      5.28207e+9 
           1935      5.22832e+9 
           1945      5.17639e+9 
           1955      5.05358e+9 
           1967      5.00983e+9 
           1976      4.95841e+9 
           1984      4.87774e+9 
           1995        4.769e+9 
           2005      4.74489e+9 
           2015      4.68547e+9 
           2025      4.62342e+9 
           2035      4.54844e+9 
           2045      4.48352e+9 
           2055       4.3994e+9 
           2065      4.33437e+9 
           2074      4.31321e+9 
           2078      4.24672e+9 
           2085      4.23628e+9 
           2095        4.161e+9 
           2105      4.12257e+9 
           2115      4.07122e+9 
           2125      4.01923e+9 
           2135      3.96307e+9 
           2145      3.90671e+9 
           2155      3.85618e+9 
           2165      3.80465e+9 
           2175      3.75262e+9 
           2185      3.70352e+9 
           2195      3.65484e+9 
           2205      3.60588e+9 
           2215      3.55834e+9 
           2225       3.5109e+9 
           2235      3.46477e+9 
           2245       3.4203e+9 
           2255      3.37529e+9 
           2265      3.33233e+9 
           2275      3.28905e+9 
           2285      3.24727e+9 
           2295      3.19314e+9 
           2305      3.16457e+9 
           2315      3.12372e+9 
           2325       3.0845e+9 
           2335       3.0446e+9 
           2345      3.00567e+9 
           2355      2.96967e+9 
           2365      2.93188e+9 
           2375      2.89582e+9 
           2385      2.85874e+9 
           2395      2.82388e+9 
           2405      2.78951e+9 
           2415      2.75502e+9 
           2425      2.72254e+9 
           2435      2.68898e+9 
           2445      2.65644e+9 
           2455      2.62497e+9 
           2465      2.59286e+9 
           2475      2.56199e+9 
           2485      2.53122e+9 
           2495      2.48713e+9 
           2505       2.4711e+9 
           2513      2.44417e+9 
           2518      2.43341e+9 
           2525       2.4132e+9 
           2535      2.38435e+9 
           2545      2.35587e+9 
           2555      2.32991e+9 
           2565      2.30267e+9 
           2575      2.27647e+9 
           2585      2.25027e+9 
           2595      2.22434e+9 
           2605      2.21551e+9 
           2615       2.1905e+9 
           2625      2.16559e+9 
           2635       2.1392e+9 
           2645      2.11449e+9 
           2655      2.08769e+9 
           2665      2.05895e+9 
           2675      2.03142e+9 
           2685      2.02343e+9 
           2695      1.98292e+9 
           2705      1.97848e+9 
           2715      1.95642e+9 
           2725       1.9155e+9 
           2735      1.91346e+9 
           2745      1.89119e+9 
           2755      1.87074e+9 
           2765      1.83205e+9 
           2775      1.83115e+9 
           2785      1.81112e+9 
           2795      1.78372e+9 
           2805      1.76992e+9 
           2815      1.75319e+9 
           2825      1.71106e+9 
           2835      1.70107e+9 
           2845      1.69751e+9 
           2855      1.67949e+9 
           2865      1.66173e+9 
           2875      1.64413e+9 
           2885      1.62682e+9 
           2895      1.60976e+9 
           2910      1.58453e+9 
           2930      1.55165e+9 
           2950      1.50545e+9 
           2970      1.48874e+9 
           2990      1.45836e+9 
           3010      1.42894e+9 
           3030      1.40025e+9 
           3050      1.37226e+9 
           3070      1.34497e+9 
           3090      1.31826e+9 
           3110      1.29244e+9 
           3130      1.26867e+9 
           3150      1.24388e+9 
           3170      1.21969e+9 
           3190      1.18356e+9 
           3210      1.17273e+9 
           3230       1.1501e+9 
           3250      1.12807e+9 
           3270      1.10818e+9 
           3290      1.08573e+9 
           3310      1.06718e+9 
           3330       1.0474e+9 
           3350      1.02607e+9 
           3370      1.00922e+9 
           3390      9.90791e+8 
           3410      9.72821e+8 
           3430      9.51358e+8 
           3450      9.30769e+8 
           3470       9.1688e+8 
           3490      9.00617e+8 
           3510      8.85827e+8 
           3530      8.71343e+8 
           3550       8.5659e+8 
           3570      8.47434e+8 
           3590      8.25858e+8 
           3610      8.15258e+8 
           3630      7.97894e+8 
           3640      7.97752e+8 
           3650      7.89796e+8 
           3670      7.80092e+8 
           3690      7.67066e+8 
           3710      7.41657e+8 
           3730       7.1209e+8 
           3750      7.11613e+8 
           3770      6.97483e+8 
           3790      7.39212e+8 
           3810      7.79276e+8 
           3830      6.67557e+8 
           3850      8.16084e+8 
           3870      8.44698e+8 
           3890      6.24094e+8 
           3910      8.35118e+8 
           3930       8.4225e+8 
           3950       8.1148e+8 
           3970      5.82105e+8 
           3990      7.72906e+8 
           4010      7.87566e+8 
           4030      7.25744e+8 
           4050      7.75898e+8 
           4070      7.55578e+8 
           4090      6.57133e+8 
           4110      5.60051e+8 
           4130      7.02797e+8 
           4150      7.04504e+8 
           4170      7.02074e+8 
           4190      6.94315e+8 
           4210      6.82887e+8 
           4230      6.71518e+8 
           4250      6.60332e+8 
           4270      6.47487e+8 
           4290      6.35262e+8 
           4310      6.16319e+8 
           4330      5.26568e+8 
           4350       4.7517e+8 
           4370       5.8296e+8 
           4390      5.59931e+8 
           4410      5.77372e+8 
           4430      5.66489e+8 
           4450      5.59924e+8 
           4470      5.12917e+8 
           4490      5.41695e+8 
           4510       5.3529e+8 
           4530      5.26939e+8 
           4550       5.1875e+8 
           4570       5.1072e+8 
           4590      5.02882e+8 
           4610      4.95177e+8 
           4630      4.87605e+8 
           4650      4.80126e+8 
           4670      4.72896e+8 
           4690      4.65703e+8 
           4710      4.51058e+8 
           4730      4.51815e+8 
           4750      4.45012e+8 
           4770       4.3849e+8 
           4790      4.30813e+8 
           4810      4.22988e+8 
           4830      4.11015e+8 
           4850      3.60834e+8 
           4870        3.178e+8 
           4890      3.89379e+8 
           4910      3.91151e+8 
           4930       3.7408e+8 
           4950      3.83656e+8 
           4970      3.78714e+8 
           4990      3.73309e+8 
           5010      3.61854e+8 
           5030      3.62705e+8 
           5050      3.54874e+8 
           5070      3.52651e+8 
           5090      3.47719e+8 
           5110      3.42867e+8 
           5130      3.38094e+8 
           5150      3.33414e+8 
           5170       3.2881e+8 
           5190      3.24294e+8 
           5210      3.19839e+8 
           5230      3.15483e+8 
           5250      3.11184e+8 
           5270      3.06968e+8 
           5290       3.0282e+8 
           5310       2.9874e+8 
           5330      2.94725e+8 
           5350      2.90775e+8 
           5370      2.86902e+8 
           5390      2.83091e+8 
           5410      2.79341e+8 
           5430      2.75652e+8 
           5450      2.72034e+8 
           5470      2.68462e+8 
           5490       2.6496e+8 
           5510      2.61513e+8 
           5530      2.58122e+8 
           5550      2.54785e+8 
           5570      2.51502e+8 
           5590      2.48271e+8 
           5610      2.45091e+8 
           5630      2.41962e+8 
           5650      2.38883e+8 
           5670      2.35854e+8 
           5690      2.32872e+8 
           5710      2.29938e+8 
           5730       2.2705e+8 
           5750      2.24209e+8 
           5770      2.21413e+8 
           5790      2.18661e+8 
           5810      2.15953e+8 
           5830      2.13287e+8 
           5850      2.10654e+8 
           5870      1.99435e+8 
           5890      2.04696e+8 
           5910      2.03022e+8 
           5930      2.00552e+8 
           5950       1.9812e+8 
           5970      1.95727e+8 
           5990      1.93362e+8 
           6010      1.91045e+8 
           6030      1.88754e+8 
           6050      1.86499e+8 
           6070       1.8428e+8 
           6090      1.82097e+8 
           6110      1.79948e+8 
           6130      1.77823e+8 
           6150      1.75732e+8 
           6170      1.73675e+8 
           6190       1.7164e+8 
           6210      1.69647e+8 
           6230      1.67676e+8 
           6250      1.65727e+8 
           6270      1.63819e+8 
           6290      1.61931e+8 
           6310      1.60074e+8 
           6330      1.58236e+8 
           6350      1.56428e+8 
           6370      1.54649e+8 
           6390      1.52898e+8 
           6410      1.51166e+8 
           6430      1.49462e+8 
           6450      1.47785e+8 
           6470      1.46126e+8 
           6490      1.44252e+8 
           6510      1.42229e+8 
           6530      1.39424e+8 
           6550      1.29486e+8 
           6570      1.13399e+8 
           6590      1.33097e+8 
           6610      1.34224e+8 
           6630      1.33279e+8 
           6650      1.32172e+8 
           6670      1.28865e+8 
           6690       1.2754e+8 
           6710      1.28036e+8 
           6730      1.26652e+8 
           6750      1.25283e+8 
           6770      1.23944e+8 
           6790       1.2261e+8 
           6810      1.21298e+8 
           6830      1.20007e+8 
           6850      1.18729e+8 
           6870      1.17472e+8 
           6890      1.16228e+8 
           6910      1.15004e+8 
           6930      1.13792e+8 
           6950        1.126e+8 
           6970      1.11419e+8 
           6990      1.10258e+8 
           7010      1.09109e+8 
           7030      1.07978e+8 
           7050      1.06858e+8 
           7070      1.03768e+8 
           7090      1.04667e+8 
           7110      1.03587e+8 
           7130      1.02525e+8 
           7150      1.01481e+8 
           7170      1.00432e+8 
           7190      9.94218e+7 
           7210      9.84144e+7 
           7230       9.7395e+7 
           7250      9.64356e+7 
           7270      9.54638e+7 
           7290      9.36292e+7 
           7310      9.35477e+7 
           7330      9.26312e+7 
           7350      9.17024e+7 
           7370      9.07961e+7 
           7390      8.98915e+7 
           7410      8.90089e+7 
           7430      8.81278e+7 
           7450      8.72751e+7 
           7470      8.64168e+7 
           7490      8.55732e+7 
           7510      8.47039e+7 
           7530       8.3909e+7 
           7550      8.30949e+7 
           7570      8.22883e+7 
           7590      8.14955e+7 
           7610      8.07099e+7 
           7630      7.99315e+7 
           7650      7.91664e+7 
           7670      7.84083e+7 
           7690      7.76634e+7 
           7710      7.69187e+7 
           7730      7.61871e+7 
           7750      7.54682e+7 
           7770      7.47495e+7 
           7790      7.40495e+7 
           7810      7.33125e+7 
           7830       7.2662e+7 
           7850      7.20599e+7 
           7870      7.13839e+7 
           7890      7.06896e+7 
           7910      7.00616e+7 
           7930      6.94151e+7 
           7950      6.87683e+7 
           7970      6.80499e+7 
           7990      6.74382e+7 
           8010      6.67613e+7 
           8030      6.61254e+7 
           8050      6.55123e+7 
           8070      6.49161e+7 
           8090      6.42675e+7 
           8110      6.37619e+7 
           8130      6.32035e+7 
           8150      6.25987e+7 
           8170      6.20781e+7 
           8190      6.14552e+7 
           8210      6.08655e+7 
           8230      6.04699e+7 
           8250      5.99446e+7 
           8270      5.91593e+7 
           8290      5.88687e+7 
           8310      5.83784e+7 
           8330      5.78269e+7 
           8350      5.70585e+7 
           8370      5.67431e+7 
           8390      5.63338e+7 
           8410      5.58371e+7 
           8430      5.53127e+7 
           8450      5.44656e+7 
           8470      5.43504e+7 
           8490      5.37497e+7 
           8510      5.33517e+7 
           8530      5.27808e+7 
           8550      5.21786e+7 
           8570       5.2161e+7 
           8590      5.05751e+7 
