# Kurucz ODFNEW /NOVER (2003)
# teff = 23000 K (value for the effective temperature for the model. Temperatures are given in K)
# logg = 3.5 log(cm/s2) (value for Log(G) for the model.)
# meta = -2.5  (value for the Metallicity for the model.)
# lh = 1.25  (l/Hp where l is the  mixing length of the convective element and Hp is the pressure scale height)
# vtur = 2 km/s (Microturbulence velocity)
# alpha = 0  (Alpha)
#
# column 1: WAVELENGTH (ANGSTROM), Wavelength in Angstrom
# column 2: FLUX (ERG/CM2/S/A), Flux in erg/cm2/s/A
          147.2     5.54962e-16 
            151     3.11019e-15 
          155.2     1.88904e-14 
          158.8     8.19746e-14 
            162     2.85576e-13 
            166     1.26713e-12 
          170.3     5.79823e-12 
          173.4     1.65313e-11 
          176.8     4.99237e-11 
          180.2     1.44348e-10 
          181.7     2.27567e-10 
          186.1     8.27695e-10 
            191      3.24022e-9 
          193.9      7.02412e-9 
          198.4      2.22654e-8 
          201.8      5.13623e-8 
            205      1.09841e-7 
          210.5      3.83274e-7 
          216.2      1.30414e-6 
          219.8      2.73049e-6 
            223      5.15614e-6 
          226.8      1.07024e-5 
            230      3.63939e-5 
            234      8.10894e-5 
            240     0.000217829 
          246.5     0.000601523 
          252.4      0.00145214 
          256.8      0.00264857 
            260      0.00420878 
            264      0.00718259 
          268.5       0.0128353 
          273.5       0.0238959 
          278.5       0.0435145 
            284       0.0819775 
            290        0.158889 
            296        0.299136 
            301        0.496271 
            308        0.966009 
            318         2.46161 
            328         5.80971 
            338         12.9895 
            348         27.6441 
            357         52.4558 
            366         96.2916 
            375         171.103 
            385          313.38 
            395         554.935 
            405         953.003 
            414         1513.26 
            422         2240.48 
            430         3263.02 
            441         5344.85 
            451         8175.58 
            460         11774.4 
            470         17342.5 
            480         25079.3 
            490         35666.1 
            500         49910.6 
            506          317674 
            512          904674 
            520      1.11152e+6 
            530      1.53347e+6 
            540      1.66247e+6 
            550      2.31605e+6 
            560         2.76e+6 
            570      3.32296e+6 
            580      3.35305e+6 
            590      4.36762e+6 
            600      5.38263e+6 
            610      6.29728e+6 
            620      7.24891e+6 
            630      8.36028e+6 
            640      9.43571e+6 
            650      1.08329e+7 
            658      1.20459e+7 
            665      1.31064e+7 
            675      1.45483e+7 
            685      1.62309e+7 
            695      1.85196e+7 
            705      2.04909e+7 
            716      2.29643e+7 
            726      2.53101e+7 
            735      2.77917e+7 
            745      3.06291e+7 
            755      3.35764e+7 
            765      3.66349e+7 
            775      3.99971e+7 
            785      4.34872e+7 
            795      4.70518e+7 
            805      5.08821e+7 
            815      5.47678e+7 
            825      5.90701e+7 
            835      6.26347e+7 
            845       6.7772e+7 
            855      7.22358e+7 
            865      7.73926e+7 
            875      8.26455e+7 
            885      8.79552e+7 
            895      9.33329e+7 
            905      9.80065e+7 
            915      1.85911e+8 
            925      2.19501e+9 
            935       6.1916e+9 
            945     1.41989e+10 
            955     1.70337e+10 
            965     2.08575e+10 
            975     1.00699e+10 
            985     2.13482e+10 
            995     2.04742e+10 
           1005     2.11236e+10 
           1015     1.97908e+10 
           1025      9.28606e+9 
           1035     1.83563e+10 
           1045     2.05917e+10 
           1055     2.01016e+10 
           1065     1.87965e+10 
           1075     1.91999e+10 
           1085     1.80376e+10 
           1095     1.88015e+10 
           1105      1.8124e+10 
           1115     1.78825e+10 
           1125     1.69974e+10 
           1135     1.73245e+10 
           1145     1.67272e+10 
           1155     1.68345e+10 
           1165      1.6577e+10 
           1175     1.47949e+10 
           1185      1.5889e+10 
           1195     1.51095e+10 
           1205     1.37327e+10 
           1215      6.25745e+9 
           1225     1.36676e+10 
           1235     1.44408e+10 
           1245     1.41767e+10 
           1255     1.40395e+10 
           1265     1.37103e+10 
           1275     1.36333e+10 
           1285      1.3384e+10 
           1295     1.25954e+10 
           1305     1.26084e+10 
           1315     1.26849e+10 
           1325     1.23081e+10 
           1335     1.19018e+10 
           1345     1.19862e+10 
           1355     1.18408e+10 
           1365     1.15925e+10 
           1375     1.13908e+10 
           1385     1.12122e+10 
           1395     1.07665e+10 
           1405     1.06639e+10 
           1415      1.0618e+10 
           1425     1.04545e+10 
           1435     1.03018e+10 
           1442     1.02007e+10 
           1447     1.01073e+10 
           1455      9.96622e+9 
           1465      9.78762e+9 
           1475      9.62713e+9 
           1485      9.46425e+9 
           1495      9.30553e+9 
           1505      9.10411e+9 
           1512      8.99249e+9 
           1517       8.9374e+9 
           1525      8.81213e+9 
           1535      8.54755e+9 
           1545      8.43963e+9 
           1555      8.25867e+9 
           1565      8.24129e+9 
           1575      8.13956e+9 
           1585      8.01288e+9 
           1595      7.89317e+9 
           1605      7.68515e+9 
           1615       7.5608e+9 
           1625      7.50071e+9 
           1635      7.39937e+9 
           1645      7.18494e+9 
           1655      7.17705e+9 
           1665      7.07792e+9 
           1672      6.97053e+9 
           1677      6.96721e+9 
           1685      6.87347e+9 
           1695      6.74999e+9 
           1705      6.63282e+9 
           1715      6.50459e+9 
           1725      6.42217e+9 
           1735      6.33972e+9 
           1745      6.23745e+9 
           1755      6.16449e+9 
           1765      6.00148e+9 
           1775      5.94947e+9 
           1785      5.88678e+9 
           1795      5.80804e+9 
           1805      5.73415e+9 
           1815      5.62986e+9 
           1825      5.55464e+9 
           1835      5.47457e+9 
           1845      5.33338e+9 
           1855      5.19458e+9 
           1865      5.15852e+9 
           1875      5.14908e+9 
           1885      4.99206e+9 
           1895      4.86734e+9 
           1905      4.89766e+9 
           1915      4.75983e+9 
           1925      4.68835e+9 
           1935        4.671e+9 
           1945      4.64291e+9 
           1955      4.49165e+9 
           1967      4.50079e+9 
           1976      4.47648e+9 
           1984      4.38149e+9 
           1995      4.26572e+9 
           2005      4.28185e+9 
           2015      4.24641e+9 
           2025      4.20155e+9 
           2035      4.12133e+9 
           2045      4.06536e+9 
           2055      3.96808e+9 
           2065      3.91119e+9 
           2074      3.92601e+9 
           2078      3.84967e+9 
           2085      3.85107e+9 
           2095      3.77474e+9 
           2105      3.76013e+9 
           2115      3.72281e+9 
           2125       3.6846e+9 
           2135      3.63371e+9 
           2145      3.57854e+9 
           2155      3.54054e+9 
           2165      3.49682e+9 
           2175      3.44976e+9 
           2185      3.40792e+9 
           2195       3.3667e+9 
           2205      3.32383e+9 
           2215      3.28183e+9 
           2225      3.23908e+9 
           2235      3.19764e+9 
           2245      3.16055e+9 
           2255      3.11902e+9 
           2265      3.08258e+9 
           2275      3.04441e+9 
           2285      3.00764e+9 
           2295       2.9478e+9 
           2305      2.93363e+9 
           2315      2.89674e+9 
           2325      2.86177e+9 
           2335      2.82528e+9 
           2345      2.79206e+9 
           2355      2.76018e+9 
           2365      2.72658e+9 
           2375      2.69358e+9 
           2385      2.66045e+9 
           2395      2.62934e+9 
           2405      2.59867e+9 
           2415      2.56698e+9 
           2425      2.53855e+9 
           2435      2.50783e+9 
           2445      2.47892e+9 
           2455       2.4507e+9 
           2465      2.42174e+9 
           2475      2.39373e+9 
           2485      2.36577e+9 
           2495      2.31338e+9 
           2505      2.31128e+9 
           2513      2.28418e+9 
           2518      2.27684e+9 
           2525      2.25885e+9 
           2535       2.2328e+9 
           2545      2.20453e+9 
           2555      2.18275e+9 
           2565      2.15809e+9 
           2575      2.13454e+9 
           2585      2.11056e+9 
           2595        2.087e+9 
           2605      2.07955e+9 
           2615      2.05663e+9 
           2625      2.03213e+9 
           2635      2.00458e+9 
           2645       1.9838e+9 
           2655      1.95964e+9 
           2665      1.93599e+9 
           2675      1.91386e+9 
           2685      1.90392e+9 
           2695      1.87021e+9 
           2705      1.86263e+9 
           2715      1.84245e+9 
           2725      1.80921e+9 
           2735      1.80281e+9 
           2745       1.7825e+9 
           2755      1.76377e+9 
           2765      1.73172e+9 
           2775      1.72724e+9 
           2785      1.70878e+9 
           2795      1.68351e+9 
           2805      1.67091e+9 
           2815      1.65544e+9 
           2825      1.62293e+9 
           2835      1.61332e+9 
           2845      1.60405e+9 
           2855      1.58733e+9 
           2865      1.57099e+9 
           2875      1.55475e+9 
           2885      1.53874e+9 
           2895      1.52292e+9 
           2910      1.49947e+9 
           2930      1.46902e+9 
           2950      1.43038e+9 
           2970      1.41058e+9 
           2990      1.38234e+9 
           3010      1.35488e+9 
           3030      1.32831e+9 
           3050      1.30224e+9 
           3070      1.27682e+9 
           3090      1.25174e+9 
           3110      1.22782e+9 
           3130      1.20561e+9 
           3150      1.18237e+9 
           3170      1.15937e+9 
           3190      1.12873e+9 
           3210      1.11588e+9 
           3230      1.09481e+9 
           3250      1.07421e+9 
           3270      1.05554e+9 
           3290      1.03457e+9 
           3310      1.01708e+9 
           3330      9.98517e+8 
           3350       9.7854e+8 
           3370      9.62647e+8 
           3390      9.45323e+8 
           3410      9.28403e+8 
           3430      9.07489e+8 
           3450      8.88135e+8 
           3470      8.75205e+8 
           3490      8.60099e+8 
           3510      8.49408e+8 
           3530      8.35366e+8 
           3550      8.21257e+8 
           3570      8.10603e+8 
           3590      7.92651e+8 
           3610      7.80106e+8 
           3630       7.6573e+8 
           3640      7.63718e+8 
           3650      7.55749e+8 
           3670       7.4594e+8 
           3690      7.24513e+8 
           3710      7.08128e+8 
           3730      6.94706e+8 
           3750      7.58147e+8 
           3770      7.62821e+8 
           3790      7.92086e+8 
           3810      8.22903e+8 
           3830       7.2583e+8 
           3850      8.36315e+8 
           3870      8.30712e+8 
           3890      6.92558e+8 
           3910       8.1501e+8 
           3930      7.99174e+8 
           3950      7.88301e+8 
           3970      6.42889e+8 
           3990      7.59181e+8 
           4010      7.48394e+8 
           4030      7.13125e+8 
           4050      7.30009e+8 
           4070      7.16097e+8 
           4090      6.75938e+8 
           4110       5.9618e+8 
           4130      6.74018e+8 
           4150      6.65677e+8 
           4170      6.58679e+8 
           4190      6.49724e+8 
           4210      6.39229e+8 
           4230      6.28882e+8 
           4250      6.18702e+8 
           4270      6.08271e+8 
           4290      5.99051e+8 
           4310      5.87927e+8 
           4330      5.46742e+8 
           4350      5.00415e+8 
           4370      5.59741e+8 
           4390      5.41516e+8 
           4410      5.44519e+8 
           4430      5.33855e+8 
           4450      5.27868e+8 
           4470       5.0234e+8 
           4490      5.11609e+8 
           4510      5.03933e+8 
           4530      4.96244e+8 
           4550       4.8867e+8 
           4570      4.81246e+8 
           4590      4.74039e+8 
           4610      4.66921e+8 
           4630      4.59943e+8 
           4650      4.52894e+8 
           4670      4.46346e+8 
           4690      4.39618e+8 
           4710      4.28336e+8 
           4730       4.2686e+8 
           4750      4.20551e+8 
           4770      4.14581e+8 
           4790      4.08549e+8 
           4810      4.02602e+8 
           4830      3.95609e+8 
           4850      3.73038e+8 
           4870      3.35161e+8 
           4890      3.78114e+8 
           4910      3.74446e+8 
           4930      3.62254e+8 
           4950      3.64099e+8 
           4970      3.58993e+8 
           4990      3.53958e+8 
           5010      3.45224e+8 
           5030      3.44167e+8 
           5050      3.37487e+8 
           5070      3.34698e+8 
           5090      3.30095e+8 
           5110      3.25568e+8 
           5130      3.21102e+8 
           5150      3.16724e+8 
           5170      3.12432e+8 
           5190       3.0821e+8 
           5210      3.04044e+8 
           5230      2.99961e+8 
           5250      2.95944e+8 
           5270      2.91992e+8 
           5290      2.88106e+8 
           5310      2.84283e+8 
           5330      2.80522e+8 
           5350      2.76823e+8 
           5370      2.73197e+8 
           5390      2.69618e+8 
           5410      2.66096e+8 
           5430      2.62645e+8 
           5450      2.59237e+8 
           5470      2.55896e+8 
           5490      2.52598e+8 
           5510      2.49353e+8 
           5530      2.46173e+8 
           5550      2.43032e+8 
           5570      2.39942e+8 
           5590      2.36902e+8 
           5610      2.33911e+8 
           5630      2.30968e+8 
           5650      2.28073e+8 
           5670      2.25213e+8 
           5690      2.22388e+8 
           5710      2.19654e+8 
           5730       2.1693e+8 
           5750      2.14239e+8 
           5770      2.11613e+8 
           5790      2.09019e+8 
           5810      2.06455e+8 
           5830      2.03933e+8 
           5850      2.01462e+8 
           5870      1.93761e+8 
           5890      1.96498e+8 
           5910      1.94242e+8 
           5930      1.91906e+8 
           5950      1.89607e+8 
           5970      1.87345e+8 
           5990      1.85109e+8 
           6010      1.82909e+8 
           6030      1.80745e+8 
           6050      1.78615e+8 
           6070       1.7652e+8 
           6090      1.74448e+8 
           6110       1.7241e+8 
           6130      1.70394e+8 
           6150      1.68421e+8 
           6170       1.6647e+8 
           6190      1.64541e+8 
           6210      1.62652e+8 
           6230      1.60775e+8 
           6250      1.58938e+8 
           6270       1.5712e+8 
           6290      1.55332e+8 
           6310      1.53573e+8 
           6330      1.51834e+8 
           6350      1.50113e+8 
           6370      1.48429e+8 
           6390      1.46763e+8 
           6410      1.45115e+8 
           6430      1.43503e+8 
           6450      1.41899e+8 
           6470      1.40321e+8 
           6490      1.38769e+8 
           6510      1.37242e+8 
           6530      1.35448e+8 
           6550      1.30917e+8 
           6570      1.17309e+8 
           6590      1.30556e+8 
           6610       1.2987e+8 
           6630      1.28488e+8 
           6650      1.27188e+8 
           6670      1.24733e+8 
           6690      1.23416e+8 
           6710      1.23125e+8 
           6730      1.21803e+8 
           6750      1.20504e+8 
           6770      1.19217e+8 
           6790      1.17952e+8 
           6810      1.16708e+8 
           6830      1.15468e+8 
           6850      1.14257e+8 
           6870      1.13058e+8 
           6890      1.11871e+8 
           6910      1.10696e+8 
           6930       1.0954e+8 
           6950      1.08404e+8 
           6970      1.07278e+8 
           6990      1.06164e+8 
           7010      1.05076e+8 
           7030      1.03999e+8 
           7050      1.02925e+8 
           7070      1.00278e+8 
           7090      1.00837e+8 
           7110      9.98087e+7 
           7130      9.87901e+7 
           7150       9.7796e+7 
           7170      9.67822e+7 
           7190      9.58291e+7 
           7210      9.48634e+7 
           7230      9.38708e+7 
           7250      9.29738e+7 
           7270      9.20495e+7 
           7290      9.03967e+7 
           7310      9.02059e+7 
           7330      8.93287e+7 
           7350      8.84457e+7 
           7370      8.75779e+7 
           7390      8.67182e+7 
           7410      8.58665e+7 
           7430      8.50227e+7 
           7450      8.42071e+7 
           7470      8.33922e+7 
           7490      8.25781e+7 
           7510      8.17448e+7 
           7530      8.09922e+7 
           7550      8.02068e+7 
           7570      7.94351e+7 
           7590       7.8677e+7 
           7610      7.79257e+7 
           7630      7.71812e+7 
           7650      7.64435e+7 
           7670      7.57187e+7 
           7690      7.50005e+7 
           7710      7.42887e+7 
           7730      7.35895e+7 
           7750      7.28903e+7 
           7770      7.22098e+7 
           7790      7.15415e+7 
           7810      7.08111e+7 
           7830      7.02102e+7 
           7850      6.96389e+7 
           7870      6.89935e+7 
           7890      6.83113e+7 
           7910      6.77194e+7 
           7930      6.69709e+7 
           7950      6.63184e+7 
           7970      6.56598e+7 
           7990      6.50896e+7 
           8010      6.44655e+7 
           8030      6.38994e+7 
           8050      6.33614e+7 
           8070      6.28336e+7 
           8090      6.21262e+7 
           8110      6.16483e+7 
           8130      6.11858e+7 
           8150      6.05058e+7 
           8170      6.00971e+7 
           8190      5.94782e+7 
           8210      5.88422e+7 
           8230      5.85177e+7 
           8250      5.80073e+7 
           8270      5.71763e+7 
           8290      5.69062e+7 
           8310      5.64199e+7 
           8330      5.59104e+7 
           8350       5.5135e+7 
           8370      5.47911e+7 
           8390      5.43857e+7 
           8410      5.38823e+7 
           8430      5.33248e+7 
           8450      5.25672e+7 
           8470      5.21601e+7 
           8490      5.20166e+7 
           8510      5.10009e+7 
           8530      5.13331e+7 
           8550      4.93375e+7 
           8570      5.12711e+7 
