# Kurucz ODFNEW /NOVER (2003)
# teff = 7500 K (value for the effective temperature for the model. Temperatures are given in K)
# logg = 2 log(cm/s2) (value for Log(G) for the model.)
# meta = -1  (value for the Metallicity for the model.)
# lh = 1.25  (l/Hp where l is the  mixing length of the convective element and Hp is the pressure scale height)
# vtur = 2 km/s (Microturbulence velocity)
# alpha = 0.4  (Alpha)
#
# column 1: WAVELENGTH (ANGSTROM), Wavelength in Angstrom
# column 2: FLUX (ERG/CM2/S/A), Flux in erg/cm2/s/A
            375     5.26738e-23 
            385     5.29518e-23 
            395     3.44869e-22 
            405     2.03729e-21 
            414     9.32812e-21 
            422     3.40293e-20 
            430     1.17958e-19 
            441     6.02826e-19 
            451     2.46651e-18 
            460     8.29196e-18 
            470     3.01042e-17 
            480     1.03157e-16 
            490     3.35134e-16 
            500     1.03418e-15 
            506     2.63983e-15 
            512     5.61881e-15 
            520     1.27763e-14 
            530      3.4599e-14 
            540     8.85973e-14 
            550      2.2138e-13 
            560     5.30713e-13 
            570     1.23049e-12 
            580     2.73286e-12 
            590     6.02442e-12 
            600     1.27628e-11 
            610     2.63245e-11 
            620     5.29058e-11 
            630     1.03774e-10 
            640     1.98969e-10 
            650     3.73234e-10 
            658     6.07986e-10 
            665      9.2158e-10 
            675      1.64285e-9 
            685       2.8743e-9 
            695      4.93942e-9 
            705      8.33462e-9 
            716      1.45722e-8 
            726      2.37999e-8 
            735      3.65464e-8 
            745      5.80639e-8 
            755      9.09993e-8 
            765      1.40733e-7 
            775       2.1492e-7 
            785      3.24266e-7 
            795      4.81694e-7 
            805      7.11921e-7 
            815      1.03917e-6 
            825          1.5e-6 
            835      2.14358e-6 
            845      3.03415e-6 
            855      4.25442e-6 
            865      5.91257e-6 
            875      8.13859e-6 
            885      1.11303e-5 
            895      1.50856e-5 
            905      2.02706e-5 
            915       0.0433226 
            925        0.160863 
            935        0.210768 
            945        0.288276 
            955         0.40772 
            965        0.525878 
            975        0.594603 
            985        0.855133 
            995         1.04218 
           1005         1.38782 
           1015         1.66025 
           1025         1.83333 
           1035         2.69813 
           1045         3.39476 
           1055         4.20282 
           1065         5.04266 
           1075         6.27054 
           1085          7.6826 
           1095         9.08939 
           1105         29.2834 
           1115         91.0957 
           1125         124.691 
           1135          163.03 
           1145         189.307 
           1155         186.735 
           1165         215.472 
           1175         206.709 
           1185         286.499 
           1195         66.1798 
           1205         43.7253 
           1215         11.4408 
           1225         51.0206 
           1235         140.298 
           1245         331.176 
           1255         627.059 
           1265         797.306 
           1275         1287.59 
           1285         1954.92 
           1295          2615.5 
           1305         2472.93 
           1315         3916.04 
           1325         4965.48 
           1335         5850.83 
           1345          7312.7 
           1355         8032.89 
           1365         9218.95 
           1375         10518.8 
           1385         12068.3 
           1395         14003.1 
           1405         15840.2 
           1415           17226 
           1425         19428.1 
           1435         20109.6 
           1442         23357.1 
           1447         24908.9 
           1455         28027.5 
           1465           29168 
           1475         32176.4 
           1485         35772.8 
           1495         40524.5 
           1505         44726.4 
           1512         46086.3 
           1517         49819.9 
           1525         54080.6 
           1535          236728 
           1545          647283 
           1555          625710 
           1565          527327 
           1575          783445 
           1585          845946 
           1595          962827 
           1605          921194 
           1615      1.11427e+6 
           1625      1.28839e+6 
           1635      1.74298e+6 
           1645      2.58139e+6 
           1655      1.62959e+6 
           1665      2.93627e+6 
           1672      1.52668e+6 
           1677      3.51957e+6 
           1685      4.61275e+6 
           1695      4.77628e+6 
           1705      5.00513e+6 
           1715      6.05398e+6 
           1725      6.14313e+6 
           1735      7.08486e+6 
           1745      6.71773e+6 
           1755      7.87566e+6 
           1765      6.26499e+6 
           1775      7.51121e+6 
           1785      7.39832e+6 
           1795      8.92463e+6 
           1805      7.49984e+6 
           1815      8.24345e+6 
           1825      7.06444e+6 
           1835      7.28739e+6 
           1845      6.60257e+6 
           1855      7.24484e+6 
           1865      7.67296e+6 
           1875      7.71628e+6 
           1885      7.95662e+6 
           1895      8.31652e+6 
           1905       7.5852e+6 
           1915      8.43167e+6 
           1925      8.67013e+6 
           1935      7.41098e+6 
           1945      9.07501e+6 
           1955       9.1137e+6 
           1967      9.62279e+6 
           1976      9.30435e+6 
           1984      9.09461e+6 
           1995      8.88536e+6 
           2005      8.58619e+6 
           2015      8.41489e+6 
           2025       7.8379e+6 
           2035      8.84497e+6 
           2045      9.52268e+6 
           2055      8.85358e+6 
           2065      8.70346e+6 
           2074      1.00009e+7 
           2078      1.03324e+7 
           2085       9.9858e+6 
           2095      9.60058e+6 
           2105      9.08107e+6 
           2115      9.23795e+6 
           2125      9.41985e+6 
           2135      7.56447e+6 
           2145      9.03049e+6 
           2155      9.08234e+6 
           2165       8.5188e+6 
           2175      8.52666e+6 
           2185      8.89147e+6 
           2195      9.68638e+6 
           2205      9.29809e+6 
           2215      8.31823e+6 
           2225      8.34103e+6 
           2235      9.75681e+6 
           2245      8.69987e+6 
           2255      8.25393e+6 
           2265      8.18781e+6 
           2275      9.05133e+6 
           2285      9.38572e+6 
           2295      8.63462e+6 
           2305      9.03423e+6 
           2315      8.89519e+6 
           2325      8.68085e+6 
           2335      7.65105e+6 
           2345      6.48781e+6 
           2355       8.6248e+6 
           2365      6.79877e+6 
           2375      8.09478e+6 
           2385      5.88597e+6 
           2395      6.99994e+6 
           2405      6.74515e+6 
           2415      7.22877e+6 
           2425      8.77084e+6 
           2435      8.53756e+6 
           2445      9.07915e+6 
           2455      8.89033e+6 
           2465      8.90948e+6 
           2475       8.3321e+6 
           2485      8.72943e+6 
           2495      8.44839e+6 
           2505      9.88918e+6 
           2513      8.44114e+6 
           2518      8.64057e+6 
           2525       7.7643e+6 
           2535      7.40066e+6 
           2545      7.60087e+6 
           2555      8.52139e+6 
           2565      8.33884e+6 
           2575      9.21792e+6 
           2585      9.15125e+6 
           2595      8.81288e+6 
           2605      8.26959e+6 
           2615      7.96571e+6 
           2625      9.26867e+6 
           2635      9.63903e+6 
           2645      1.15657e+7 
           2655      1.16022e+7 
           2665      1.03234e+7 
           2675      1.09118e+7 
           2685      1.09974e+7 
           2695      1.02847e+7 
           2705      1.06037e+7 
           2715      9.81736e+6 
           2725      9.98947e+6 
           2735      1.08689e+7 
           2745      8.37251e+6 
           2755      9.04346e+6 
           2765      9.54928e+6 
           2775      1.05906e+7 
           2785      9.45439e+6 
           2795      4.18722e+6 
           2805      5.31576e+6 
           2815      1.06816e+7 
           2825      1.14672e+7 
           2835      1.12097e+7 
           2845      1.08294e+7 
           2855      1.00734e+7 
           2865      1.12451e+7 
           2875      1.09952e+7 
           2885      1.12925e+7 
           2895      1.08726e+7 
           2910      1.22938e+7 
           2930      1.18887e+7 
           2950      1.18605e+7 
           2970      1.22732e+7 
           2990      1.24172e+7 
           3010      1.26486e+7 
           3030      1.26405e+7 
           3050      1.26122e+7 
           3070      1.25627e+7 
           3090      1.29131e+7 
           3110      1.26023e+7 
           3130      1.26437e+7 
           3150      1.30121e+7 
           3170      1.30614e+7 
           3190      1.23891e+7 
           3210      1.28384e+7 
           3230      1.24557e+7 
           3250      1.28939e+7 
           3270      1.30597e+7 
           3290      1.33274e+7 
           3310      1.35076e+7 
           3330      1.32089e+7 
           3350      1.30356e+7 
           3370       1.3076e+7 
           3390       1.3169e+7 
           3410      1.34971e+7 
           3430      1.36898e+7 
           3450      1.35752e+7 
           3470      1.34289e+7 
           3490      1.34183e+7 
           3510      1.37196e+7 
           3530      1.38319e+7 
           3550      1.40337e+7 
           3570      1.36392e+7 
           3590       1.3637e+7 
           3610      1.37477e+7 
           3630      1.38611e+7 
           3640       1.3696e+7 
           3650       1.4095e+7 
           3670      1.39046e+7 
           3690      1.44142e+7 
           3710      1.81192e+7 
           3730      2.25993e+7 
           3750      3.18904e+7 
           3770      3.41532e+7 
           3790      4.22755e+7 
           3810      4.87025e+7 
           3830      3.81894e+7 
           3850      5.23418e+7 
           3870      5.71173e+7 
           3890      3.46229e+7 
           3910       5.5723e+7 
           3930      4.58444e+7 
           3950      5.50927e+7 
           3970      3.08776e+7 
           3990      5.44361e+7 
           4010      5.75024e+7 
           4030      5.67614e+7 
           4050      5.62619e+7 
           4070      5.45505e+7 
           4090      4.66517e+7 
           4110      3.59644e+7 
           4130       5.2469e+7 
           4150      5.35547e+7 
           4170      5.23425e+7 
           4190      5.19448e+7 
           4210       5.1699e+7 
           4230      5.05607e+7 
           4250      5.03112e+7 
           4270       4.9403e+7 
           4290      4.85996e+7 
           4310      4.57808e+7 
           4330      3.85753e+7 
           4350      3.30769e+7 
           4370      4.63216e+7 
           4390      4.58966e+7 
           4410      4.50589e+7 
           4430      4.53498e+7 
           4450      4.49926e+7 
           4470      4.46304e+7 
           4490      4.41552e+7 
           4510      4.42127e+7 
           4530      4.30246e+7 
           4550      4.20831e+7 
           4570      4.28195e+7 
           4590      4.18213e+7 
           4610      4.24182e+7 
           4630      4.13232e+7 
           4650      4.14076e+7 
           4670      4.10139e+7 
           4690       4.0271e+7 
           4710       3.8994e+7 
           4730      3.97325e+7 
           4750      3.95121e+7 
           4770      3.88934e+7 
           4790      3.84002e+7 
           4810      3.78617e+7 
           4830      3.69335e+7 
           4850       3.1016e+7 
           4870      2.50958e+7 
           4890      3.52529e+7 
           4910      3.59023e+7 
           4930      3.53047e+7 
           4950      3.53997e+7 
           4970      3.53579e+7 
           4990      3.46332e+7 
           5010      3.37029e+7 
           5030      3.40206e+7 
           5050      3.35892e+7 
           5070      3.35284e+7 
           5090      3.31985e+7 
           5110       3.2919e+7 
           5130      3.23665e+7 
           5150      3.19622e+7 
           5170      3.10769e+7 
           5190      3.07889e+7 
           5210      3.09235e+7 
           5230      3.04271e+7 
           5250      3.07042e+7 
           5270      2.95194e+7 
           5290      3.00653e+7 
           5310      2.95546e+7 
           5330      2.89765e+7 
           5350      2.93105e+7 
           5370      2.88809e+7 
           5390      2.85879e+7 
           5410       2.8207e+7 
           5430      2.80072e+7 
           5450      2.79149e+7 
           5470      2.77049e+7 
           5490      2.74609e+7 
           5510      2.72334e+7 
           5530      2.68606e+7 
           5550      2.68276e+7 
           5570      2.65065e+7 
           5590      2.61689e+7 
           5610      2.60198e+7 
           5630      2.58828e+7 
           5650      2.55901e+7 
           5670      2.53279e+7 
           5690      2.51757e+7 
           5710      2.49396e+7 
           5730      2.47945e+7 
           5750      2.45289e+7 
           5770      2.43421e+7 
           5790      2.41158e+7 
           5810      2.39177e+7 
           5830      2.37162e+7 
           5850      2.34839e+7 
           5870      2.32946e+7 
           5890      2.28619e+7 
           5910      2.28994e+7 
           5930      2.27035e+7 
           5950      2.24947e+7 
           5970      2.23231e+7 
           5990      2.20987e+7 
           6010      2.19091e+7 
           6030      2.17339e+7 
           6050      2.15524e+7 
           6070      2.14014e+7 
           6090      2.12052e+7 
           6110      2.10071e+7 
           6130      2.07609e+7 
           6150      2.04638e+7 
           6170       2.0363e+7 
           6190      2.03407e+7 
           6210      2.01738e+7 
           6230      1.99678e+7 
           6250      1.96454e+7 
           6270       1.9686e+7 
           6290      1.95277e+7 
           6310      1.93228e+7 
           6330      1.91867e+7 
           6350      1.89325e+7 
           6370      1.88036e+7 
           6390      1.87285e+7 
           6410      1.85219e+7 
           6430      1.84114e+7 
           6450      1.81172e+7 
           6470      1.80846e+7 
           6490      1.78222e+7 
           6510      1.77119e+7 
           6530      1.74154e+7 
           6550      1.58042e+7 
           6570      1.26359e+7 
           6590      1.67224e+7 
           6610      1.70007e+7 
           6630      1.69694e+7 
           6650      1.68726e+7 
           6670      1.67513e+7 
           6690      1.66328e+7 
           6710      1.64986e+7 
           6730      1.63658e+7 
           6750       1.6211e+7 
           6770      1.61302e+7 
           6790      1.59985e+7 
           6810      1.58787e+7 
           6830      1.57431e+7 
           6850      1.56288e+7 
           6870      1.55188e+7 
           6890       1.5401e+7 
           6910      1.52828e+7 
           6930      1.51626e+7 
           6950      1.50512e+7 
           6970       1.4934e+7 
           6990      1.48255e+7 
           7010      1.46682e+7 
           7030      1.45925e+7 
           7050      1.44908e+7 
           7070      1.43834e+7 
           7090      1.42783e+7 
           7110      1.40878e+7 
           7130      1.40474e+7 
           7150      1.39343e+7 
           7170      1.38398e+7 
           7190      1.37316e+7 
           7210       1.3628e+7 
           7230      1.35311e+7 
           7250      1.34293e+7 
           7270      1.33484e+7 
           7290       1.3227e+7 
           7310      1.31364e+7 
           7330      1.30389e+7 
           7350       1.2959e+7 
           7370      1.28742e+7 
           7390      1.27694e+7 
           7410      1.26505e+7 
           7430      1.25606e+7 
           7450      1.24797e+7 
           7470      1.23718e+7 
           7490      1.22944e+7 
           7510      1.22196e+7 
           7530      1.21422e+7 
           7550      1.20654e+7 
           7570      1.19675e+7 
           7590      1.18921e+7 
           7610      1.18063e+7 
           7630      1.17244e+7 
           7650      1.16303e+7 
           7670      1.15397e+7 
           7690      1.14619e+7 
           7710      1.13765e+7 
           7730      1.13133e+7 
           7750      1.12293e+7 
           7770        1.096e+7 
           7790      1.10826e+7 
           7810      1.10018e+7 
           7830      1.09174e+7 
           7850      1.08325e+7 
           7870      1.07447e+7 
           7890      1.06564e+7 
           7910      1.06122e+7 
           7930       1.0521e+7 
           7950      1.04467e+7 
           7970      1.04091e+7 
           7990       1.0288e+7 
           8010       1.0262e+7 
           8030      1.01876e+7 
           8050      1.01213e+7 
           8070      1.00521e+7 
           8090      9.98348e+6 
           8110      9.91998e+6 
           8130      9.85527e+6 
           8150      9.78824e+6 
           8170      9.72175e+6 
           8190      9.60076e+6 
           8210       9.5736e+6 
           8230      9.50599e+6 
           8250      9.43117e+6 
           8270      9.43464e+6 
           8290      9.36779e+6 
           8310       9.2862e+6 
           8330      9.15479e+6 
           8350      9.14827e+6 
           8370      8.99813e+6 
           8390      8.93869e+6 
           8410      8.85255e+6 
           8430      8.93942e+6 
           8450      8.80271e+6 
           8470       8.4897e+6 
           8490      9.11456e+6 
           8510      8.20668e+6 
           8530      9.20428e+6 
           8550      7.73377e+6 
           8570      9.35298e+6 
           8590      8.71315e+6 
           8610      8.42421e+6 
           8630      9.50158e+6 
           8650      9.23666e+6 
           8670      7.45952e+6 
           8690      9.31795e+6 
           8710      9.58905e+6 
           8730      9.32371e+6 
           8750      7.50285e+6 
           8770      8.97974e+6 
           8790       9.4075e+6 
           8810      9.34784e+6 
           8830      9.21809e+6 
           8850      8.58292e+6 
           8870      7.29739e+6 
           8890      8.91628e+6 
           8910       9.0329e+6 
           8930       9.0024e+6 
           8950      9.01536e+6 
           8970      8.91808e+6 
           8990      8.68779e+6 
           9010      7.17818e+6 
           9030      7.88656e+6 
           9050      8.60334e+6 
           9070      8.52514e+6 
           9090      8.41882e+6 
           9110      8.50945e+6 
           9130      8.51966e+6 
           9150      8.46131e+6 
           9170      8.38636e+6 
           9190      8.27273e+6 
           9210       7.8953e+6 
           9230      6.37177e+6 
           9250      7.64532e+6 
           9270      7.91004e+6 
           9290       8.0659e+6 
           9310       8.0365e+6 
           9330      7.99083e+6 
           9350       7.9472e+6 
           9370      7.89872e+6 
           9390      7.83435e+6 
           9410       7.6492e+6 
           9430       7.7049e+6 
           9450      7.67992e+6 
           9470      7.63071e+6 
