# Kurucz ODFNEW /NOVER (2003)
# teff = 28000 K (value for the effective temperature for the model. Temperatures are given in K)
# logg = 4 log(cm/s2) (value for Log(G) for the model.)
# meta = 0.5  (value for the Metallicity for the model.)
# lh = 1.25  (l/Hp where l is the  mixing length of the convective element and Hp is the pressure scale height)
# vtur = 2 km/s (Microturbulence velocity)
# alpha = 0  (Alpha)
#
# column 1: WAVELENGTH (ANGSTROM), Wavelength in Angstrom
# column 2: FLUX (ERG/CM2/S/A), Flux in erg/cm2/s/A
          147.2     4.89415e-11 
            151     1.71338e-10 
          155.2     6.39252e-10 
          158.8      1.87502e-9 
            162      4.70094e-9 
            166      1.41472e-8 
          170.3      4.35961e-8 
          173.4      9.55983e-8 
          176.8      2.18747e-7 
          180.2      4.86144e-7 
          181.7      6.84323e-7 
          186.1      1.81647e-6 
            191      5.13156e-6 
          193.9      9.26202e-6 
          198.4      2.24176e-5 
          201.8      4.26377e-5 
            205      7.66421e-5 
          210.5     0.000202188 
          216.2     0.000525081 
          219.8      0.00093691 
            223      0.00154399 
          226.8       0.0028378 
            230         0.15285 
            234        0.329098 
            240        0.674123 
          246.5         1.45199 
          252.4         2.83089 
          256.8         4.41253 
            260         7.16733 
            264         10.9998 
          268.5            17.6 
          273.5         28.2357 
          278.5         43.7321 
            284         85.4339 
            290         140.693 
            296         224.835 
            301          325.83 
            308         619.437 
            318         1373.71 
            328         2533.95 
            338         4936.82 
            348         8899.04 
            357         48024.9 
            366          119223 
            375          163020 
            385          268139 
            395          738416 
            405      1.00849e+6 
            414      1.59118e+6 
            422      2.10723e+6 
            430      2.90544e+6 
            441      4.01716e+6 
            451      4.80726e+6 
            460      5.76328e+6 
            470      7.83253e+6 
            480      1.01833e+7 
            490       1.2837e+7 
            500      1.56282e+7 
            506      3.96364e+7 
            512      3.81179e+8 
            520      3.80143e+8 
            530      3.67341e+8 
            540      3.63926e+8 
            550      5.40597e+8 
            560      6.71193e+8 
            570      7.25537e+8 
            580      6.61079e+8 
            590      7.92495e+8 
            600      7.17513e+8 
            610      8.99109e+8 
            620      1.01611e+9 
            630      9.90564e+8 
            640      8.33505e+8 
            650      5.97845e+8 
            658      7.98037e+8 
            665       1.0509e+9 
            675      1.17899e+9 
            685      1.01692e+9 
            695      1.54428e+9 
            705      1.31197e+9 
            716      1.72089e+9 
            726      1.66223e+9 
            735      1.72142e+9 
            745      1.85777e+9 
            755      1.90703e+9 
            765      2.00272e+9 
            775      2.13634e+9 
            785      2.26456e+9 
            795      2.27453e+9 
            805      2.23872e+9 
            815      2.22615e+9 
            825      2.45319e+9 
            835      1.82436e+9 
            845      2.34915e+9 
            855      2.30673e+9 
            865       2.4396e+9 
            875      2.54279e+9 
            885      2.70369e+9 
            895      2.77562e+9 
            905      2.66683e+9 
            915       3.4509e+9 
            925     1.77748e+10 
            935     3.17798e+10 
            945      4.3966e+10 
            955     4.80234e+10 
            965     5.11112e+10 
            975     1.04155e+10 
            985     3.40535e+10 
            995     3.61107e+10 
           1005     4.24537e+10 
           1015     4.59875e+10 
           1025     3.43215e+10 
           1035     3.99017e+10 
           1045      5.4521e+10 
           1055     4.95728e+10 
           1065     3.91369e+10 
           1075     4.39378e+10 
           1085      3.9909e+10 
           1095     4.37079e+10 
           1105     4.05817e+10 
           1115     3.94146e+10 
           1125     2.80321e+10 
           1135     3.88654e+10 
           1145     3.69165e+10 
           1155     3.59185e+10 
           1165     3.45773e+10 
           1175     1.71154e+10 
           1185     3.11718e+10 
           1195     3.06048e+10 
           1205     2.48362e+10 
           1215     2.21236e+10 
           1225      2.8981e+10 
           1235     3.21568e+10 
           1245     3.01233e+10 
           1255     3.00685e+10 
           1265     3.14266e+10 
           1275     3.29262e+10 
           1285     3.31185e+10 
           1295     2.58517e+10 
           1305     2.76515e+10 
           1315     3.27466e+10 
           1325     3.07392e+10 
           1335     2.96632e+10 
           1345     2.98193e+10 
           1355     2.92577e+10 
           1365      2.7209e+10 
           1375     2.58562e+10 
           1385     2.42646e+10 
           1395     1.49327e+10 
           1405     1.69997e+10 
           1415     2.18749e+10 
           1425     2.06544e+10 
           1435     2.22244e+10 
           1442     2.24241e+10 
           1447      2.2165e+10 
           1455     2.09735e+10 
           1465     1.92031e+10 
           1475     2.02007e+10 
           1485     2.00424e+10 
           1495     1.93908e+10 
           1505     1.74491e+10 
           1512     1.59335e+10 
           1517      1.6444e+10 
           1525     1.65635e+10 
           1535      1.3438e+10 
           1545     1.19441e+10 
           1555      1.1864e+10 
           1565     1.36125e+10 
           1575     1.47853e+10 
           1585     1.50678e+10 
           1595     1.47751e+10 
           1605      1.4895e+10 
           1615     1.41965e+10 
           1625     1.42909e+10 
           1635     1.51863e+10 
           1645     1.54477e+10 
           1655     1.51543e+10 
           1665      1.5299e+10 
           1672     1.39907e+10 
           1677     1.68155e+10 
           1685      1.5742e+10 
           1695     1.47911e+10 
           1705     1.46699e+10 
           1715     1.36002e+10 
           1725     1.31973e+10 
           1735     1.38341e+10 
           1745     1.36661e+10 
           1755     1.36514e+10 
           1765     1.36592e+10 
           1775     1.25827e+10 
           1785     1.30072e+10 
           1795      1.3127e+10 
           1805     1.32213e+10 
           1815     1.19004e+10 
           1825     1.22352e+10 
           1835      1.1997e+10 
           1845     1.08868e+10 
           1855     1.13828e+10 
           1865     1.14799e+10 
           1875     1.16631e+10 
           1885     1.04241e+10 
           1895      9.79143e+9 
           1905     1.06104e+10 
           1915      9.98277e+9 
           1925      9.26527e+9 
           1935      1.0123e+10 
           1945     1.04095e+10 
           1955      9.07821e+9 
           1967      1.0028e+10 
           1976      1.0511e+10 
           1984      9.75643e+9 
           1995      9.60465e+9 
           2005     1.00442e+10 
           2015      9.95309e+9 
           2025     1.01665e+10 
           2035      9.22168e+9 
           2045      9.38125e+9 
           2055      8.40941e+9 
           2065      8.27807e+9 
           2074      8.82646e+9 
           2078      8.04238e+9 
           2085      8.66398e+9 
           2095      8.40413e+9 
           2105      8.82091e+9 
           2115      8.90108e+9 
           2125      8.91261e+9 
           2135      8.74915e+9 
           2145       8.3034e+9 
           2155      8.66538e+9 
           2165      8.50836e+9 
           2175      8.48764e+9 
           2185      8.17813e+9 
           2195      8.35165e+9 
           2205      8.33264e+9 
           2215      8.14085e+9 
           2225      7.95522e+9 
           2235      7.77936e+9 
           2245      7.82083e+9 
           2255      7.56641e+9 
           2265      7.64367e+9 
           2275      7.53222e+9 
           2285       7.4383e+9 
           2295      6.26954e+9 
           2305      7.10911e+9 
           2315      6.94737e+9 
           2325      6.91618e+9 
           2335      6.74761e+9 
           2345      6.81659e+9 
           2355       6.6934e+9 
           2365      6.62271e+9 
           2375       6.4254e+9 
           2385      6.33421e+9 
           2395      6.26422e+9 
           2405      6.20324e+9 
           2415      6.13292e+9 
           2425      6.11057e+9 
           2435      5.93824e+9 
           2445      5.93992e+9 
           2455      5.91895e+9 
           2465      5.81274e+9 
           2475      5.70006e+9 
           2485       5.4568e+9 
           2495      3.87888e+9 
           2505      5.14697e+9 
           2513      5.08174e+9 
           2518      5.26509e+9 
           2525      5.32138e+9 
           2535      5.29906e+9 
           2545      5.08056e+9 
           2555      5.11584e+9 
           2565      5.03766e+9 
           2575      5.03128e+9 
           2585        4.963e+9 
           2595      4.91279e+9 
           2605      4.86704e+9 
           2615      4.76235e+9 
           2625      4.74472e+9 
           2635      4.70232e+9 
           2645      4.60932e+9 
           2655      4.58647e+9 
           2665      4.35511e+9 
           2675      4.35225e+9 
           2685      4.38245e+9 
           2695      4.19614e+9 
           2705      4.06637e+9 
           2715      4.08931e+9 
           2725      4.12627e+9 
           2735      4.06533e+9 
           2745      4.01192e+9 
           2755      3.98483e+9 
           2765      3.92403e+9 
           2775      3.96532e+9 
           2785      3.88332e+9 
           2795      3.71997e+9 
           2805      3.75996e+9 
           2815      3.78126e+9 
           2825      3.73306e+9 
           2835      3.58265e+9 
           2845      3.62705e+9 
           2855      3.54737e+9 
           2865      3.53817e+9 
           2875      3.49632e+9 
           2885      3.45031e+9 
           2895      3.39739e+9 
           2910      3.30849e+9 
           2930      3.29779e+9 
           2950      3.18985e+9 
           2970      3.13243e+9 
           2990      3.04616e+9 
           3010      2.91118e+9 
           3030      2.89466e+9 
           3050      2.86351e+9 
           3070       2.8304e+9 
           3090      2.69342e+9 
           3110      2.70536e+9 
           3130      2.62083e+9 
           3150      2.58553e+9 
           3170      2.50794e+9 
           3190      2.47023e+9 
           3210      2.42543e+9 
           3230      2.35584e+9 
           3250        2.331e+9 
           3270      2.26357e+9 
           3290      2.22301e+9 
           3310      2.17677e+9 
           3330       2.1208e+9 
           3350       2.0835e+9 
           3370      2.03669e+9 
           3390      2.01518e+9 
           3410      1.97418e+9 
           3430      1.93823e+9 
           3450      1.89021e+9 
           3470      1.85497e+9 
           3490        1.815e+9 
           3510      1.78126e+9 
           3530      1.76161e+9 
           3550      1.72358e+9 
           3570      1.69327e+9 
           3590      1.64195e+9 
           3610      1.61433e+9 
           3630       1.5901e+9 
           3640      1.58413e+9 
           3650      1.55106e+9 
           3670      1.53247e+9 
           3690      1.50052e+9 
           3710       1.4376e+9 
           3730      1.39025e+9 
           3750      1.42663e+9 
           3770      1.40196e+9 
           3790       1.4554e+9 
           3810      1.49448e+9 
           3830      1.33226e+9 
           3850      1.48671e+9 
           3870      1.43836e+9 
           3890      1.25996e+9 
           3910      1.45395e+9 
           3930      1.39877e+9 
           3950      1.37054e+9 
           3970      1.16325e+9 
           3990      1.33951e+9 
           4010      1.32428e+9 
           4030      1.26511e+9 
           4050      1.27267e+9 
           4070      1.20261e+9 
           4090      1.13804e+9 
           4110      1.04465e+9 
           4130      1.15774e+9 
           4150      1.14781e+9 
           4170      1.14651e+9 
           4190      1.13248e+9 
           4210      1.12034e+9 
           4230       1.0952e+9 
           4250      1.05828e+9 
           4270      1.03174e+9 
           4290      1.01062e+9 
           4310       9.7301e+8 
           4330      9.15878e+8 
           4350      8.57524e+8 
           4370      9.28996e+8 
           4390      9.35231e+8 
           4410       9.2115e+8 
           4430       9.1767e+8 
           4450      8.99299e+8 
           4470      8.70681e+8 
           4490      8.77125e+8 
           4510       8.6351e+8 
           4530      8.54213e+8 
           4550      8.42043e+8 
           4570      8.29169e+8 
           4590      8.13162e+8 
           4610      7.90451e+8 
           4630      7.76765e+8 
           4650      7.41245e+8 
           4670      7.55414e+8 
           4690      7.49944e+8 
           4710      7.22463e+8 
           4730      7.29046e+8 
           4750      7.16508e+8 
           4770      7.18029e+8 
           4790      7.04575e+8 
           4810      6.89056e+8 
           4830        6.759e+8 
           4850      6.43287e+8 
           4870      5.81592e+8 
           4890      6.47206e+8 
           4910      6.39772e+8 
           4930      6.20564e+8 
           4950      6.17035e+8 
           4970      6.16228e+8 
           4990      6.05518e+8 
           5010      5.77129e+8 
           5030      5.84416e+8 
           5050      5.73621e+8 
           5070       5.7145e+8 
           5090      5.60933e+8 
           5110      5.50881e+8 
           5130      5.37561e+8 
           5150      5.32854e+8 
           5170      5.28303e+8 
           5190      5.22351e+8 
           5210      5.14615e+8 
           5230      5.07064e+8 
           5250      4.99572e+8 
           5270      4.90674e+8 
           5290      4.86432e+8 
           5310      4.79047e+8 
           5330      4.73191e+8 
           5350      4.66159e+8 
           5370      4.60289e+8 
           5390      4.53106e+8 
           5410      4.47226e+8 
           5430      4.41676e+8 
           5450      4.35206e+8 
           5470      4.29297e+8 
           5490      4.23263e+8 
           5510      4.18905e+8 
           5530      4.11606e+8 
           5550      4.08058e+8 
           5570      4.02073e+8 
           5590      3.96898e+8 
           5610      3.91787e+8 
           5630      3.86988e+8 
           5650      3.80205e+8 
           5670       3.7291e+8 
           5690      3.64894e+8 
           5710      3.63325e+8 
           5730      3.59669e+8 
           5750      3.53319e+8 
           5770      3.51576e+8 
           5790      3.46319e+8 
           5810      3.41975e+8 
           5830      3.36175e+8 
           5850      3.33164e+8 
           5870      3.21451e+8 
           5890      3.21737e+8 
           5910      3.19477e+8 
           5930      3.14958e+8 
           5950      3.11035e+8 
           5970      3.10339e+8 
           5990       3.0384e+8 
           6010      3.01862e+8 
           6030        2.969e+8 
           6050      2.93685e+8 
           6070      2.91098e+8 
           6090      2.87737e+8 
           6110       2.8401e+8 
           6130      2.80916e+8 
           6150      2.75476e+8 
           6170      2.72674e+8 
           6190      2.70384e+8 
           6210      2.67678e+8 
           6230      2.64691e+8 
           6250      2.60453e+8 
           6270      2.57769e+8 
           6290      2.55152e+8 
           6310      2.51663e+8 
           6330      2.49323e+8 
           6350      2.45616e+8 
           6370      2.43584e+8 
           6390      2.40502e+8 
           6410      2.37766e+8 
           6430      2.35205e+8 
           6450      2.32336e+8 
           6470      2.28346e+8 
           6490      2.25939e+8 
           6510      2.23584e+8 
           6530      2.20405e+8 
           6550      2.14038e+8 
           6570      1.91005e+8 
           6590       2.1137e+8 
           6610      2.11119e+8 
           6630      2.09238e+8 
           6650      2.06661e+8 
           6670      2.02748e+8 
           6690      2.00561e+8 
           6710      2.00037e+8 
           6730      1.96903e+8 
           6750      1.95738e+8 
           6770      1.93696e+8 
           6790       1.8941e+8 
           6810       1.8899e+8 
           6830      1.86851e+8 
           6850      1.85183e+8 
           6870      1.83085e+8 
           6890      1.80659e+8 
           6910      1.78218e+8 
           6930      1.77332e+8 
           6950      1.75439e+8 
           6970      1.73565e+8 
           6990      1.71602e+8 
           7010      1.69697e+8 
           7030      1.67696e+8 
           7050      1.66048e+8 
           7070      1.61786e+8 
           7090      1.62381e+8 
           7110      1.58809e+8 
           7130      1.57378e+8 
           7150      1.57265e+8 
           7170      1.55839e+8 
           7190       1.5431e+8 
           7210      1.52695e+8 
           7230      1.48557e+8 
           7250      1.49015e+8 
           7270      1.47939e+8 
           7290      1.45271e+8 
           7310      1.44837e+8 
           7330      1.43234e+8 
           7350      1.41891e+8 
           7370      1.40491e+8 
           7390      1.39055e+8 
           7410      1.37633e+8 
           7430      1.36197e+8 
           7450      1.34802e+8 
           7470       1.3242e+8 
           7490      1.31821e+8 
           7510      1.30686e+8 
           7530      1.29182e+8 
           7550      1.28175e+8 
           7570      1.26887e+8 
           7590       1.2552e+8 
           7610      1.23995e+8 
           7630      1.23036e+8 
           7650      1.21833e+8 
           7670      1.20706e+8 
           7690      1.19422e+8 
           7710      1.18201e+8 
           7730      1.16929e+8 
           7750      1.16031e+8 
           7770      1.14617e+8 
           7790      1.13806e+8 
           7810      1.12643e+8 
           7830      1.11608e+8 
           7850      1.10526e+8 
           7870      1.09144e+8 
           7890      1.07859e+8 
           7910      1.07073e+8 
           7930      1.05995e+8 
           7950      1.05152e+8 
           7970      1.04121e+8 
           7990       1.0317e+8 
           8010       1.0208e+8 
           8030      1.01116e+8 
           8050      1.00306e+8 
           8070      9.93931e+7 
           8090      9.83842e+7 
           8110      9.66795e+7 
           8130      9.66718e+7 
           8150      9.56761e+7 
           8170      9.49374e+7 
           8190       9.3278e+7 
           8210      9.24887e+7 
           8230      9.12833e+7 
           8250      9.12509e+7 
           8270      8.92457e+7 
           8290      8.94131e+7 
           8310      8.87541e+7 
           8330      8.79538e+7 
           8350      8.67333e+7 
           8370      8.60988e+7 
           8390      8.56032e+7 
           8410      8.46745e+7 
           8430      8.39976e+7 
           8450      8.26243e+7 
           8470      8.23921e+7 
           8490      8.15601e+7 
           8510      8.04281e+7 
           8530      8.02223e+7 
           8550      7.85281e+7 
           8570      7.94752e+7 
           8590      7.66753e+7 
