# Kurucz ODFNEW /NOVER (2003)
# teff = 8000 K (value for the effective temperature for the model. Temperatures are given in K)
# logg = 2.5 log(cm/s2) (value for Log(G) for the model.)
# meta = -4  (value for the Metallicity for the model.)
# lh = 1.25  (l/Hp where l is the  mixing length of the convective element and Hp is the pressure scale height)
# vtur = 2 km/s (Microturbulence velocity)
# alpha = 0.4  (Alpha)
#
# column 1: WAVELENGTH (ANGSTROM), Wavelength in Angstrom
# column 2: FLUX (ERG/CM2/S/A), Flux in erg/cm2/s/A
          147.2     1.73866e-35 
            151     1.65225e-35 
          155.2     1.56403e-35 
          158.8     1.49392e-35 
            162     1.43549e-35 
            166     1.36714e-35 
          170.3     1.29897e-35 
          173.4     1.25294e-35 
          176.8     1.20522e-35 
          180.2     1.16017e-35 
          181.7     1.14109e-35 
          186.1     1.08777e-35 
            191     1.03267e-35 
          193.9     1.00201e-35 
          198.4     9.57076e-36 
          201.8     9.25097e-36 
            205     8.96441e-36 
          210.5     8.50208e-36 
          216.2     8.05969e-36 
          219.8     7.79784e-36 
            223     7.57565e-36 
          226.8     7.32392e-36 
            230     7.12154e-36 
            234     6.88015e-36 
            240     6.54044e-36 
          246.5     6.20006e-36 
          252.4     5.91358e-36 
          256.8     5.71267e-36 
            260     5.57292e-36 
            264     5.40532e-36 
          268.5     5.22566e-36 
          273.5     5.03634e-36 
          278.5     4.85712e-36 
            284     4.67082e-36 
            290     1.91863e-23 
            296     1.24139e-22 
            301      4.7756e-22 
            308     2.81272e-21 
            318     3.05619e-20 
            328     2.85422e-19 
            338     2.32315e-18 
            348     1.67034e-17 
            357     8.92866e-17 
            366     4.38753e-16 
            375     1.99055e-15 
            385     9.80145e-15 
            395     4.43431e-14 
            405     1.85695e-13 
            414     6.33773e-13 
            422     1.80227e-12 
            430     4.92336e-12 
            441     1.84335e-11 
            451      5.7713e-11 
            460     1.54213e-10 
            470     4.39029e-10 
            480      1.19378e-9 
            490      3.11206e-9 
            500      7.79318e-9 
            506      1.82085e-8 
            512      3.45452e-8 
            520      6.75549e-8 
            530      1.52985e-7 
            540      3.29845e-7 
            550      7.00019e-7 
            560        1.434e-6 
            570       2.8595e-6 
            580      5.50177e-6 
            590      1.05533e-5 
            600      1.95763e-5 
            610      3.55316e-5 
            620      6.31816e-5 
            630     0.000110171 
            640     0.000188659 
            650     0.000317344 
            658     0.000475232 
            665     0.000670859 
            675      0.00108324 
            685      0.00172313 
            695      0.00270186 
            705      0.00417823 
            716      0.00664753 
            726       0.0100108 
            735       0.0143251 
            745       0.0210986 
            755       0.0307312 
            765       0.0442896 
            775        0.063187 
            785       0.0892633 
            795        0.124918 
            805        0.173248 
            815        0.238195 
            825        0.324908 
            835        0.439642 
            845        0.590294 
            855        0.786724 
            865         1.04088 
            875         1.36757 
            885         1.78479 
            895         2.31439 
            905         2.98242 
            915         7.95959 
            925         32.9831 
            935         55.1331 
            945         98.3519 
            955         155.822 
            965         178.569 
            975         124.283 
            985         414.112 
            995         556.937 
           1005         474.817 
           1015         337.074 
           1025         291.788 
           1035         542.151 
           1045         1092.15 
           1055         4334.15 
           1065         74533.8 
           1075          247676 
           1085          484918 
           1095          487256 
           1105          439910 
           1115          287059 
           1125          157699 
           1135         82558.9 
           1145         24337.5 
           1155         5201.25 
           1165         3179.88 
           1175         2592.94 
           1185         7548.94 
           1195         3268.36 
           1205            2391 
           1215         1694.31 
           1225         2829.06 
           1235         4932.33 
           1245         1995.39 
           1255         4744.08 
           1265         7576.38 
           1275           10711 
           1285         30236.9 
           1295         83124.1 
           1305          253000 
           1315          452888 
           1325          797030 
           1335      1.23654e+6 
           1345      1.80873e+6 
           1355      2.30118e+6 
           1365      2.94291e+6 
           1375      3.02639e+6 
           1385      2.92589e+6 
           1395      2.90403e+6 
           1405      4.56115e+6 
           1415       7.0833e+6 
           1425      7.70202e+6 
           1435      8.32977e+6 
           1442      9.13359e+6 
           1447      8.81562e+6 
           1455      9.93134e+6 
           1465      9.55557e+6 
           1475      1.04188e+7 
           1485       1.0733e+7 
           1495      1.12131e+7 
           1505       1.1842e+7 
           1512      1.21787e+7 
           1517      1.15008e+7 
           1525      1.20973e+7 
           1535      1.20464e+7 
           1545       1.1741e+7 
           1555      1.16509e+7 
           1565      1.04473e+7 
           1575      1.05935e+7 
           1585      1.01643e+7 
           1595      1.00842e+7 
           1605      9.90777e+6 
           1615      1.17654e+7 
           1625      1.34813e+7 
           1635      1.53131e+7 
           1645      1.73425e+7 
           1655      1.69836e+7 
           1665      1.92005e+7 
           1672      1.90576e+7 
           1677      1.95456e+7 
           1685      1.99814e+7 
           1695      1.99483e+7 
           1705      1.99495e+7 
           1715      2.03746e+7 
           1725      2.03429e+7 
           1735      2.06773e+7 
           1745      2.04175e+7 
           1755      2.05927e+7 
           1765      2.05572e+7 
           1775      2.06359e+7 
           1785       2.0481e+7 
           1795      2.07071e+7 
           1805      2.03673e+7 
           1815      2.03985e+7 
           1825      2.03136e+7 
           1835      2.04866e+7 
           1845      2.02197e+7 
           1855      2.04183e+7 
           1865      2.04827e+7 
           1875      2.04673e+7 
           1885      2.04564e+7 
           1895      2.04435e+7 
           1905       2.0299e+7 
           1915       2.0367e+7 
           1925      2.03827e+7 
           1935      2.00518e+7 
           1945      2.03431e+7 
           1955      2.03109e+7 
           1967       2.0282e+7 
           1976      2.02028e+7 
           1984      2.01618e+7 
           1995      2.01871e+7 
           2005      2.01024e+7 
           2015       1.9998e+7 
           2025       1.9937e+7 
           2035      2.00508e+7 
           2045       2.0011e+7 
           2055      1.97472e+7 
           2065      1.97985e+7 
           2074      2.00018e+7 
           2078      1.99973e+7 
           2085      1.99664e+7 
           2095      1.99402e+7 
           2105      1.99195e+7 
           2115      1.98832e+7 
           2125      1.98058e+7 
           2135         1.98e+7 
           2145      1.98353e+7 
           2155      1.97912e+7 
           2165      1.95855e+7 
           2175      1.96383e+7 
           2185      1.97091e+7 
           2195      1.97614e+7 
           2205      1.96174e+7 
           2215      1.93754e+7 
           2225      1.94657e+7 
           2235       1.9678e+7 
           2245      1.96138e+7 
           2255      1.94283e+7 
           2265      1.93093e+7 
           2275      1.95031e+7 
           2285      1.95103e+7 
           2295        1.943e+7 
           2305      1.95057e+7 
           2315      1.94655e+7 
           2325      1.94413e+7 
           2335      1.92337e+7 
           2345      1.87631e+7 
           2355      1.92698e+7 
           2365       1.8794e+7 
           2375      1.91703e+7 
           2385      1.85834e+7 
           2395      1.90741e+7 
           2405      1.90826e+7 
           2415      1.90702e+7 
           2425      1.94296e+7 
           2435      1.93396e+7 
           2445      1.93368e+7 
           2455      1.94115e+7 
           2465      1.93113e+7 
           2475      1.93032e+7 
           2485       1.9275e+7 
           2495       1.9165e+7 
           2505      1.93713e+7 
           2513      1.91873e+7 
           2518      1.92128e+7 
           2525      1.91378e+7 
           2535      1.90381e+7 
           2545      1.92296e+7 
           2555      1.93904e+7 
           2565        1.918e+7 
           2575      1.92676e+7 
           2585      1.92559e+7 
           2595      1.92151e+7 
           2605      1.91573e+7 
           2615      1.91086e+7 
           2625      1.91174e+7 
           2635      1.91972e+7 
           2645      1.95311e+7 
           2655      1.95258e+7 
           2665      1.94507e+7 
           2675      1.94729e+7 
           2685      1.95319e+7 
           2695      1.95112e+7 
           2705      1.95248e+7 
           2715      1.94068e+7 
           2725      1.93782e+7 
           2735      1.94161e+7 
           2745      1.89914e+7 
           2755      1.91258e+7 
           2765      1.93755e+7 
           2775      1.95414e+7 
           2785      1.95281e+7 
           2795      1.88523e+7 
           2805      1.92233e+7 
           2815      1.95766e+7 
           2825      1.95747e+7 
           2835      1.95222e+7 
           2845      1.95457e+7 
           2855      1.94109e+7 
           2865      1.95129e+7 
           2875      1.95506e+7 
           2885      1.95348e+7 
           2895      1.95853e+7 
           2910      1.95979e+7 
           2930      1.95366e+7 
           2950      1.95306e+7 
           2970      1.95854e+7 
           2990      1.95745e+7 
           3010      1.96005e+7 
           3030      1.96024e+7 
           3050      1.95996e+7 
           3070      1.95694e+7 
           3090      1.95919e+7 
           3110      1.95884e+7 
           3130      1.95796e+7 
           3150      1.95675e+7 
           3170      1.95688e+7 
           3190      1.95289e+7 
           3210      1.95511e+7 
           3230      1.94971e+7 
           3250      1.95286e+7 
           3270       1.9536e+7 
           3290      1.95289e+7 
           3310      1.95178e+7 
           3330       1.9492e+7 
           3350      1.94573e+7 
           3370      1.94513e+7 
           3390      1.94405e+7 
           3410      1.94425e+7 
           3430      1.94242e+7 
           3450      1.94051e+7 
           3470      1.93845e+7 
           3490      1.93655e+7 
           3510      1.93445e+7 
           3530      1.93231e+7 
           3550      1.92994e+7 
           3570      1.92726e+7 
           3590       1.9247e+7 
           3610      1.92208e+7 
           3630      1.91926e+7 
           3640      1.91774e+7 
           3650      1.92616e+7 
           3670      1.90276e+7 
           3690      1.91506e+7 
           3710      2.33952e+7 
           3730      2.83937e+7 
           3750      4.02622e+7 
           3770      4.32289e+7 
           3790      5.25015e+7 
           3810      6.14244e+7 
           3830      4.89374e+7 
           3850      6.74466e+7 
           3870      7.49163e+7 
           3890      4.21614e+7 
           3910      7.38595e+7 
           3930       7.6666e+7 
           3950      7.27237e+7 
           3970      4.05152e+7 
           3990      6.93561e+7 
           4010      7.44505e+7 
           4030       7.4059e+7 
           4050      7.30721e+7 
           4070      7.09843e+7 
           4090      5.70225e+7 
           4110      4.34936e+7 
           4130      6.74128e+7 
           4150      6.86195e+7 
           4170      6.81427e+7 
           4190      6.74186e+7 
           4210      6.67243e+7 
           4230      6.58949e+7 
           4250      6.49904e+7 
           4270      6.41123e+7 
           4290      6.30554e+7 
           4310      6.10113e+7 
           4330      4.73943e+7 
           4350      4.01327e+7 
           4370       5.8369e+7 
           4390      5.93299e+7 
           4410      5.89692e+7 
           4430      5.84303e+7 
           4450      5.78245e+7 
           4470      5.71272e+7 
           4490      5.64886e+7 
           4510      5.58479e+7 
           4530       5.5209e+7 
           4550      5.45773e+7 
           4570        5.396e+7 
           4590      5.33513e+7 
           4610      5.27546e+7 
           4630      5.21593e+7 
           4650      5.15791e+7 
           4670      5.10035e+7 
           4690      5.04376e+7 
           4710      4.98726e+7 
           4730      4.93305e+7 
           4750      4.87874e+7 
           4770       4.8154e+7 
           4790      4.75327e+7 
           4810      4.67783e+7 
           4830      4.52952e+7 
           4850      3.69482e+7 
           4870      2.98881e+7 
           4890      4.31775e+7 
           4910      4.42188e+7 
           4930      4.40437e+7 
           4950      4.36823e+7 
           4970      4.33269e+7 
           4990      4.28728e+7 
           5010      4.24187e+7 
           5030      4.19808e+7 
           5050       4.1544e+7 
           5070      4.11143e+7 
           5090      4.06901e+7 
           5110      4.02712e+7 
           5130      3.98576e+7 
           5150      3.94506e+7 
           5170      3.90388e+7 
           5190      3.86476e+7 
           5210      3.82613e+7 
           5230      3.78742e+7 
           5250      3.74959e+7 
           5270      3.71196e+7 
           5290      3.67493e+7 
           5310      3.63821e+7 
           5330      3.60221e+7 
           5350      3.56664e+7 
           5370      3.53137e+7 
           5390      3.49665e+7 
           5410      3.46248e+7 
           5430      3.42859e+7 
           5450      3.39523e+7 
           5470      3.36239e+7 
           5490      3.32981e+7 
           5510      3.29774e+7 
           5530      3.26592e+7 
           5550      3.23472e+7 
           5570      3.20376e+7 
           5590      3.17328e+7 
           5610      3.14315e+7 
           5630      3.11337e+7 
           5650      3.08394e+7 
           5670      3.05495e+7 
           5690       3.0263e+7 
           5710      2.99797e+7 
           5730      2.96997e+7 
           5750      2.94239e+7 
           5770      2.91501e+7 
           5790      2.88806e+7 
           5810       2.8614e+7 
           5830      2.83504e+7 
           5850      2.80908e+7 
           5870      2.78287e+7 
           5890      2.75792e+7 
           5910      2.73292e+7 
           5930      2.70809e+7 
           5950      2.68364e+7 
           5970      2.65945e+7 
           5990      2.63552e+7 
           6010      2.61186e+7 
           6030      2.58855e+7 
           6050      2.56539e+7 
           6070      2.54269e+7 
           6090      2.52012e+7 
           6110       2.4978e+7 
           6130      2.47581e+7 
           6150      2.45406e+7 
           6170      2.43253e+7 
           6190      2.41124e+7 
           6210      2.39016e+7 
           6230       2.3694e+7 
           6250      2.34877e+7 
           6270      2.32844e+7 
           6290      2.30842e+7 
           6310      2.28851e+7 
           6330      2.26881e+7 
           6350      2.24931e+7 
           6370       2.2301e+7 
           6390      2.21118e+7 
           6410      2.19236e+7 
           6430      2.17373e+7 
           6450      2.15511e+7 
           6470       2.1337e+7 
           6490      2.11118e+7 
           6510      2.08516e+7 
           6530      2.03831e+7 
           6550      1.82137e+7 
           6570      1.46128e+7 
           6590       1.9468e+7 
           6610       1.9922e+7 
           6630      1.98877e+7 
           6650      1.97682e+7 
           6670      1.96532e+7 
           6690       1.9493e+7 
           6710      1.93334e+7 
           6730      1.91755e+7 
           6750       1.9019e+7 
           6770       1.8864e+7 
           6790      1.87106e+7 
           6810      1.85586e+7 
           6830      1.84081e+7 
           6850      1.82598e+7 
           6870      1.81129e+7 
           6890      1.79667e+7 
           6910      1.78226e+7 
           6930      1.76798e+7 
           6950      1.75392e+7 
           6970      1.73992e+7 
           6990      1.72612e+7 
           7010      1.71238e+7 
           7030      1.69883e+7 
           7050      1.68542e+7 
           7070      1.67213e+7 
           7090      1.65904e+7 
           7110      1.64599e+7 
           7130      1.63314e+7 
           7150      1.62033e+7 
           7170      1.60771e+7 
           7190      1.59521e+7 
           7210      1.58282e+7 
           7230      1.57054e+7 
           7250      1.55845e+7 
           7270      1.54639e+7 
           7290      1.53452e+7 
           7310      1.52268e+7 
           7330      1.51102e+7 
           7350      1.49946e+7 
           7370        1.488e+7 
           7390      1.47671e+7 
           7410      1.46546e+7 
           7430      1.45431e+7 
           7450      1.44332e+7 
           7470      1.43243e+7 
           7490      1.42156e+7 
           7510      1.41086e+7 
           7530      1.40026e+7 
           7550      1.38981e+7 
           7570      1.37938e+7 
           7590      1.36905e+7 
           7610      1.35887e+7 
           7630      1.34878e+7 
           7650      1.33877e+7 
           7670      1.32886e+7 
           7690      1.31902e+7 
           7710      1.30927e+7 
           7730      1.29961e+7 
           7750      1.29008e+7 
           7770      1.28039e+7 
           7790      1.27122e+7 
           7810      1.26194e+7 
           7830      1.25274e+7 
           7850      1.24361e+7 
           7870      1.23456e+7 
           7890      1.22559e+7 
           7910      1.21669e+7 
           7930      1.20792e+7 
           7950      1.19923e+7 
           7970      1.19061e+7 
           7990        1.182e+7 
           8010      1.17352e+7 
           8030      1.16517e+7 
           8050      1.15683e+7 
           8070      1.14856e+7 
           8090      1.14041e+7 
           8110      1.13227e+7 
           8130      1.12426e+7 
           8150      1.11625e+7 
           8170      1.10836e+7 
           8190      1.10054e+7 
           8210      1.09552e+7 
           8230      1.08842e+7 
           8250       1.0816e+7 
           8270      1.07473e+7 
           8290      1.06752e+7 
           8310       1.0595e+7 
           8330       1.0505e+7 
           8350      1.04234e+7 
           8370      1.02753e+7 
           8390      1.01964e+7 
           8410      1.00739e+7 
           8430      1.01226e+7 
           8450      1.00869e+7 
           8470      9.60716e+6 
           8490      1.02806e+7 
           8510      9.39273e+6 
           8530      1.03765e+7 
           8550      9.00306e+6 
           8570      1.05256e+7 
