# Kurucz ODFNEW /NOVER (2003)
# teff = 19000 K (value for the effective temperature for the model. Temperatures are given in K)
# logg = 5 log(cm/s2) (value for Log(G) for the model.)
# meta = -1.5  (value for the Metallicity for the model.)
# lh = 1.25  (l/Hp where l is the  mixing length of the convective element and Hp is the pressure scale height)
# vtur = 2 km/s (Microturbulence velocity)
# alpha = 0.4  (Alpha)
#
# column 1: WAVELENGTH (ANGSTROM), Wavelength in Angstrom
# column 2: FLUX (ERG/CM2/S/A), Flux in erg/cm2/s/A
          147.2     1.49773e-21 
            151     1.01883e-20 
          155.2     7.58244e-20 
          158.8     3.89122e-19 
            162     1.57172e-18 
            166     8.37634e-18 
          170.3      4.6524e-17 
          173.4     1.52095e-16 
          176.8     5.32489e-16 
          180.2      1.7812e-15 
          181.7     2.99182e-15 
          186.1     1.30804e-14 
            191     6.25118e-14 
          193.9     1.51605e-13 
          198.4     5.70934e-13 
          201.8     1.50088e-12 
            205     3.62924e-12 
          210.5     1.54755e-11 
          216.2     6.44968e-11 
          219.8      1.5304e-10 
            223     3.21556e-10 
          226.8      7.5722e-10 
            230      1.72206e-9 
            234      4.29012e-9 
            240       1.4561e-8 
          246.5      5.08584e-8 
          252.4      1.49767e-7 
          256.8      3.22241e-7 
            260      5.59521e-7 
            264      1.08593e-6 
          268.5      2.23224e-6 
          273.5      4.83191e-6 
          278.5      1.01854e-5 
            284      2.24087e-5 
            290       5.1116e-5 
            296     0.000112538 
            301     0.000212263 
            308     0.000496169 
            318      0.00157097 
            328      0.00461107 
            338       0.0126654 
            348       0.0327535 
            357       0.0733837 
            366        0.157842 
            375        0.326298 
            385        0.701305 
            395         1.44583 
            405         2.87006 
            414         5.16158 
            422         8.50055 
            430         13.7189 
            441         25.7189 
            451         44.2331 
            460         70.4979 
            470         115.669 
            480          185.52 
            490         291.404 
            500         448.655 
            506         4120.63 
            512         10494.2 
            520         13593.9 
            530         19773.9 
            540         24371.1 
            550           35232 
            560         45780.6 
            570         59717.8 
            580         68096.9 
            590         93850.1 
            600          120794 
            610          151228 
            620          185552 
            630          228401 
            640          274720 
            650          334892 
            658          388481 
            665          438249 
            675          518256 
            685          610940 
            695          725927 
            705          847333 
            716          997496 
            726      1.15497e+6 
            735      1.31396e+6 
            745      1.51011e+6 
            755      1.72792e+6 
            765      1.95991e+6 
            775      2.22917e+6 
            785      2.51754e+6 
            795      2.82721e+6 
            805      3.17278e+6 
            815      3.54159e+6 
            825      3.94859e+6 
            835      4.33277e+6 
            845      4.84355e+6 
            855      5.33227e+6 
            865      5.89142e+6 
            875      6.45428e+6 
            885      7.09472e+6 
            895      7.74975e+6 
            905      8.34345e+6 
            915      1.30524e+7 
            925      3.84349e+7 
            935      7.89161e+7 
            945      4.06802e+8 
            955      1.78087e+9 
            965       2.7408e+9 
            975       6.2274e+8 
            985      6.78383e+9 
            995      8.76235e+9 
           1005      8.90738e+9 
           1015      4.83571e+9 
           1025      2.71084e+8 
           1035      3.55655e+9 
           1045       9.0237e+9 
           1055      9.95518e+9 
           1065      9.22173e+9 
           1075      9.98657e+9 
           1085      9.35627e+9 
           1095      9.81518e+9 
           1105      9.04811e+9 
           1115       8.9429e+9 
           1125      8.52953e+9 
           1135      8.80247e+9 
           1145      8.13933e+9 
           1155       8.3873e+9 
           1165      8.33469e+9 
           1175      7.35136e+9 
           1185      7.68201e+9 
           1195      5.67195e+9 
           1205      2.87109e+9 
           1215      2.93375e+8 
           1225      2.20318e+9 
           1235      5.63257e+9 
           1245       6.6053e+9 
           1255      6.62268e+9 
           1265      6.44635e+9 
           1275      6.73009e+9 
           1285      6.69123e+9 
           1295      5.89527e+9 
           1305      5.53406e+9 
           1315      6.31925e+9 
           1325      6.10063e+9 
           1335      5.83371e+9 
           1345      5.93096e+9 
           1355      5.82897e+9 
           1365      5.66421e+9 
           1375      5.60085e+9 
           1385      5.55463e+9 
           1395      5.30899e+9 
           1405      5.30697e+9 
           1415      5.24295e+9 
           1425      5.18576e+9 
           1435      5.11008e+9 
           1442      5.10099e+9 
           1447      5.04907e+9 
           1455      4.95437e+9 
           1465      4.85221e+9 
           1475      4.76032e+9 
           1485      4.63561e+9 
           1495      4.58897e+9 
           1505      4.45201e+9 
           1512      4.38435e+9 
           1517      4.40887e+9 
           1525      4.30571e+9 
           1535      4.16537e+9 
           1545      4.20206e+9 
           1555      4.06063e+9 
           1565      3.97814e+9 
           1575      3.99551e+9 
           1585      3.93911e+9 
           1595      3.91534e+9 
           1605      3.79066e+9 
           1615      3.73404e+9 
           1625      3.67181e+9 
           1635      3.63197e+9 
           1645      3.57806e+9 
           1655      3.46316e+9 
           1665      3.51273e+9 
           1672      3.37867e+9 
           1677      3.43102e+9 
           1685      3.40834e+9 
           1695      3.33664e+9 
           1705      3.25083e+9 
           1715       3.1741e+9 
           1725      3.12854e+9 
           1735      3.12725e+9 
           1745      3.06367e+9 
           1755      3.05148e+9 
           1765      2.89777e+9 
           1775      2.95034e+9 
           1785       2.8968e+9 
           1795      2.89128e+9 
           1805      2.83574e+9 
           1815      2.78319e+9 
           1825      2.76963e+9 
           1835      2.72095e+9 
           1845      2.64251e+9 
           1855      2.57413e+9 
           1865      2.54606e+9 
           1875      2.56152e+9 
           1885      2.48532e+9 
           1895      2.42276e+9 
           1905      2.45023e+9 
           1915      2.38064e+9 
           1925      2.34793e+9 
           1935      2.33339e+9 
           1945      2.33037e+9 
           1955      2.25987e+9 
           1967      2.26909e+9 
           1976      2.25946e+9 
           1984       2.2097e+9 
           1995      2.15113e+9 
           2005      2.15756e+9 
           2015      2.13017e+9 
           2025      2.12213e+9 
           2035      2.08386e+9 
           2045      2.05795e+9 
           2055       1.9889e+9 
           2065      1.99001e+9 
           2074      1.98118e+9 
           2078      1.96091e+9 
           2085      1.96059e+9 
           2095       1.9208e+9 
           2105      1.91331e+9 
           2115      1.89425e+9 
           2125      1.88013e+9 
           2135      1.85231e+9 
           2145      1.82804e+9 
           2155      1.80998e+9 
           2165      1.77762e+9 
           2175      1.75797e+9 
           2185      1.74002e+9 
           2195       1.7271e+9 
           2205      1.69845e+9 
           2215      1.67217e+9 
           2225      1.64667e+9 
           2235      1.64336e+9 
           2245      1.62142e+9 
           2255        1.597e+9 
           2265      1.58469e+9 
           2275      1.56409e+9 
           2285      1.55238e+9 
           2295      1.52379e+9 
           2305      1.51017e+9 
           2315      1.49083e+9 
           2325      1.47831e+9 
           2335      1.44653e+9 
           2345      1.41162e+9 
           2355      1.41901e+9 
           2365      1.38663e+9 
           2375      1.38353e+9 
           2385      1.35347e+9 
           2395      1.35145e+9 
           2405      1.33372e+9 
           2415      1.31805e+9 
           2425      1.31739e+9 
           2435      1.29464e+9 
           2445      1.28275e+9 
           2455      1.27639e+9 
           2465      1.25378e+9 
           2475      1.24453e+9 
           2485      1.23416e+9 
           2495      1.20849e+9 
           2505      1.20991e+9 
           2513       1.1916e+9 
           2518      1.19258e+9 
           2525      1.17487e+9 
           2535       1.1543e+9 
           2545      1.14816e+9 
           2555      1.14859e+9 
           2565      1.13038e+9 
           2575      1.12622e+9 
           2585      1.11431e+9 
           2595      1.10176e+9 
           2605      1.09071e+9 
           2615      1.08068e+9 
           2625      1.07038e+9 
           2635      1.05913e+9 
           2645       1.0611e+9 
           2655      1.04938e+9 
           2665      1.03324e+9 
           2675      1.02585e+9 
           2685      1.01906e+9 
           2695      1.00305e+9 
           2705      9.98224e+8 
           2715      9.85773e+8 
           2725      9.70028e+8 
           2735      9.68236e+8 
           2745      9.43795e+8 
           2755       9.3785e+8 
           2765       9.3231e+8 
           2775      9.32794e+8 
           2785      9.22028e+8 
           2795      8.88533e+8 
           2805        8.971e+8 
           2815      8.98154e+8 
           2825       8.8279e+8 
           2835      8.73152e+8 
           2845       8.7005e+8 
           2855      8.63226e+8 
           2865      8.56476e+8 
           2875      8.47566e+8 
           2885      8.40161e+8 
           2895      8.32659e+8 
           2910       8.2125e+8 
           2930      8.03011e+8 
           2950      7.86316e+8 
           2970      7.76872e+8 
           2990      7.62215e+8 
           3010      7.49417e+8 
           3030      7.36151e+8 
           3050      7.22964e+8 
           3070      7.10098e+8 
           3090       6.9766e+8 
           3110      6.85249e+8 
           3130      6.73867e+8 
           3150      6.62072e+8 
           3170      6.50745e+8 
           3190      6.35577e+8 
           3210      6.28413e+8 
           3230      6.17838e+8 
           3250      6.07475e+8 
           3270      5.97636e+8 
           3290      5.87364e+8 
           3310      5.78018e+8 
           3330      5.68446e+8 
           3350      5.58657e+8 
           3370      5.49956e+8 
           3390      5.41028e+8 
           3410      5.32302e+8 
           3430      5.23103e+8 
           3450      5.14112e+8 
           3470       5.0645e+8 
           3490      4.98466e+8 
           3510      4.91029e+8 
           3530      4.83394e+8 
           3550      4.75631e+8 
           3570      4.69253e+8 
           3590       4.6059e+8 
           3610      4.54257e+8 
           3630      4.46521e+8 
           3640      4.44469e+8 
           3650      4.40453e+8 
           3670      4.35302e+8 
           3690      4.28604e+8 
           3710       4.1562e+8 
           3730      3.95253e+8 
           3750      4.05059e+8 
           3770      4.03821e+8 
           3790      4.42662e+8 
           3810      4.79265e+8 
           3830      4.04982e+8 
           3850       5.0888e+8 
           3870      5.42296e+8 
           3890      3.70055e+8 
           3910      5.37319e+8 
           3930      5.52768e+8 
           3950      5.24391e+8 
           3970      3.48598e+8 
           3990      4.97483e+8 
           4010      5.21936e+8 
           4030      4.87425e+8 
           4050      5.15283e+8 
           4070      4.98564e+8 
           4090      4.14359e+8 
           4110      3.44523e+8 
           4130      4.62472e+8 
           4150      4.70253e+8 
           4170      4.69328e+8 
           4190      4.63957e+8 
           4210      4.56902e+8 
           4230      4.49581e+8 
           4250      4.42147e+8 
           4270      4.33552e+8 
           4290      4.25302e+8 
           4310       4.0946e+8 
           4330      3.33249e+8 
           4350      2.97501e+8 
           4370      3.86851e+8 
           4390      3.79366e+8 
           4410      3.88815e+8 
           4430      3.82298e+8 
           4450      3.77918e+8 
           4470      3.50769e+8 
           4490      3.64675e+8 
           4510      3.62207e+8 
           4530      3.56666e+8 
           4550      3.51317e+8 
           4570      3.46138e+8 
           4590      3.41036e+8 
           4610      3.36009e+8 
           4630      3.31004e+8 
           4650      3.26072e+8 
           4670      3.21385e+8 
           4690      3.16766e+8 
           4710      3.07832e+8 
           4730      3.07457e+8 
           4750      3.02836e+8 
           4770      2.98133e+8 
           4790      2.93218e+8 
           4810      2.87268e+8 
           4830      2.76965e+8 
           4850      2.33541e+8 
           4870      2.02939e+8 
           4890      2.61482e+8 
           4910       2.6631e+8 
           4930      2.57705e+8 
           4950      2.62269e+8 
           4970      2.59324e+8 
           4990      2.55872e+8 
           5010      2.48896e+8 
           5030      2.48781e+8 
           5050      2.43329e+8 
           5070      2.42204e+8 
           5090      2.38923e+8 
           5110      2.35686e+8 
           5130      2.32549e+8 
           5150      2.29425e+8 
           5170      2.26371e+8 
           5190      2.23357e+8 
           5210      2.20188e+8 
           5230      2.17502e+8 
           5250      2.14632e+8 
           5270      2.11812e+8 
           5290      2.09069e+8 
           5310      2.06335e+8 
           5330      2.03649e+8 
           5350      2.00957e+8 
           5370      1.98444e+8 
           5390      1.95898e+8 
           5410      1.93371e+8 
           5430      1.90838e+8 
           5450       1.8845e+8 
           5470      1.86055e+8 
           5490      1.83764e+8 
           5510      1.81428e+8 
           5530      1.79157e+8 
           5550      1.76926e+8 
           5570      1.74711e+8 
           5590      1.72559e+8 
           5610      1.70385e+8 
           5630      1.68321e+8 
           5650      1.66128e+8 
           5670      1.64126e+8 
           5690      1.62183e+8 
           5710      1.60229e+8 
           5730      1.58286e+8 
           5750      1.56366e+8 
           5770      1.54481e+8 
           5790      1.52617e+8 
           5810      1.50776e+8 
           5830      1.48979e+8 
           5850      1.47202e+8 
           5870      1.41051e+8 
           5890      1.43374e+8 
           5910      1.42028e+8 
           5930      1.40365e+8 
           5950      1.38667e+8 
           5970      1.37095e+8 
           5990      1.35456e+8 
           6010       1.3392e+8 
           6030       1.3237e+8 
           6050      1.30838e+8 
           6070      1.29333e+8 
           6090      1.27835e+8 
           6110      1.26383e+8 
           6130      1.24939e+8 
           6150       1.2349e+8 
           6170      1.22107e+8 
           6190      1.20739e+8 
           6210      1.19376e+8 
           6230      1.18029e+8 
           6250      1.16686e+8 
           6270      1.15397e+8 
           6290      1.14112e+8 
           6310      1.12831e+8 
           6330      1.11593e+8 
           6350      1.10106e+8 
           6370      1.09007e+8 
           6390      1.07939e+8 
           6410      1.06743e+8 
           6430      1.05597e+8 
           6450      1.04427e+8 
           6470      1.03144e+8 
           6490      1.01812e+8 
           6510      1.00298e+8 
           6530      9.78292e+7 
           6550      8.88204e+7 
           6570      7.70951e+7 
           6590      9.28549e+7 
           6610      9.46822e+7 
           6630      9.43004e+7 
           6650      9.35296e+7 
           6670      9.17756e+7 
           6690      9.09246e+7 
           6710      9.08436e+7 
           6730      8.98969e+7 
           6750      8.89598e+7 
           6770      8.80322e+7 
           6790       8.7114e+7 
           6810      8.62131e+7 
           6830      8.53133e+7 
           6850      8.44385e+7 
           6870      8.35724e+7 
           6890      8.27149e+7 
           6910       8.1866e+7 
           6930      8.10176e+7 
           6950       8.0201e+7 
           6970      7.93924e+7 
           6990      7.85841e+7 
           7010      7.77913e+7 
           7030      7.70063e+7 
           7050      7.62289e+7 
           7070      7.45863e+7 
           7090      7.47185e+7 
           7110       7.3973e+7 
           7130      7.32377e+7 
           7150       7.2508e+7 
           7170      7.17941e+7 
           7190      7.10863e+7 
           7210      7.03866e+7 
           7230      6.96612e+7 
           7250      6.90122e+7 
           7270      6.83393e+7 
           7290      6.73453e+7 
           7310      6.70154e+7 
           7330      6.63669e+7 
           7350      6.57252e+7 
           7370      6.50915e+7 
           7390      6.44658e+7 
           7410      6.38472e+7 
           7430      6.32303e+7 
           7450      6.26334e+7 
           7470      6.20345e+7 
           7490      6.14471e+7 
           7510      6.08604e+7 
           7530      6.02897e+7 
           7550      5.97216e+7 
           7570      5.91599e+7 
           7590      5.86039e+7 
           7610      5.80556e+7 
           7630      5.75135e+7 
           7650      5.69769e+7 
           7670      5.64477e+7 
           7690      5.59239e+7 
           7710      5.54066e+7 
           7730      5.48945e+7 
           7750      5.43895e+7 
           7770      5.37848e+7 
           7790       5.3396e+7 
           7810      5.29011e+7 
           7830      5.24254e+7 
           7850      5.19452e+7 
           7870      5.14705e+7 
           7890      5.09829e+7 
           7910      5.05635e+7 
           7930      5.01081e+7 
           7950      4.96429e+7 
           7970      4.92108e+7 
           7990      4.87464e+7 
           8010      4.83347e+7 
           8030      4.79038e+7 
           8050      4.74777e+7 
           8070       4.7057e+7 
           8090      4.66392e+7 
           8110      4.62279e+7 
           8130      4.58201e+7 
           8150      4.54174e+7 
           8170      4.50198e+7 
           8190      4.46204e+7 
           8210      4.41764e+7 
           8230       4.3824e+7 
           8250      4.34745e+7 
           8270      4.30546e+7 
           8290      4.27479e+7 
           8310      4.23989e+7 
           8330      4.20365e+7 
           8350      4.16257e+7 
           8370      4.13189e+7 
           8390      4.09953e+7 
           8410      4.06408e+7 
           8430      4.02822e+7 
           8450      3.98317e+7 
           8470      3.95634e+7 
           8490      3.91959e+7 
           8510      3.87934e+7 
           8530       3.8519e+7 
           8550       3.7833e+7 
           8570      3.80439e+7 
