# Kurucz ODFNEW /NOVER (2003)
# teff = 34000 K (value for the effective temperature for the model. Temperatures are given in K)
# logg = 4.5 log(cm/s2) (value for Log(G) for the model.)
# meta = 0.5  (value for the Metallicity for the model.)
# lh = 1.25  (l/Hp where l is the  mixing length of the convective element and Hp is the pressure scale height)
# vtur = 2 km/s (Microturbulence velocity)
# alpha = 0.4  (Alpha)
#
# column 1: WAVELENGTH (ANGSTROM), Wavelength in Angstrom
# column 2: FLUX (ERG/CM2/S/A), Flux in erg/cm2/s/A
          147.2      1.37493e-5 
            151      3.61595e-5 
          155.2      9.93599e-5 
          158.8     0.000226927 
            162     0.000458136 
            166       0.0010677 
          170.3      0.00251195 
          173.4      0.00459492 
          176.8      0.00880495 
          180.2       0.0161402 
          181.7       0.0215187 
          186.1       0.0451109 
            191       0.0992719 
          193.9        0.154811 
          198.4        0.305833 
          201.8        0.494742 
            205        0.766923 
          210.5         1.58309 
          216.2         3.17979 
          219.8         4.95654 
            223         7.18959 
          226.8         12.5312 
            230         1847.04 
            234         3766.61 
            240         5887.38 
          246.5         9658.45 
          252.4         16034.1 
          256.8         22778.1 
            260         36901.6 
            264         58047.8 
          268.5         89118.4 
          273.5          121275 
          278.5          147943 
            284          334099 
            290          478012 
            296          619340 
            301      1.00069e+6 
            308      2.68112e+6 
            318      5.39515e+6 
            328      7.63306e+6 
            338      1.37242e+7 
            348      2.08426e+7 
            357      4.53616e+7 
            366      1.04681e+8 
            375      1.20352e+8 
            385      1.81117e+8 
            395      4.57725e+8 
            405      5.79386e+8 
            414      9.19074e+8 
            422      1.05392e+9 
            430      1.11391e+9 
            441      1.32639e+9 
            451      1.41923e+9 
            460      1.31499e+9 
            470      1.58496e+9 
            480      1.85405e+9 
            490      1.69567e+9 
            500      2.21758e+9 
            506      2.16354e+9 
            512     1.58872e+10 
            520     1.46693e+10 
            530     1.35885e+10 
            540     1.29159e+10 
            550     1.34377e+10 
            560     1.93074e+10 
            570     2.27939e+10 
            580     2.10471e+10 
            590     2.18235e+10 
            600     1.30076e+10 
            610     1.84538e+10 
            620     2.46109e+10 
            630     2.34713e+10 
            640     2.36127e+10 
            650     2.14731e+10 
            658     1.34337e+10 
            665     2.02513e+10 
            675     2.55188e+10 
            685     1.75517e+10 
            695     2.56054e+10 
            705      1.6125e+10 
            716     2.81524e+10 
            726     2.72957e+10 
            735     2.72095e+10 
            745     2.29021e+10 
            755     2.33767e+10 
            765     2.44767e+10 
            775     2.62408e+10 
            785     2.53545e+10 
            795      2.6739e+10 
            805     2.42342e+10 
            815     2.38507e+10 
            825     2.64166e+10 
            835     1.82852e+10 
            845     2.45546e+10 
            855      2.3864e+10 
            865      2.4976e+10 
            875     2.49644e+10 
            885     2.53154e+10 
            895     2.52274e+10 
            905      2.4069e+10 
            915      2.3539e+10 
            925     5.47422e+10 
            935     8.36305e+10 
            945     1.03646e+11 
            955     1.14755e+11 
            965     1.27879e+11 
            975     5.21447e+10 
            985     9.83812e+10 
            995     8.65657e+10 
           1005     8.88873e+10 
           1015     9.73907e+10 
           1025      8.0608e+10 
           1035     9.54216e+10 
           1045     1.11712e+11 
           1055     1.04497e+11 
           1065     8.55577e+10 
           1075     9.10442e+10 
           1085     8.33831e+10 
           1095     8.97408e+10 
           1105     8.50015e+10 
           1115     8.32443e+10 
           1125     6.04166e+10 
           1135     7.84618e+10 
           1145     7.67065e+10 
           1155      6.9671e+10 
           1165     6.90158e+10 
           1175     4.41693e+10 
           1185     6.28372e+10 
           1195     5.97639e+10 
           1205     5.68872e+10 
           1215     4.68518e+10 
           1225      5.6039e+10 
           1235     6.00999e+10 
           1245     5.74175e+10 
           1255     5.73576e+10 
           1265     5.90746e+10 
           1275     6.18572e+10 
           1285     6.19751e+10 
           1295     5.65805e+10 
           1305     5.66391e+10 
           1315     6.08723e+10 
           1325     5.86566e+10 
           1335     5.67221e+10 
           1345     5.57173e+10 
           1355     5.49308e+10 
           1365     5.22262e+10 
           1375     4.99749e+10 
           1385     4.76552e+10 
           1395     3.28192e+10 
           1405     3.51953e+10 
           1415     4.64123e+10 
           1425     4.12624e+10 
           1435     4.47306e+10 
           1442     4.36777e+10 
           1447     4.35797e+10 
           1455     4.10874e+10 
           1465     3.97438e+10 
           1475     4.06162e+10 
           1485     4.04981e+10 
           1495     3.90732e+10 
           1505     3.73116e+10 
           1512     3.67906e+10 
           1517     3.71918e+10 
           1525     3.56185e+10 
           1535      3.0484e+10 
           1545     2.45605e+10 
           1555     2.49234e+10 
           1565     2.89927e+10 
           1575      3.0635e+10 
           1585     3.04566e+10 
           1595     3.08474e+10 
           1605     2.93162e+10 
           1615     2.77236e+10 
           1625     2.84749e+10 
           1635     2.88308e+10 
           1645     2.90717e+10 
           1655     2.86705e+10 
           1665     2.79263e+10 
           1672      2.5623e+10 
           1677     3.09453e+10 
           1685     2.92602e+10 
           1695     2.81463e+10 
           1705     2.77964e+10 
           1715     2.61974e+10 
           1725     2.49121e+10 
           1735     2.59724e+10 
           1745     2.58809e+10 
           1755     2.55012e+10 
           1765     2.50111e+10 
           1775     2.38883e+10 
           1785     2.44348e+10 
           1795      2.3788e+10 
           1805     2.36547e+10 
           1815     2.29545e+10 
           1825     2.25215e+10 
           1835     2.24579e+10 
           1845     2.13098e+10 
           1855     2.18088e+10 
           1865     2.18528e+10 
           1875     2.11188e+10 
           1885      2.0062e+10 
           1895     1.97123e+10 
           1905     2.02399e+10 
           1915     1.95822e+10 
           1925     1.82416e+10 
           1935     1.95628e+10 
           1945     1.97635e+10 
           1955     1.77038e+10 
           1967     1.86676e+10 
           1976     1.91492e+10 
           1984     1.84562e+10 
           1995     1.80337e+10 
           2005     1.83669e+10 
           2015     1.82778e+10 
           2025     1.82199e+10 
           2035     1.73817e+10 
           2045     1.71329e+10 
           2055     1.36319e+10 
           2065     1.31203e+10 
           2074     1.36277e+10 
           2078     1.34767e+10 
           2085     1.42703e+10 
           2095     1.50734e+10 
           2105     1.57059e+10 
           2115     1.59325e+10 
           2125     1.54976e+10 
           2135     1.54313e+10 
           2145     1.51321e+10 
           2155     1.51421e+10 
           2165     1.43298e+10 
           2175     1.47359e+10 
           2185     1.42249e+10 
           2195     1.45992e+10 
           2205     1.43531e+10 
           2215     1.36886e+10 
           2225     1.38764e+10 
           2235     1.36567e+10 
           2245     1.34321e+10 
           2255     1.29369e+10 
           2265     1.30763e+10 
           2275     1.29747e+10 
           2285     1.23895e+10 
           2295     1.10121e+10 
           2305     1.19095e+10 
           2315     1.18146e+10 
           2325     1.18776e+10 
           2335     1.17029e+10 
           2345     1.15444e+10 
           2355     1.12366e+10 
           2365     1.10071e+10 
           2375     1.07002e+10 
           2385     1.02047e+10 
           2395     1.03147e+10 
           2405     1.03594e+10 
           2415     1.01781e+10 
           2425     1.01597e+10 
           2435       9.9786e+9 
           2445      9.87256e+9 
           2455      9.71854e+9 
           2465      9.60575e+9 
           2475      9.45079e+9 
           2485      8.89781e+9 
           2495      5.88434e+9 
           2505      8.25079e+9 
           2513      8.33555e+9 
           2518       8.4326e+9 
           2525      8.80308e+9 
           2535      8.79474e+9 
           2545      8.54778e+9 
           2555      8.50062e+9 
           2565      8.34056e+9 
           2575      8.31056e+9 
           2585       8.2182e+9 
           2595      8.01736e+9 
           2605      8.02587e+9 
           2615        7.812e+9 
           2625      7.79469e+9 
           2635      7.72154e+9 
           2645      7.57441e+9 
           2655      7.51105e+9 
           2665       7.2983e+9 
           2675      7.07589e+9 
           2685      7.17431e+9 
           2695      7.00861e+9 
           2705      6.95431e+9 
           2715      6.85871e+9 
           2725      6.78715e+9 
           2735      6.61775e+9 
           2745      6.67561e+9 
           2755      6.57066e+9 
           2765      6.47689e+9 
           2775       6.4709e+9 
           2785      6.31135e+9 
           2795      6.05697e+9 
           2805      6.15798e+9 
           2815      6.14046e+9 
           2825      6.06307e+9 
           2835      5.92616e+9 
           2845       5.9367e+9 
           2855      5.82355e+9 
           2865      5.72239e+9 
           2875      5.64892e+9 
           2885      5.59896e+9 
           2895        5.519e+9 
           2910      5.34836e+9 
           2930      5.32913e+9 
           2950      5.18136e+9 
           2970      5.05159e+9 
           2990      4.87299e+9 
           3010      4.68536e+9 
           3030      4.56216e+9 
           3050      4.54424e+9 
           3070      4.47164e+9 
           3090      4.31648e+9 
           3110      4.30594e+9 
           3130      4.16418e+9 
           3150      4.11412e+9 
           3170      4.00014e+9 
           3190       3.9394e+9 
           3210      3.81003e+9 
           3230      3.74097e+9 
           3250        3.694e+9 
           3270      3.55981e+9 
           3290      3.51597e+9 
           3310      3.42719e+9 
           3330      3.33994e+9 
           3350      3.24731e+9 
           3370      3.18788e+9 
           3390      3.16021e+9 
           3410      3.08836e+9 
           3430      3.05408e+9 
           3450      2.95069e+9 
           3470       2.9129e+9 
           3490      2.85619e+9 
           3510      2.79866e+9 
           3530      2.75555e+9 
           3550      2.69242e+9 
           3570      2.63943e+9 
           3590      2.57886e+9 
           3610      2.52836e+9 
           3630      2.47831e+9 
           3640      2.44063e+9 
           3650      2.30573e+9 
           3670      2.27043e+9 
           3690      2.22464e+9 
           3710        2.135e+9 
           3730      2.11526e+9 
           3750       2.1122e+9 
           3770      2.06528e+9 
           3790      2.14008e+9 
           3810      2.17581e+9 
           3830      1.98043e+9 
           3850       2.1563e+9 
           3870      2.06286e+9 
           3890      1.85398e+9 
           3910      2.10324e+9 
           3930      2.02864e+9 
           3950      1.95853e+9 
           3970      1.69829e+9 
           3990       1.9396e+9 
           4010      1.90526e+9 
           4030      1.83086e+9 
           4050      1.84181e+9 
           4070      1.74691e+9 
           4090      1.64402e+9 
           4110      1.52468e+9 
           4130      1.67724e+9 
           4150      1.65676e+9 
           4170      1.65964e+9 
           4190      1.62615e+9 
           4210      1.58995e+9 
           4230      1.57487e+9 
           4250      1.52104e+9 
           4270      1.49093e+9 
           4290      1.45183e+9 
           4310      1.40892e+9 
           4330      1.33497e+9 
           4350      1.25069e+9 
           4370      1.35412e+9 
           4390      1.33381e+9 
           4410      1.31109e+9 
           4430      1.30738e+9 
           4450      1.27984e+9 
           4470       1.2463e+9 
           4490      1.24871e+9 
           4510      1.21531e+9 
           4530      1.20811e+9 
           4550      1.17951e+9 
           4570      1.17536e+9 
           4590      1.15012e+9 
           4610      1.12463e+9 
           4630      1.09828e+9 
           4650      1.03596e+9 
           4670      1.06707e+9 
           4690      1.04835e+9 
           4710      1.03106e+9 
           4730      1.04691e+9 
           4750      1.02733e+9 
           4770         1.02e+9 
           4790      1.00324e+9 
           4810      9.82365e+8 
           4830      9.61876e+8 
           4850      9.14096e+8 
           4870       8.3147e+8 
           4890      9.16013e+8 
           4910        9.048e+8 
           4930      8.82826e+8 
           4950      8.74553e+8 
           4970       8.7363e+8 
           4990      8.60211e+8 
           5010      8.24944e+8 
           5030      8.24398e+8 
           5050      8.14424e+8 
           5070      8.10004e+8 
           5090      7.96076e+8 
           5110      7.83422e+8 
           5130      7.70754e+8 
           5150      7.60277e+8 
           5170      7.48049e+8 
           5190      7.38939e+8 
           5210      7.29043e+8 
           5230      7.19291e+8 
           5250      7.05525e+8 
           5270      6.93899e+8 
           5290      6.89053e+8 
           5310       6.7834e+8 
           5330      6.69347e+8 
           5350       6.6018e+8 
           5370       6.5066e+8 
           5390      6.40095e+8 
           5410       6.2407e+8 
           5430      6.24183e+8 
           5450      6.15057e+8 
           5470      6.06224e+8 
           5490       5.9804e+8 
           5510      5.89438e+8 
           5530      5.81573e+8 
           5550      5.74576e+8 
           5570      5.66134e+8 
           5590      5.56291e+8 
           5610      5.51554e+8 
           5630      5.44207e+8 
           5650      5.36373e+8 
           5670      5.27803e+8 
           5690        5.123e+8 
           5710      4.98746e+8 
           5730      4.93228e+8 
           5750      4.85222e+8 
           5770      4.81174e+8 
           5790      4.74551e+8 
           5810      4.66893e+8 
           5830      4.60791e+8 
           5850       4.5769e+8 
           5870       4.4349e+8 
           5890      4.46043e+8 
           5910      4.42263e+8 
           5930      4.37828e+8 
           5950      4.33581e+8 
           5970      4.30881e+8 
           5990      4.25699e+8 
           6010      4.22161e+8 
           6030      4.16609e+8 
           6050      4.12223e+8 
           6070      4.07619e+8 
           6090      4.02824e+8 
           6110      3.97153e+8 
           6130      3.92541e+8 
           6150      3.86077e+8 
           6170       3.8157e+8 
           6190      3.78351e+8 
           6210       3.7412e+8 
           6230      3.68829e+8 
           6250      3.63695e+8 
           6270      3.60238e+8 
           6290      3.55913e+8 
           6310      3.50198e+8 
           6330      3.47565e+8 
           6350      3.42576e+8 
           6370      3.39454e+8 
           6390      3.35376e+8 
           6410      3.30802e+8 
           6430      3.27517e+8 
           6450      3.23234e+8 
           6470      3.18233e+8 
           6490      3.14271e+8 
           6510      3.09392e+8 
           6530      3.05583e+8 
           6550      2.96949e+8 
           6570      2.67678e+8 
           6590      2.94856e+8 
           6610      2.93592e+8 
           6630       2.9094e+8 
           6650      2.87242e+8 
           6670      2.80424e+8 
           6690      2.76806e+8 
           6710      2.76614e+8 
           6730      2.72885e+8 
           6750      2.70939e+8 
           6770       2.6847e+8 
           6790      2.64586e+8 
           6810      2.62531e+8 
           6830      2.59299e+8 
           6850      2.56567e+8 
           6870      2.53399e+8 
           6890      2.49073e+8 
           6910      2.46521e+8 
           6930      2.45665e+8 
           6950      2.42912e+8 
           6970      2.40287e+8 
           6990      2.37479e+8 
           7010      2.34348e+8 
           7030      2.31545e+8 
           7050      2.29142e+8 
           7070      2.23981e+8 
           7090      2.24885e+8 
           7110      2.21654e+8 
           7130      2.19426e+8 
           7150      2.17766e+8 
           7170      2.14684e+8 
           7190      2.12712e+8 
           7210      2.10881e+8 
           7230      2.06797e+8 
           7250      2.05851e+8 
           7270      2.04235e+8 
           7290      2.00734e+8 
           7310      1.99673e+8 
           7330      1.97785e+8 
           7350      1.95692e+8 
           7370      1.93633e+8 
           7390      1.91731e+8 
           7410      1.89627e+8 
           7430      1.87747e+8 
           7450      1.85526e+8 
           7470      1.82839e+8 
           7490      1.80877e+8 
           7510      1.79928e+8 
           7530      1.77964e+8 
           7550      1.76407e+8 
           7570      1.74543e+8 
           7590      1.71591e+8 
           7610      1.70365e+8 
           7630      1.69078e+8 
           7650      1.67313e+8 
           7670      1.65923e+8 
           7690      1.63424e+8 
           7710      1.62235e+8 
           7730      1.59871e+8 
           7750      1.59222e+8 
           7770      1.57842e+8 
           7790      1.56269e+8 
           7810      1.54765e+8 
           7830      1.53245e+8 
           7850      1.51407e+8 
           7870      1.49562e+8 
           7890      1.48199e+8 
           7910      1.47174e+8 
           7930      1.45762e+8 
           7950      1.44546e+8 
           7970      1.42867e+8 
           7990       1.4161e+8 
           8010      1.40304e+8 
           8030        1.388e+8 
           8050      1.37675e+8 
           8070       1.3634e+8 
           8090      1.34982e+8 
           8110      1.32673e+8 
           8130      1.32483e+8 
           8150      1.31107e+8 
           8170      1.29913e+8 
           8190      1.27718e+8 
           8210      1.25381e+8 
           8230      1.23726e+8 
           8250      1.23238e+8 
           8270      1.21172e+8 
           8290      1.20955e+8 
           8310       1.2015e+8 
           8330      1.18629e+8 
           8350      1.17143e+8 
           8370      1.16465e+8 
           8390      1.15857e+8 
           8410      1.14614e+8 
           8430       1.1379e+8 
           8450      1.12345e+8 
           8470      1.11768e+8 
           8490       1.1063e+8 
           8510      1.09117e+8 
           8530       1.0871e+8 
           8550       1.0748e+8 
           8570      1.07159e+8 
