# Kurucz ODFNEW /NOVER (2003)
# teff = 7500 K (value for the effective temperature for the model. Temperatures are given in K)
# logg = 1 log(cm/s2) (value for Log(G) for the model.)
# meta = 0  (value for the Metallicity for the model.)
# lh = 1.25  (l/Hp where l is the  mixing length of the convective element and Hp is the pressure scale height)
# vtur = 2 km/s (Microturbulence velocity)
# alpha = 0.4  (Alpha)
#
# column 1: WAVELENGTH (ANGSTROM), Wavelength in Angstrom
# column 2: FLUX (ERG/CM2/S/A), Flux in erg/cm2/s/A
            395     3.00611e-23 
            405     2.40151e-22 
            414     9.16283e-23 
            422     3.63774e-22 
            430     1.36778e-21 
            441     7.78095e-21 
            451     3.49371e-20 
            460     1.27244e-19 
            470     5.03119e-19 
            480     1.87122e-18 
            490     6.57574e-18 
            500     2.18804e-17 
            506     5.83098e-17 
            512     1.29551e-16 
            520     3.11401e-16 
            530     9.01509e-16 
            540     2.45791e-15 
            550     6.54513e-15 
            560     1.66693e-14 
            570     4.09556e-14 
            580     9.61545e-14 
            590     2.23732e-13 
            600     4.99261e-13 
            610     1.08432e-12 
            620     2.28792e-12 
            630     4.70508e-12 
            640     9.43939e-12 
            650     1.85181e-11 
            658     3.12242e-11 
            665     4.86287e-11 
            675     9.04068e-11 
            685     1.64814e-10 
            695     2.94512e-10 
            705     5.12895e-10 
            716     9.39149e-10 
            726       1.5894e-9 
            735      2.51746e-9 
            745       4.1306e-9 
            755      6.68831e-9 
            765      1.06808e-8 
            775      1.68273e-8 
            785      2.62123e-8 
            795      3.97446e-8 
            805      6.05941e-8 
            815      9.14904e-8 
            825       1.3583e-7 
            835      1.99343e-7 
            845      2.89739e-7 
            855      4.16826e-7 
            865      5.93976e-7 
            875      8.33492e-7 
            885      1.17315e-6 
            895      1.62765e-6 
            905      2.22558e-6 
            915      0.00243004 
            925      0.00759381 
            935       0.0100721 
            945         0.01375 
            955       0.0200219 
            965        0.027107 
            975          0.0348 
            985       0.0455116 
            995       0.0569342 
           1005       0.0795476 
           1015        0.103377 
           1025        0.127872 
           1035         0.16682 
           1045        0.214914 
           1055        0.272979 
           1065        0.334705 
           1075        0.426762 
           1085        0.534905 
           1095        0.645045 
           1105         2.41676 
           1115          8.6823 
           1125         12.9013 
           1135         17.8465 
           1145         22.4347 
           1155         24.4116 
           1165         32.7009 
           1175           36.81 
           1185         38.7883 
           1195          12.267 
           1205         12.9681 
           1215         2.73802 
           1225          15.449 
           1235         44.0696 
           1245         110.256 
           1255         248.183 
           1265         223.602 
           1275         521.355 
           1285         861.386 
           1295         1115.37 
           1305         605.015 
           1315         1598.79 
           1325         2152.92 
           1335         2323.08 
           1345         3307.22 
           1355         3484.08 
           1365         3761.99 
           1375         4195.66 
           1385         4878.05 
           1395         5840.01 
           1405         6701.84 
           1415         6806.52 
           1425         8124.09 
           1435         8160.73 
           1442         9678.93 
           1447         10785.1 
           1455         12596.5 
           1465         12801.8 
           1475         14179.8 
           1485         16272.9 
           1495         19277.9 
           1505         21607.2 
           1512         21791.6 
           1517         19094.4 
           1525         19158.6 
           1535         36865.1 
           1545          143751 
           1555          120311 
           1565         99438.8 
           1575          192296 
           1585          240698 
           1595          356512 
           1605          277821 
           1615          234973 
           1625          193214 
           1635          215942 
           1645          304318 
           1655          160236 
           1665          239826 
           1672         74743.9 
           1677          728790 
           1685      1.07641e+6 
           1695      1.56683e+6 
           1705       1.4876e+6 
           1715      2.31323e+6 
           1725      2.66415e+6 
           1735      3.48067e+6 
           1745      2.89021e+6 
           1755      4.04308e+6 
           1765       3.0268e+6 
           1775      4.19139e+6 
           1785      3.28297e+6 
           1795      5.34655e+6 
           1805      3.85757e+6 
           1815      4.76255e+6 
           1825      3.70087e+6 
           1835      3.36181e+6 
           1845       3.2895e+6 
           1855      4.08323e+6 
           1865      4.67621e+6 
           1875      4.33221e+6 
           1885      4.64483e+6 
           1895       5.2511e+6 
           1905      4.42719e+6 
           1915      4.89482e+6 
           1925       4.9297e+6 
           1935      3.40716e+6 
           1945      5.66435e+6 
           1955      5.86046e+6 
           1967      6.55371e+6 
           1976      6.18482e+6 
           1984      6.25803e+6 
           1995       6.1186e+6 
           2005      5.72447e+6 
           2015      5.00642e+6 
           2025      4.79678e+6 
           2035      5.92091e+6 
           2045      6.69254e+6 
           2055      5.39149e+6 
           2065      5.29796e+6 
           2074      7.18509e+6 
           2078      7.72586e+6 
           2085       7.3036e+6 
           2095      6.77285e+6 
           2105      6.23679e+6 
           2115       6.2871e+6 
           2125       6.3935e+6 
           2135      4.65549e+6 
           2145      6.05024e+6 
           2155      6.36794e+6 
           2165      5.38479e+6 
           2175      5.61858e+6 
           2185      5.90287e+6 
           2195      6.75052e+6 
           2205      6.25436e+6 
           2215       4.9259e+6 
           2225      4.71218e+6 
           2235      6.49672e+6 
           2245      5.75511e+6 
           2255      4.60452e+6 
           2265      4.58591e+6 
           2275       5.6555e+6 
           2285      5.95475e+6 
           2295      5.34621e+6 
           2305      5.74806e+6 
           2315      5.26359e+6 
           2325      4.88221e+6 
           2335      2.98124e+6 
           2345      2.20666e+6 
           2355      4.08796e+6 
           2365      2.16404e+6 
           2375      3.17687e+6 
           2385      1.62859e+6 
           2395      2.29656e+6 
           2405      2.16195e+6 
           2415      3.11991e+6 
           2425       5.4208e+6 
           2435      5.17089e+6 
           2445      5.66365e+6 
           2455      5.63335e+6 
           2465      5.32839e+6 
           2475      5.00695e+6 
           2485      5.23308e+6 
           2495      5.02788e+6 
           2505      6.67964e+6 
           2513      4.83394e+6 
           2518      5.33924e+6 
           2525      4.11874e+6 
           2535      4.07933e+6 
           2545       4.3046e+6 
           2555      5.35198e+6 
           2565      4.38478e+6 
           2575      5.18417e+6 
           2585      4.58989e+6 
           2595      3.96219e+6 
           2605      3.34714e+6 
           2615      3.12678e+6 
           2625      4.24042e+6 
           2635      5.58321e+6 
           2645      8.56846e+6 
           2655      8.75576e+6 
           2665      6.81879e+6 
           2675      7.63133e+6 
           2685      7.41364e+6 
           2695      7.04751e+6 
           2705      7.51654e+6 
           2715      6.27659e+6 
           2725      6.34222e+6 
           2735      6.78697e+6 
           2745      3.64334e+6 
           2755      4.38687e+6 
           2765      5.03704e+6 
           2775      5.72729e+6 
           2785       3.6664e+6 
           2795      1.23584e+6 
           2805      1.59822e+6 
           2815      4.75415e+6 
           2825      7.12284e+6 
           2835      7.39516e+6 
           2845      7.37492e+6 
           2855      6.47292e+6 
           2865      8.17785e+6 
           2875      7.90867e+6 
           2885      8.25044e+6 
           2895      7.78584e+6 
           2910      9.58362e+6 
           2930      8.93761e+6 
           2950      8.96748e+6 
           2970       9.8371e+6 
           2990      9.97353e+6 
           3010      1.05404e+7 
           3030      1.04321e+7 
           3050      1.03346e+7 
           3070      1.01852e+7 
           3090      1.09017e+7 
           3110      1.04499e+7 
           3130      1.04306e+7 
           3150      1.10002e+7 
           3170      1.08221e+7 
           3190      9.99234e+6 
           3210      1.07775e+7 
           3230      9.98904e+6 
           3250      1.08223e+7 
           3270       1.1215e+7 
           3290      1.14104e+7 
           3310      1.17949e+7 
           3330      1.13445e+7 
           3350      1.11157e+7 
           3370      1.09779e+7 
           3390      1.13516e+7 
           3410       1.1894e+7 
           3430      1.21919e+7 
           3450      1.20667e+7 
           3470      1.18379e+7 
           3490      1.16702e+7 
           3510      1.22286e+7 
           3530      1.24021e+7 
           3550      1.28828e+7 
           3570      1.21571e+7 
           3590      1.22541e+7 
           3610      1.23913e+7 
           3630      1.26008e+7 
           3640      1.22817e+7 
           3650      1.29263e+7 
           3670      1.28501e+7 
           3690      1.40667e+7 
           3710      1.87988e+7 
           3730      2.75001e+7 
           3750      4.17276e+7 
           3770      4.28843e+7 
           3790      5.15809e+7 
           3810      5.67478e+7 
           3830      4.54652e+7 
           3850      5.74098e+7 
           3870      6.02842e+7 
           3890      4.40585e+7 
           3910      5.51882e+7 
           3930      2.95068e+7 
           3950      4.91529e+7 
           3970       2.9159e+7 
           3990      5.60476e+7 
           4010      5.79991e+7 
           4030      5.68125e+7 
           4050      5.64686e+7 
           4070      5.54283e+7 
           4090      5.44529e+7 
           4110      4.37032e+7 
           4130      5.42602e+7 
           4150      5.54709e+7 
           4170      5.31484e+7 
           4190      5.31272e+7 
           4210      5.26406e+7 
           4230      5.16471e+7 
           4250      5.16774e+7 
           4270      5.00911e+7 
           4290      5.03354e+7 
           4310      4.71295e+7 
           4330      4.48385e+7 
           4350      3.90158e+7 
           4370      4.90084e+7 
           4390       4.7347e+7 
           4410      4.60623e+7 
           4430      4.61945e+7 
           4450       4.6446e+7 
           4470      4.63405e+7 
           4490      4.60482e+7 
           4510      4.66001e+7 
           4530      4.45336e+7 
           4550       4.3588e+7 
           4570      4.52041e+7 
           4590      4.32643e+7 
           4610      4.49939e+7 
           4630      4.33073e+7 
           4650      4.38799e+7 
           4670      4.34876e+7 
           4690      4.23245e+7 
           4710      4.07958e+7 
           4730      4.21673e+7 
           4750      4.23039e+7 
           4770      4.12578e+7 
           4790      4.09567e+7 
           4810      4.04051e+7 
           4830      3.99904e+7 
           4850      3.56301e+7 
           4870      2.88684e+7 
           4890      3.83944e+7 
           4910      3.83385e+7 
           4930      3.73011e+7 
           4950      3.78444e+7 
           4970      3.80025e+7 
           4990      3.62703e+7 
           5010      3.45659e+7 
           5030      3.55021e+7 
           5050      3.51846e+7 
           5070      3.54835e+7 
           5090      3.51049e+7 
           5110      3.48566e+7 
           5130      3.38166e+7 
           5150      3.32107e+7 
           5170      3.24849e+7 
           5190      3.20812e+7 
           5210       3.2131e+7 
           5230      3.17356e+7 
           5250      3.21421e+7 
           5270      3.01311e+7 
           5290      3.15259e+7 
           5310       3.0677e+7 
           5330      2.98544e+7 
           5350      3.08636e+7 
           5370      3.04943e+7 
           5390      2.98794e+7 
           5410      2.93217e+7 
           5430      2.91508e+7 
           5450      2.95016e+7 
           5470      2.91365e+7 
           5490      2.88208e+7 
           5510       2.8504e+7 
           5530      2.82933e+7 
           5550      2.83906e+7 
           5570      2.79309e+7 
           5590      2.76012e+7 
           5610      2.75208e+7 
           5630      2.74291e+7 
           5650      2.68883e+7 
           5670      2.64856e+7 
           5690      2.65872e+7 
           5710      2.63423e+7 
           5730      2.63618e+7 
           5750      2.59327e+7 
           5770      2.58064e+7 
           5790      2.54778e+7 
           5810      2.52971e+7 
           5830      2.50718e+7 
           5850      2.48379e+7 
           5870       2.4646e+7 
           5890      2.40347e+7 
           5910      2.41689e+7 
           5930      2.39505e+7 
           5950      2.36365e+7 
           5970      2.35524e+7 
           5990       2.3156e+7 
           6010        2.295e+7 
           6030       2.2855e+7 
           6050      2.25744e+7 
           6070      2.25363e+7 
           6090      2.22474e+7 
           6110      2.19587e+7 
           6130      2.16141e+7 
           6150      2.10056e+7 
           6170      2.11655e+7 
           6190      2.13279e+7 
           6210      2.11429e+7 
           6230      2.07841e+7 
           6250      2.00909e+7 
           6270      2.06501e+7 
           6290      2.04714e+7 
           6310      2.00295e+7 
           6330      2.00132e+7 
           6350      1.96379e+7 
           6370      1.95287e+7 
           6390      1.95182e+7 
           6410      1.91839e+7 
           6430      1.91513e+7 
           6450      1.86271e+7 
           6470      1.88532e+7 
           6490      1.83839e+7 
           6510      1.83822e+7 
           6530      1.82724e+7 
           6550      1.68236e+7 
           6570      1.32739e+7 
           6590      1.76089e+7 
           6610      1.76638e+7 
           6630      1.76945e+7 
           6650      1.75746e+7 
           6670      1.73881e+7 
           6690      1.72691e+7 
           6710      1.71253e+7 
           6730      1.69397e+7 
           6750      1.67361e+7 
           6770      1.67689e+7 
           6790      1.65681e+7 
           6810      1.64872e+7 
           6830      1.62648e+7 
           6850      1.61723e+7 
           6870      1.60927e+7 
           6890      1.59645e+7 
           6910      1.58312e+7 
           6930      1.56826e+7 
           6950        1.558e+7 
           6970      1.54318e+7 
           6990      1.53336e+7 
           7010      1.49871e+7 
           7030      1.50575e+7 
           7050      1.49631e+7 
           7070      1.48552e+7 
           7090       1.4752e+7 
           7110      1.43546e+7 
           7130      1.44298e+7 
           7150      1.43043e+7 
           7170      1.42187e+7 
           7190      1.40778e+7 
           7210       1.3973e+7 
           7230      1.38439e+7 
           7250      1.37289e+7 
           7270      1.37098e+7 
           7290      1.35248e+7 
           7310      1.34072e+7 
           7330      1.33362e+7 
           7350      1.32588e+7 
           7370      1.32293e+7 
           7390      1.30764e+7 
           7410      1.28934e+7 
           7430       1.2749e+7 
           7450      1.27044e+7 
           7470      1.25527e+7 
           7490      1.25214e+7 
           7510      1.24487e+7 
           7530      1.24026e+7 
           7550      1.23681e+7 
           7570      1.22009e+7 
           7590      1.21727e+7 
           7610      1.20834e+7 
           7630      1.20007e+7 
           7650      1.18479e+7 
           7670      1.17408e+7 
           7690      1.16721e+7 
           7710      1.15679e+7 
           7730      1.15453e+7 
           7750      1.14513e+7 
           7770      1.10811e+7 
           7790      1.13222e+7 
           7810       1.1218e+7 
           7830      1.11018e+7 
           7850      1.09658e+7 
           7870       1.0904e+7 
           7890      1.07811e+7 
           7910      1.07459e+7 
           7930       1.0645e+7 
           7950       1.0514e+7 
           7970      1.05983e+7 
           7990      1.03329e+7 
           8010      1.04282e+7 
           8030      1.03325e+7 
           8050      1.02812e+7 
           8070      1.01985e+7 
           8090      1.01314e+7 
           8110      1.00723e+7 
           8130        1.002e+7 
           8150      9.94875e+6 
           8170      9.87753e+6 
           8190      9.66198e+6 
           8210      9.60322e+6 
           8230      9.53714e+6 
           8250      9.50811e+6 
           8270      9.58006e+6 
           8290      9.48455e+6 
           8310      9.36367e+6 
           8330      9.17923e+6 
           8350       9.2585e+6 
           8370      9.02072e+6 
           8390      9.05001e+6 
           8410      9.01235e+6 
           8430         9.24e+6 
           8450      9.00637e+6 
           8470      8.78954e+6 
           8490      9.46474e+6 
           8510      8.40747e+6 
           8530       9.6071e+6 
           8550      7.50083e+6 
           8570      1.00101e+7 
           8590      9.41107e+6 
           8610      9.12957e+6 
           8630      1.02871e+7 
           8650       1.0006e+7 
           8670      7.52167e+6 
           8690      9.88816e+6 
           8710      1.02644e+7 
           8730      1.00489e+7 
           8750      8.15039e+6 
           8770      9.82761e+6 
           8790      1.00404e+7 
           8810      9.92544e+6 
           8830      9.68822e+6 
           8850       9.3025e+6 
           8870      7.89832e+6 
           8890      9.55217e+6 
           8910      9.56391e+6 
           8930      9.47624e+6 
           8950      9.52846e+6 
           8970      9.42562e+6 
           8990      9.25787e+6 
           9010      7.76847e+6 
           9030      8.56295e+6 
           9050      9.14748e+6 
           9070      8.87959e+6 
           9090       8.7439e+6 
           9110      8.89393e+6 
           9130      8.91557e+6 
           9150      8.91038e+6 
           9170      8.81376e+6 
           9190      8.67999e+6 
           9210      8.42426e+6 
           9230      6.81176e+6 
           9250      8.10543e+6 
           9270      8.19281e+6 
           9290      8.46706e+6 
           9310      8.42464e+6 
           9330      8.33013e+6 
           9350       8.3122e+6 
           9370      8.27246e+6 
           9390      8.13984e+6 
           9410      7.84022e+6 
           9430      7.96799e+6 
           9450      7.97606e+6 
           9470      7.97097e+6 
           9490      7.92654e+6 
           9510        7.837e+6 
