# Kurucz ODFNEW /NOVER (2003)
# teff = 29000 K (value for the effective temperature for the model. Temperatures are given in K)
# logg = 5 log(cm/s2) (value for Log(G) for the model.)
# meta = -1  (value for the Metallicity for the model.)
# lh = 1.25  (l/Hp where l is the  mixing length of the convective element and Hp is the pressure scale height)
# vtur = 2 km/s (Microturbulence velocity)
# alpha = 0.4  (Alpha)
#
# column 1: WAVELENGTH (ANGSTROM), Wavelength in Angstrom
# column 2: FLUX (ERG/CM2/S/A), Flux in erg/cm2/s/A
          147.2     6.27933e-10 
            151      2.17238e-9 
          155.2      8.02334e-9 
          158.8      2.33709e-8 
            162      5.82665e-8 
            166      1.74201e-7 
          170.3      5.35112e-7 
          173.4      1.16326e-6 
          176.8        2.644e-6 
          180.2      5.83006e-6 
          181.7      8.18697e-6 
          186.1      2.15095e-5 
            191      5.98961e-5 
          193.9     0.000107165 
          198.4      0.00025552 
          201.8     0.000480005 
            205     0.000852309 
          210.5      0.00219515 
          216.2       0.0055557 
          219.8       0.0097356 
            223       0.0157816 
          226.8       0.0275343 
            230         2.95572 
            234         6.97097 
            240         13.7971 
          246.5         27.9579 
          252.4         52.0378 
          256.8          74.539 
            260          109.97 
            264         154.198 
          268.5         235.217 
          273.5         362.324 
          278.5         546.426 
            284         885.353 
            290         1389.55 
            296         2146.11 
            301         3007.07 
            308         4625.72 
            318          9481.2 
            328         16713.7 
            338           29947 
            348         50360.6 
            357           93818 
            366          149338 
            375          213294 
            385          325910 
            395          486676 
            405          691377 
            414          954044 
            422       1.2048e+6 
            430      1.55325e+6 
            441      2.14515e+6 
            451      2.86268e+6 
            460      3.58445e+6 
            470      4.64747e+6 
            480      5.88754e+6 
            490      7.43134e+6 
            500       9.3242e+6 
            506      4.23084e+7 
            512      1.80501e+8 
            520      1.94021e+8 
            530      2.24536e+8 
            540      2.18777e+8 
            550       2.7523e+8 
            560      2.99678e+8 
            570      3.33131e+8 
            580      3.20287e+8 
            590      3.78721e+8 
            600      4.00945e+8 
            610      4.38873e+8 
            620      4.66923e+8 
            630      4.97323e+8 
            640      5.00859e+8 
            650      5.49419e+8 
            658      5.76487e+8 
            665      6.02537e+8 
            675      6.14426e+8 
            685      6.28515e+8 
            695      7.17582e+8 
            705      7.24535e+8 
            716      7.90119e+8 
            726      8.12246e+8 
            735      8.47288e+8 
            745      9.04314e+8 
            755      9.41055e+8 
            765      9.82017e+8 
            775      1.02947e+9 
            785      1.08087e+9 
            795      1.10773e+9 
            805       1.1466e+9 
            815      1.17501e+9 
            825      1.23365e+9 
            835      1.19266e+9 
            845      1.29107e+9 
            855      1.32526e+9 
            865      1.37742e+9 
            875      1.42829e+9 
            885      1.48263e+9 
            895      1.52587e+9 
            905      1.54027e+9 
            915      1.72304e+9 
            925      6.61679e+9 
            935     1.49171e+10 
            945      3.6462e+10 
            955     4.92255e+10 
            965     6.63223e+10 
            975     2.33114e+10 
            985     7.14377e+10 
            995     6.57395e+10 
           1005     6.96261e+10 
           1015     6.40958e+10 
           1025     2.35018e+10 
           1035     5.62619e+10 
           1045     7.13113e+10 
           1055      6.8639e+10 
           1065     5.99691e+10 
           1075     6.31357e+10 
           1085     5.71546e+10 
           1095     6.21449e+10 
           1105     5.81898e+10 
           1115     5.69052e+10 
           1125     4.99419e+10 
           1135     5.53005e+10 
           1145     5.02095e+10 
           1155     5.12839e+10 
           1165     5.06377e+10 
           1175     3.98989e+10 
           1185     4.72527e+10 
           1195     4.40539e+10 
           1205     3.62453e+10 
           1215     1.64082e+10 
           1225     3.71049e+10 
           1235     4.21875e+10 
           1245     4.13739e+10 
           1255     4.07794e+10 
           1265     4.01749e+10 
           1275     4.00385e+10 
           1285     3.91052e+10 
           1295     3.40377e+10 
           1305     3.45798e+10 
           1315     3.65395e+10 
           1325     3.49407e+10 
           1335     3.37259e+10 
           1345     3.31784e+10 
           1355     3.33204e+10 
           1365     3.14247e+10 
           1375     3.09952e+10 
           1385     3.05001e+10 
           1395     2.57977e+10 
           1405     2.64261e+10 
           1415     2.81687e+10 
           1425      2.7105e+10 
           1435     2.70908e+10 
           1442     2.72542e+10 
           1447     2.68053e+10 
           1455     2.61732e+10 
           1465     2.53695e+10 
           1475     2.49211e+10 
           1485     2.44345e+10 
           1495     2.38576e+10 
           1505     2.25486e+10 
           1512     2.19926e+10 
           1517     2.20345e+10 
           1525     2.17343e+10 
           1535     2.00338e+10 
           1545     1.96775e+10 
           1555     1.89594e+10 
           1565       1.939e+10 
           1575     1.95258e+10 
           1585     1.92247e+10 
           1595     1.90451e+10 
           1605     1.82923e+10 
           1615     1.77804e+10 
           1625     1.77249e+10 
           1635     1.76906e+10 
           1645     1.70933e+10 
           1655     1.71968e+10 
           1665     1.69392e+10 
           1672     1.65376e+10 
           1677      1.6995e+10 
           1685     1.65979e+10 
           1695     1.61194e+10 
           1705     1.56574e+10 
           1715     1.51807e+10 
           1725     1.48432e+10 
           1735     1.48753e+10 
           1745     1.46014e+10 
           1755      1.4444e+10 
           1765     1.39785e+10 
           1775     1.36756e+10 
           1785     1.35452e+10 
           1795     1.34988e+10 
           1805     1.33762e+10 
           1815     1.28759e+10 
           1825     1.27883e+10 
           1835     1.25329e+10 
           1845     1.17556e+10 
           1855      1.1627e+10 
           1865     1.16618e+10 
           1875     1.16481e+10 
           1885     1.09227e+10 
           1895     1.04187e+10 
           1905      1.0763e+10 
           1915     1.03479e+10 
           1925     1.00098e+10 
           1935     1.02095e+10 
           1945     1.02661e+10 
           1955      9.60821e+9 
           1967      9.82843e+9 
           1976     1.00112e+10 
           1984      9.52941e+9 
           1995      9.25849e+9 
           2005      9.32943e+9 
           2015      9.30637e+9 
           2025      9.29094e+9 
           2035      8.90019e+9 
           2045      8.79039e+9 
           2055      8.32716e+9 
           2065      8.25846e+9 
           2074      8.38864e+9 
           2078      8.11113e+9 
           2085      8.12218e+9 
           2095      7.92672e+9 
           2105       8.0854e+9 
           2115      8.05072e+9 
           2125      8.01184e+9 
           2135      7.86415e+9 
           2145      7.67407e+9 
           2155      7.64487e+9 
           2165      7.54138e+9 
           2175      7.42035e+9 
           2185      7.31715e+9 
           2195      7.24602e+9 
           2205      7.13884e+9 
           2215      7.03129e+9 
           2225      6.91786e+9 
           2235      6.80383e+9 
           2245      6.74006e+9 
           2255      6.61403e+9 
           2265      6.54981e+9 
           2275      6.45851e+9 
           2285      6.36365e+9 
           2295      6.12656e+9 
           2305      6.17087e+9 
           2315      6.08365e+9 
           2325      6.00349e+9 
           2335      5.89904e+9 
           2345      5.84521e+9 
           2355      5.77081e+9 
           2365      5.69389e+9 
           2375      5.60436e+9 
           2385      5.51972e+9 
           2395      5.44994e+9 
           2405      5.38218e+9 
           2415      5.30146e+9 
           2425      5.24495e+9 
           2435      5.15386e+9 
           2445      5.09635e+9 
           2455      5.03504e+9 
           2465      4.97232e+9 
           2475      4.90221e+9 
           2485      4.83733e+9 
           2495      4.51529e+9 
           2505      4.69826e+9 
           2513      4.57408e+9 
           2518      4.60406e+9 
           2525      4.58826e+9 
           2535       4.5332e+9 
           2545      4.42261e+9 
           2555      4.39516e+9 
           2565       4.3475e+9 
           2575      4.30471e+9 
           2585      4.25264e+9 
           2595      4.19934e+9 
           2605      4.16716e+9 
           2615      4.11458e+9 
           2625      4.06536e+9 
           2635      4.01383e+9 
           2645      3.96125e+9 
           2655      3.90918e+9 
           2665      3.84292e+9 
           2675      3.79524e+9 
           2685      3.77334e+9 
           2695      3.68538e+9 
           2705      3.66951e+9 
           2715      3.62929e+9 
           2725      3.55689e+9 
           2735      3.53687e+9 
           2745       3.4949e+9 
           2755      3.45756e+9 
           2765      3.38667e+9 
           2775       3.3831e+9 
           2785      3.33879e+9 
           2795      3.24159e+9 
           2805      3.24155e+9 
           2815      3.22583e+9 
           2825      3.15238e+9 
           2835      3.10318e+9 
           2845      3.11399e+9 
           2855       3.0728e+9 
           2865      3.03895e+9 
           2875       3.0044e+9 
           2885      2.97166e+9 
           2895      2.93606e+9 
           2910      2.88176e+9 
           2930      2.81846e+9 
           2950      2.73098e+9 
           2970      2.69505e+9 
           2990       2.6329e+9 
           3010      2.56897e+9 
           3030      2.51838e+9 
           3050      2.46615e+9 
           3070      2.41469e+9 
           3090      2.34455e+9 
           3110      2.31029e+9 
           3130      2.25875e+9 
           3150      2.21254e+9 
           3170      2.16578e+9 
           3190      2.10065e+9 
           3210      2.07649e+9 
           3230      2.03146e+9 
           3250      1.99131e+9 
           3270       1.9518e+9 
           3290      1.90939e+9 
           3310      1.87404e+9 
           3330      1.83539e+9 
           3350      1.79618e+9 
           3370      1.76255e+9 
           3390      1.72907e+9 
           3410      1.69517e+9 
           3430        1.655e+9 
           3450      1.61659e+9 
           3470      1.58903e+9 
           3490      1.55816e+9 
           3510      1.53063e+9 
           3530       1.5033e+9 
           3550      1.47544e+9 
           3570      1.45736e+9 
           3590      1.41588e+9 
           3610      1.39697e+9 
           3630      1.36489e+9 
           3640      1.36514e+9 
           3650      1.33835e+9 
           3670      1.32059e+9 
           3690      1.29768e+9 
           3710      1.25441e+9 
           3730      1.21476e+9 
           3750      1.19718e+9 
           3770      1.16025e+9 
           3790      1.19737e+9 
           3810      1.24037e+9 
           3830      1.08808e+9 
           3850      1.27195e+9 
           3870      1.29402e+9 
           3890      1.01855e+9 
           3910      1.27392e+9 
           3930      1.26567e+9 
           3950       1.2312e+9 
           3970       9.4514e+8 
           3990      1.17803e+9 
           4010      1.18674e+9 
           4030      1.10749e+9 
           4050      1.16141e+9 
           4070      1.12044e+9 
           4090      1.01003e+9 
           4110      8.85996e+8 
           4130      1.05309e+9 
           4150      1.05097e+9 
           4170      1.04637e+9 
           4190      1.02988e+9 
           4210      1.01581e+9 
           4230      9.97571e+8 
           4250      9.76295e+8 
           4270      9.53121e+8 
           4290      9.39055e+8 
           4310      9.12777e+8 
           4330      8.09845e+8 
           4350      7.38627e+8 
           4370      8.65316e+8 
           4390      8.36964e+8 
           4410      8.49555e+8 
           4430      8.38407e+8 
           4450      8.25789e+8 
           4470      7.68075e+8 
           4490      7.97425e+8 
           4510      7.89146e+8 
           4530      7.76539e+8 
           4550      7.62576e+8 
           4570      7.49855e+8 
           4590      7.37737e+8 
           4610      7.26227e+8 
           4630       7.1545e+8 
           4650      6.96747e+8 
           4670      6.91811e+8 
           4690      6.82001e+8 
           4710       6.5924e+8 
           4730      6.61927e+8 
           4750      6.50872e+8 
           4770      6.43173e+8 
           4790      6.32559e+8 
           4810      6.20113e+8 
           4830      6.04039e+8 
           4850      5.47321e+8 
           4870       4.8932e+8 
           4890      5.74844e+8 
           4910      5.73327e+8 
           4930      5.50054e+8 
           4950      5.59225e+8 
           4970      5.52857e+8 
           4990      5.44606e+8 
           5010      5.27644e+8 
           5030      5.28564e+8 
           5050      5.17191e+8 
           5070      5.13647e+8 
           5090      5.06012e+8 
           5110      4.98683e+8 
           5130      4.91309e+8 
           5150      4.84319e+8 
           5170      4.77549e+8 
           5190       4.7098e+8 
           5210      4.64068e+8 
           5230      4.57881e+8 
           5250       4.5146e+8 
           5270      4.45083e+8 
           5290      4.38937e+8 
           5310      4.32818e+8 
           5330      4.26817e+8 
           5350      4.20842e+8 
           5370      4.15231e+8 
           5390      4.09458e+8 
           5410      4.03862e+8 
           5430      3.98388e+8 
           5450      3.92945e+8 
           5470      3.87672e+8 
           5490      3.82515e+8 
           5510      3.77435e+8 
           5530      3.72345e+8 
           5550      3.67453e+8 
           5570      3.62548e+8 
           5590      3.57788e+8 
           5610      3.53027e+8 
           5630      3.48443e+8 
           5650      3.43668e+8 
           5670      3.38998e+8 
           5690       3.3435e+8 
           5710      3.30475e+8 
           5730      3.26313e+8 
           5750      3.21688e+8 
           5770      3.18025e+8 
           5790      3.13944e+8 
           5810      3.09934e+8 
           5830      3.05927e+8 
           5850      3.02088e+8 
           5870      2.87624e+8 
           5890      2.93297e+8 
           5910      2.90711e+8 
           5930      2.87061e+8 
           5950      2.83432e+8 
           5970       2.8013e+8 
           5990       2.7653e+8 
           6010      2.73201e+8 
           6030      2.69796e+8 
           6050      2.66533e+8 
           6070      2.63287e+8 
           6090      2.60067e+8 
           6110      2.56924e+8 
           6130      2.53807e+8 
           6150      2.50585e+8 
           6170      2.47657e+8 
           6190      2.44732e+8 
           6210       2.4181e+8 
           6230       2.3893e+8 
           6250      2.36044e+8 
           6270      2.33266e+8 
           6290      2.30518e+8 
           6310      2.27763e+8 
           6330      2.25113e+8 
           6350      2.22352e+8 
           6370      2.19844e+8 
           6390      2.17298e+8 
           6410      2.14761e+8 
           6430      2.12307e+8 
           6450      2.09851e+8 
           6470      2.07314e+8 
           6490      2.04911e+8 
           6510      2.02089e+8 
           6530      1.98592e+8 
           6550       1.8737e+8 
           6570        1.658e+8 
           6590      1.89856e+8 
           6610      1.90554e+8 
           6630      1.89081e+8 
           6650      1.87187e+8 
           6670      1.82755e+8 
           6690      1.80805e+8 
           6710      1.81051e+8 
           6730      1.78945e+8 
           6750      1.77085e+8 
           6770      1.75127e+8 
           6790      1.73019e+8 
           6810      1.71273e+8 
           6830      1.69367e+8 
           6850       1.6756e+8 
           6870      1.65732e+8 
           6890       1.6389e+8 
           6910      1.62083e+8 
           6930      1.60404e+8 
           6950      1.58686e+8 
           6970      1.56978e+8 
           6990      1.55295e+8 
           7010      1.53635e+8 
           7030      1.51993e+8 
           7050      1.50381e+8 
           7070      1.46245e+8 
           7090       1.4722e+8 
           7110      1.45655e+8 
           7130      1.44128e+8 
           7150      1.42615e+8 
           7170      1.41117e+8 
           7190      1.39663e+8 
           7210      1.38208e+8 
           7230      1.36197e+8 
           7250      1.35304e+8 
           7270      1.33954e+8 
           7290       1.3142e+8 
           7310      1.31202e+8 
           7330       1.2987e+8 
           7350      1.28544e+8 
           7370      1.27237e+8 
           7390      1.25942e+8 
           7410      1.24666e+8 
           7430      1.23395e+8 
           7450      1.22177e+8 
           7470      1.20828e+8 
           7490      1.19727e+8 
           7510      1.18496e+8 
           7530      1.17342e+8 
           7550       1.1618e+8 
           7570      1.15027e+8 
           7590      1.13886e+8 
           7610      1.12728e+8 
           7630      1.11653e+8 
           7650      1.10548e+8 
           7670      1.09467e+8 
           7690      1.08395e+8 
           7710      1.07339e+8 
           7730      1.06286e+8 
           7750      1.05262e+8 
           7770      1.04146e+8 
           7790      1.03234e+8 
           7810      1.02187e+8 
           7830      1.01254e+8 
           7850      1.00353e+8 
           7870      9.93633e+7 
           7890      9.83397e+7 
           7910      9.75179e+7 
           7930      9.65893e+7 
           7950       9.5633e+7 
           7970      9.46555e+7 
           7990      9.37986e+7 
           8010      9.28552e+7 
           8030      9.19142e+7 
           8050      9.10511e+7 
           8070      9.02417e+7 
           8090      8.92837e+7 
           8110        8.842e+7 
           8130       8.7769e+7 
           8150       8.6902e+7 
           8170      8.61779e+7 
           8190      8.52296e+7 
           8210      8.43007e+7 
           8230      8.36745e+7 
           8250      8.29704e+7 
           8270      8.18094e+7 
           8290      8.14371e+7 
           8310      8.07455e+7 
           8330      7.99674e+7 
           8350      7.89093e+7 
           8370      7.84251e+7 
           8390       7.7843e+7 
           8410      7.71376e+7 
           8430      7.64115e+7 
           8450      7.52166e+7 
           8470      7.50666e+7 
           8490      7.42325e+7 
           8510      7.37019e+7 
           8530      7.28804e+7 
           8550      7.21739e+7 
           8570      7.18939e+7 
           8590      6.99819e+7 
