# Kurucz ODFNEW /NOVER (2003)
# teff = 24000 K (value for the effective temperature for the model. Temperatures are given in K)
# logg = 3 log(cm/s2) (value for Log(G) for the model.)
# meta = -0.5  (value for the Metallicity for the model.)
# lh = 1.25  (l/Hp where l is the  mixing length of the convective element and Hp is the pressure scale height)
# vtur = 2 km/s (Microturbulence velocity)
# alpha = 0.4  (Alpha)
#
# column 1: WAVELENGTH (ANGSTROM), Wavelength in Angstrom
# column 2: FLUX (ERG/CM2/S/A), Flux in erg/cm2/s/A
          147.2     4.00865e-15 
            151      1.8791e-14 
          155.2     9.56954e-14 
          158.8     3.62829e-13 
            162     1.13359e-12 
            166     4.44485e-12 
          170.3     1.80323e-11 
          173.4     4.75555e-11 
          176.8      1.3255e-10 
          180.2     3.55869e-10 
          181.7     5.43843e-10 
          186.1      1.81723e-9 
            191      6.53104e-9 
          193.9      1.35082e-8 
          198.4          4.0e-8 
          201.8      8.79527e-8 
            205      1.80247e-7 
          210.5      5.87774e-7 
          216.2      1.87573e-6 
          219.8      3.78141e-6 
            223      6.91581e-6 
          226.8      1.38898e-5 
            230      0.00130274 
            234      0.00306098 
            240      0.00717225 
          246.5         0.01746 
          252.4       0.0379741 
          256.8       0.0613827 
            260        0.100324 
            264        0.156127 
          268.5        0.265704 
          273.5        0.460397 
          278.5        0.775585 
            284         1.49835 
            290         2.66152 
            296         4.64548 
            301         7.15944 
            308         13.5217 
            318         33.2639 
            328           69.11 
            338         147.676 
            348          291.04 
            357         1448.93 
            366         3033.67 
            375         4639.16 
            385         7937.43 
            395         15267.2 
            405         23190.6 
            414         35110.9 
            422         46436.4 
            430         64761.2 
            441           96764 
            451          134825 
            460          176650 
            470          246554 
            480          330243 
            490          445532 
            500          588647 
            506      4.09606e+6 
            512      2.14647e+7 
            520        2.309e+7 
            530      2.65172e+7 
            540      2.64705e+7 
            550      3.92147e+7 
            560      4.71681e+7 
            570      5.48177e+7 
            580         5.12e+7 
            590      6.73557e+7 
            600      7.24744e+7 
            610      8.63126e+7 
            620      9.65541e+7 
            630      1.04429e+8 
            640      1.03113e+8 
            650      9.53816e+7 
            658      1.24148e+8 
            665      1.38084e+8 
            675      1.39662e+8 
            685      1.39965e+8 
            695      1.79495e+8 
            705      1.75439e+8 
            716      2.05114e+8 
            726      2.08401e+8 
            735      2.21034e+8 
            745      2.49241e+8 
            755      2.62794e+8 
            765      2.82072e+8 
            775      3.02343e+8 
            785      3.23514e+8 
            795      3.34489e+8 
            805       3.4763e+8 
            815      3.55151e+8 
            825      3.86834e+8 
            835      3.30291e+8 
            845      4.01335e+8 
            855      4.12358e+8 
            865      4.37378e+8 
            875      4.63707e+8 
            885      4.98025e+8 
            895      5.20397e+8 
            905      5.22345e+8 
            915      1.05991e+9 
            925      9.20133e+9 
            935     1.48632e+10 
            945     1.88638e+10 
            955      2.0038e+10 
            965     2.09728e+10 
            975      6.52582e+9 
            985      1.6867e+10 
            995     1.69954e+10 
           1005     1.91668e+10 
           1015     1.96464e+10 
           1025     1.56494e+10 
           1035     1.69391e+10 
           1045     2.22696e+10 
           1055     2.08212e+10 
           1065     1.74962e+10 
           1075     1.97169e+10 
           1085     1.82783e+10 
           1095      2.0179e+10 
           1105     1.82906e+10 
           1115     1.76964e+10 
           1125     1.43432e+10 
           1135      1.8815e+10 
           1145     1.74008e+10 
           1155      1.7809e+10 
           1165      1.7843e+10 
           1175     1.16439e+10 
           1185     1.68541e+10 
           1195     1.58672e+10 
           1205     1.07677e+10 
           1215     1.17728e+10 
           1225     1.55075e+10 
           1235     1.65134e+10 
           1245      1.6028e+10 
           1255     1.59432e+10 
           1265     1.60113e+10 
           1275     1.63971e+10 
           1285     1.60744e+10 
           1295     1.19047e+10 
           1305     1.31238e+10 
           1315     1.56642e+10 
           1325     1.48979e+10 
           1335     1.45094e+10 
           1345     1.44842e+10 
           1355     1.45213e+10 
           1365      1.3684e+10 
           1375     1.33149e+10 
           1385     1.28859e+10 
           1395      8.44242e+9 
           1405      9.63682e+9 
           1415     1.20711e+10 
           1425      1.1721e+10 
           1435     1.21389e+10 
           1442     1.23716e+10 
           1447     1.21529e+10 
           1455     1.17984e+10 
           1465     1.12414e+10 
           1475     1.13392e+10 
           1485     1.12184e+10 
           1495     1.09572e+10 
           1505     1.02863e+10 
           1512      9.52212e+9 
           1517      9.78408e+9 
           1525      9.85988e+9 
           1535      8.62829e+9 
           1545      8.42842e+9 
           1555      8.11269e+9 
           1565      8.74227e+9 
           1575      9.19763e+9 
           1585      9.09243e+9 
           1595      9.08688e+9 
           1605       8.8415e+9 
           1615      8.62359e+9 
           1625       8.5981e+9 
           1635      8.91602e+9 
           1645      8.84206e+9 
           1655      8.76964e+9 
           1665      8.72441e+9 
           1672       8.4138e+9 
           1677      9.12256e+9 
           1685      8.79943e+9 
           1695      8.40389e+9 
           1705      8.20828e+9 
           1715      7.82643e+9 
           1725      7.73102e+9 
           1735      7.90497e+9 
           1745      7.78085e+9 
           1755      7.77622e+9 
           1765      7.69658e+9 
           1775      7.30088e+9 
           1785      7.36722e+9 
           1795      7.46145e+9 
           1805      7.49637e+9 
           1815      6.89892e+9 
           1825      7.08084e+9 
           1835      6.92791e+9 
           1845      6.36174e+9 
           1855      6.44837e+9 
           1865      6.54652e+9 
           1875      6.64298e+9 
           1885       6.0363e+9 
           1895      5.64073e+9 
           1905      6.04382e+9 
           1915      5.77613e+9 
           1925      5.50705e+9 
           1935      5.80465e+9 
           1945      5.91132e+9 
           1955      5.36397e+9 
           1967      5.74419e+9 
           1976      5.99446e+9 
           1984      5.59449e+9 
           1995      5.48403e+9 
           2005      5.62448e+9 
           2015      5.61082e+9 
           2025      5.71228e+9 
           2035       5.2732e+9 
           2045      5.32328e+9 
           2055      5.03011e+9 
           2065      5.02427e+9 
           2074      5.30962e+9 
           2078      4.92278e+9 
           2085      5.14759e+9 
           2095      4.90089e+9 
           2105      5.04267e+9 
           2115      5.04849e+9 
           2125      5.09286e+9 
           2135       5.0151e+9 
           2145      4.77202e+9 
           2155      4.93063e+9 
           2165      4.89395e+9 
           2175      4.82102e+9 
           2185      4.71789e+9 
           2195       4.7392e+9 
           2205      4.70739e+9 
           2215      4.64571e+9 
           2225      4.53997e+9 
           2235      4.46059e+9 
           2245      4.48164e+9 
           2255      4.37767e+9 
           2265      4.38169e+9 
           2275      4.33037e+9 
           2285      4.29493e+9 
           2295      3.97234e+9 
           2305      4.16712e+9 
           2315      4.07967e+9 
           2325      4.03322e+9 
           2335      3.94257e+9 
           2345       3.9676e+9 
           2355      3.93322e+9 
           2365      3.89606e+9 
           2375      3.82144e+9 
           2385      3.78595e+9 
           2395      3.73529e+9 
           2405      3.69563e+9 
           2415      3.63583e+9 
           2425      3.62352e+9 
           2435      3.54324e+9 
           2445      3.52869e+9 
           2455      3.50956e+9 
           2465      3.46267e+9 
           2475      3.40381e+9 
           2485       3.3273e+9 
           2495      2.66372e+9 
           2505      3.19759e+9 
           2513      3.15084e+9 
           2518       3.2059e+9 
           2525      3.20901e+9 
           2535      3.18878e+9 
           2545      3.06757e+9 
           2555      3.09346e+9 
           2565      3.05255e+9 
           2575      3.04923e+9 
           2585      3.01041e+9 
           2595      2.98171e+9 
           2605      2.96064e+9 
           2615      2.91865e+9 
           2625      2.89345e+9 
           2635      2.86133e+9 
           2645      2.82772e+9 
           2655       2.8008e+9 
           2665      2.73547e+9 
           2675      2.72085e+9 
           2685      2.71191e+9 
           2695      2.63907e+9 
           2705      2.61686e+9 
           2715      2.60232e+9 
           2725      2.57052e+9 
           2735      2.54879e+9 
           2745       2.5175e+9 
           2755      2.49718e+9 
           2765      2.46096e+9 
           2775      2.45979e+9 
           2785      2.42191e+9 
           2795      2.34549e+9 
           2805      2.36159e+9 
           2815      2.35497e+9 
           2825      2.32185e+9 
           2835      2.26838e+9 
           2845      2.27992e+9 
           2855      2.24165e+9 
           2865      2.22759e+9 
           2875      2.20373e+9 
           2885      2.18541e+9 
           2895      2.15532e+9 
           2910      2.11216e+9 
           2930      2.07864e+9 
           2950      2.02397e+9 
           2970      1.99309e+9 
           2990      1.94991e+9 
           3010      1.88961e+9 
           3030      1.86869e+9 
           3050        1.839e+9 
           3070      1.80824e+9 
           3090       1.7417e+9 
           3110      1.73301e+9 
           3130      1.69151e+9 
           3150      1.66319e+9 
           3170      1.62821e+9 
           3190       1.5919e+9 
           3210      1.56935e+9 
           3230      1.53286e+9 
           3250      1.51009e+9 
           3270      1.47772e+9 
           3290      1.44913e+9 
           3310        1.424e+9 
           3330      1.39458e+9 
           3350      1.36962e+9 
           3370       1.3431e+9 
           3390      1.32228e+9 
           3410      1.29881e+9 
           3430      1.27151e+9 
           3450      1.24431e+9 
           3470      1.22265e+9 
           3490      1.19993e+9 
           3510      1.18339e+9 
           3530      1.16554e+9 
           3550      1.14371e+9 
           3570      1.12603e+9 
           3590      1.09817e+9 
           3610      1.08043e+9 
           3630      1.06192e+9 
           3640      1.05894e+9 
           3650      1.03516e+9 
           3670      1.02223e+9 
           3690      9.92145e+8 
           3710      9.75455e+8 
           3730      9.63912e+8 
           3750      1.01959e+9 
           3770      1.00591e+9 
           3790      1.01305e+9 
           3810       1.0334e+9 
           3830      9.48649e+8 
           3850      1.02066e+9 
           3870      9.94917e+8 
           3890      9.10647e+8 
           3910      9.79298e+8 
           3930      9.48769e+8 
           3950      9.41045e+8 
           3970      8.44462e+8 
           3990      9.13161e+8 
           4010      8.99038e+8 
           4030       8.7144e+8 
           4050      8.72111e+8 
           4070      8.41864e+8 
           4090      8.14981e+8 
           4110      7.59008e+8 
           4130       8.0318e+8 
           4150      7.95501e+8 
           4170      7.88842e+8 
           4190      7.76608e+8 
           4210      7.67929e+8 
           4230      7.54074e+8 
           4250      7.37024e+8 
           4270       7.1968e+8 
           4290      7.10386e+8 
           4310      6.95717e+8 
           4330      6.72024e+8 
           4350      6.26897e+8 
           4370       6.6544e+8 
           4390      6.56302e+8 
           4410      6.48348e+8 
           4430      6.41816e+8 
           4450      6.30942e+8 
           4470      6.12356e+8 
           4490      6.12407e+8 
           4510      6.05635e+8 
           4530      5.96884e+8 
           4550      5.86808e+8 
           4570      5.77372e+8 
           4590      5.68203e+8 
           4610      5.58923e+8 
           4630      5.51749e+8 
           4650      5.33807e+8 
           4670      5.33736e+8 
           4690       5.2832e+8 
           4710      5.12142e+8 
           4730      5.13495e+8 
           4750      5.04755e+8 
           4770      5.01392e+8 
           4790      4.93864e+8 
           4810      4.85337e+8 
           4830      4.77369e+8 
           4850      4.64728e+8 
           4870      4.29864e+8 
           4890        4.587e+8 
           4910      4.52267e+8 
           4930       4.4053e+8 
           4950      4.37776e+8 
           4970      4.34611e+8 
           4990       4.2829e+8 
           5010      4.15857e+8 
           5030       4.1607e+8 
           5050      4.08261e+8 
           5070      4.05134e+8 
           5090      3.99121e+8 
           5110      3.93622e+8 
           5130      3.87653e+8 
           5150      3.82589e+8 
           5170      3.77661e+8 
           5190      3.72966e+8 
           5210      3.67637e+8 
           5230      3.63151e+8 
           5250      3.58325e+8 
           5270      3.53264e+8 
           5290      3.48915e+8 
           5310       3.4414e+8 
           5330      3.39759e+8 
           5350      3.35144e+8 
           5370      3.30993e+8 
           5390      3.26272e+8 
           5410      3.22281e+8 
           5430      3.18097e+8 
           5450      3.13851e+8 
           5470      3.09873e+8 
           5490      3.05995e+8 
           5510      3.02239e+8 
           5530      2.98221e+8 
           5550       2.9462e+8 
           5570      2.90784e+8 
           5590      2.87164e+8 
           5610      2.83504e+8 
           5630      2.80067e+8 
           5650      2.76129e+8 
           5670      2.72192e+8 
           5690      2.68118e+8 
           5710      2.65838e+8 
           5730      2.62781e+8 
           5750      2.58757e+8 
           5770      2.56559e+8 
           5790      2.53317e+8 
           5810      2.50237e+8 
           5830      2.46949e+8 
           5850      2.44152e+8 
           5870       2.3651e+8 
           5890      2.37535e+8 
           5910      2.35142e+8 
           5930      2.32188e+8 
           5950      2.29342e+8 
           5970      2.27174e+8 
           5990      2.24063e+8 
           6010      2.21688e+8 
           6030      2.18893e+8 
           6050       2.1643e+8 
           6070      2.13994e+8 
           6090      2.11483e+8 
           6110      2.09041e+8 
           6130      2.06627e+8 
           6150       2.0391e+8 
           6170      2.01641e+8 
           6190      1.99455e+8 
           6210      1.97225e+8 
           6230       1.9497e+8 
           6250      1.92625e+8 
           6270      1.90488e+8 
           6290      1.88355e+8 
           6310      1.86112e+8 
           6330      1.84101e+8 
           6350      1.81794e+8 
           6370       1.7993e+8 
           6390      1.77902e+8 
           6410      1.75904e+8 
           6430         1.74e+8 
           6450      1.72054e+8 
           6470      1.69876e+8 
           6490      1.68034e+8 
           6510      1.66337e+8 
           6530      1.64339e+8 
           6550      1.61211e+8 
           6570      1.47821e+8 
           6590      1.58341e+8 
           6610       1.5735e+8 
           6630      1.55716e+8 
           6650      1.53912e+8 
           6670      1.51441e+8 
           6690      1.49855e+8 
           6710      1.49138e+8 
           6730       1.4728e+8 
           6750      1.46004e+8 
           6770      1.44452e+8 
           6790      1.42556e+8 
           6810      1.41338e+8 
           6830      1.39753e+8 
           6850      1.38392e+8 
           6870      1.36925e+8 
           6890      1.35369e+8 
           6910      1.33837e+8 
           6930      1.32673e+8 
           6950       1.3131e+8 
           6970      1.29945e+8 
           6990       1.2857e+8 
           7010      1.27248e+8 
           7030      1.25915e+8 
           7050       1.2464e+8 
           7070      1.21751e+8 
           7090      1.22099e+8 
           7110      1.20615e+8 
           7130      1.19465e+8 
           7150      1.18393e+8 
           7170      1.17184e+8 
           7190      1.16022e+8 
           7210      1.14851e+8 
           7230      1.12789e+8 
           7250      1.12354e+8 
           7270      1.11416e+8 
           7290      1.09572e+8 
           7310      1.09185e+8 
           7330      1.08099e+8 
           7350      1.07037e+8 
           7370      1.05992e+8 
           7390      1.04943e+8 
           7410      1.03911e+8 
           7430      1.02875e+8 
           7450      1.01875e+8 
           7470      1.00554e+8 
           7490      9.98701e+7 
           7510       9.8898e+7 
           7530      9.79282e+7 
           7550      9.70267e+7 
           7570      9.60874e+7 
           7590      9.51435e+7 
           7610      9.41432e+7 
           7630      9.33332e+7 
           7650      9.24402e+7 
           7670      9.15682e+7 
           7690      9.06848e+7 
           7710       8.9822e+7 
           7730       8.8948e+7 
           7750      8.81319e+7 
           7770      8.71609e+7 
           7790      8.64842e+7 
           7810       8.5628e+7 
           7830      8.48716e+7 
           7850      8.41157e+7 
           7870      8.32569e+7 
           7890      8.23935e+7 
           7910      8.17787e+7 
           7930      8.09833e+7 
           7950      8.01889e+7 
           7970      7.94074e+7 
           7990      7.87035e+7 
           8010      7.79587e+7 
           8030      7.72845e+7 
           8050      7.66103e+7 
           8070      7.59303e+7 
           8090      7.51351e+7 
           8110      7.42094e+7 
           8130      7.39017e+7 
           8150      7.31197e+7 
           8170      7.25929e+7 
           8190      7.17333e+7 
           8210      7.09315e+7 
           8230      7.03814e+7 
           8250      6.98856e+7 
           8270      6.87603e+7 
           8290       6.8544e+7 
           8310      6.79799e+7 
           8330      6.73715e+7 
           8350      6.65305e+7 
           8370      6.59817e+7 
           8390      6.54962e+7 
           8410      6.48601e+7 
           8430      6.42771e+7 
           8450      6.34403e+7 
           8470       6.2805e+7 
           8490      6.28648e+7 
           8510      6.14304e+7 
           8530      6.20229e+7 
           8550      5.96717e+7 
           8570      6.16248e+7 
