# Kurucz ODFNEW /NOVER (2003)
# teff = 25000 K (value for the effective temperature for the model. Temperatures are given in K)
# logg = 5 log(cm/s2) (value for Log(G) for the model.)
# meta = -4  (value for the Metallicity for the model.)
# lh = 1.25  (l/Hp where l is the  mixing length of the convective element and Hp is the pressure scale height)
# vtur = 2 km/s (Microturbulence velocity)
# alpha = 0.4  (Alpha)
#
# column 1: WAVELENGTH (ANGSTROM), Wavelength in Angstrom
# column 2: FLUX (ERG/CM2/S/A), Flux in erg/cm2/s/A
          147.2     2.37553e-14 
            151     1.17895e-13 
          155.2     6.32573e-13 
          158.8     2.48768e-12 
            162     7.98519e-12 
            166      3.2188e-11 
          170.3     1.33768e-10 
          173.4     3.57252e-10 
          176.8      1.00785e-9 
          180.2      2.73196e-9 
          181.7      4.19019e-9 
          186.1      1.41062e-8 
            191      5.09418e-8 
          193.9      1.05542e-7 
          198.4      3.12849e-7 
          201.8      6.87708e-7 
            205      1.40795e-6 
          210.5      4.57506e-6 
          216.2      1.45252e-5 
          219.8      2.91717e-5 
            223      5.31538e-5 
          226.8     0.000105911 
            230     0.000334954 
            234     0.000713609 
            240      0.00182001 
          246.5      0.00475668 
          252.4       0.0109443 
          256.8       0.0195236 
            260        0.029989 
            264       0.0497592 
          268.5       0.0862338 
          273.5        0.155351 
          278.5        0.274024 
            284        0.499077 
            290        0.933716 
            296         1.69927 
            301         2.74752 
            308         5.18765 
            318         12.4746 
            328         28.0922 
            338         60.0622 
            348         122.562 
            357         224.337 
            366         397.805 
            375         684.342 
            385         1210.54 
            395         2074.12 
            405          3451.6 
            414         5333.46 
            422         7716.77 
            430         10995.9 
            441         17481.2 
            451         26061.6 
            460         36715.1 
            470         52808.6 
            480         74657.5 
            490          103878 
            500          142339 
            506          709697 
            512      2.47484e+6 
            520      3.06204e+6 
            530      4.25521e+6 
            540      4.52683e+6 
            550      6.00376e+6 
            560      7.02704e+6 
            570      8.18183e+6 
            580      8.34908e+6 
            590      1.05133e+7 
            600      1.25283e+7 
            610      1.43068e+7 
            620      1.62472e+7 
            630      1.83752e+7 
            640      2.06879e+7 
            650      2.32199e+7 
            658      2.53865e+7 
            665       2.7391e+7 
            675      3.04228e+7 
            685      3.36501e+7 
            695       3.7203e+7 
            705      4.09189e+7 
            716      4.52739e+7 
            726      4.94881e+7 
            735      5.35137e+7 
            745      5.81997e+7 
            755      6.31245e+7 
            765      6.82873e+7 
            775      7.36994e+7 
            785      7.93472e+7 
            795      8.52257e+7 
            805      9.13534e+7 
            815      9.77066e+7 
            825      1.04297e+8 
            835      1.10675e+8 
            845      1.18159e+8 
            855      1.25404e+8 
            865      1.32883e+8 
            875      1.40551e+8 
            885      1.48421e+8 
            895      1.56486e+8 
            905      1.64551e+8 
            915      2.25234e+8 
            925      1.00586e+9 
            935      2.72046e+9 
            945     1.04933e+10 
            955     1.94655e+10 
            965     2.75217e+10 
            975     1.04147e+10 
            985     3.85433e+10 
            995     3.92892e+10 
           1005     4.02195e+10 
           1015     3.21419e+10 
           1025      6.17074e+9 
           1035     2.75264e+10 
           1045     3.60507e+10 
           1055      3.6193e+10 
           1065     3.52275e+10 
           1075     3.45197e+10 
           1085     3.22927e+10 
           1095     3.29215e+10 
           1105     3.17452e+10 
           1115     3.10389e+10 
           1125     3.00371e+10 
           1135     2.96038e+10 
           1145     2.87671e+10 
           1155     2.80237e+10 
           1165     2.72843e+10 
           1175      2.5445e+10 
           1185     2.56315e+10 
           1195     2.40826e+10 
           1205     1.90198e+10 
           1215      4.45371e+9 
           1225     1.69174e+10 
           1235      2.1769e+10 
           1245     2.20147e+10 
           1255     2.17543e+10 
           1265     2.13003e+10 
           1275     2.08649e+10 
           1285     2.04102e+10 
           1295     1.96501e+10 
           1305     1.93293e+10 
           1315     1.90416e+10 
           1325     1.85978e+10 
           1335     1.79283e+10 
           1345     1.78131e+10 
           1355     1.74348e+10 
           1365     1.70589e+10 
           1375     1.66954e+10 
           1385     1.63294e+10 
           1395     1.58526e+10 
           1405     1.55463e+10 
           1415     1.53057e+10 
           1425     1.49924e+10 
           1435     1.46852e+10 
           1442     1.44783e+10 
           1447     1.43312e+10 
           1455     1.41004e+10 
           1465     1.38194e+10 
           1475      1.3544e+10 
           1485     1.32723e+10 
           1495     1.30028e+10 
           1505     1.27388e+10 
           1512     1.25649e+10 
           1517     1.24403e+10 
           1525     1.22436e+10 
           1535     1.20035e+10 
           1545     1.17617e+10 
           1555     1.15468e+10 
           1565     1.13482e+10 
           1575     1.11382e+10 
           1585     1.09318e+10 
           1595     1.07296e+10 
           1605     1.05278e+10 
           1615     1.03313e+10 
           1625     1.01429e+10 
           1635      9.94507e+9 
           1645      9.64563e+9 
           1655      9.60287e+9 
           1665      9.43215e+9 
           1672      9.31466e+9 
           1677      9.23455e+9 
           1685      9.10594e+9 
           1695      8.94846e+9 
           1705      8.79533e+9 
           1715      8.64336e+9 
           1725      8.49407e+9 
           1735       8.3475e+9 
           1745      8.20509e+9 
           1755      8.06586e+9 
           1765      7.92695e+9 
           1775      7.79568e+9 
           1785       7.6666e+9 
           1795      7.54143e+9 
           1805      7.41959e+9 
           1815      7.30044e+9 
           1825      7.18366e+9 
           1835      7.06653e+9 
           1845      6.95162e+9 
           1855      6.83046e+9 
           1865      6.72567e+9 
           1875      6.62519e+9 
           1885      6.51818e+9 
           1895      6.41086e+9 
           1905      6.31601e+9 
           1915      6.21355e+9 
           1925      6.11917e+9 
           1935      6.02711e+9 
           1945      5.93691e+9 
           1955      5.84449e+9 
           1967      5.74234e+9 
           1976      5.66593e+9 
           1984      5.59784e+9 
           1995      5.50542e+9 
           2005      5.42759e+9 
           2015      5.34787e+9 
           2025      5.26909e+9 
           2035      5.19178e+9 
           2045      5.11635e+9 
           2055      5.02779e+9 
           2065       4.9543e+9 
           2074      4.89309e+9 
           2078      4.86074e+9 
           2085       4.8175e+9 
           2095      4.75815e+9 
           2105      4.69272e+9 
           2115       4.6274e+9 
           2125      4.56301e+9 
           2135       4.4997e+9 
           2145      4.43729e+9 
           2155      4.37593e+9 
           2165      4.31566e+9 
           2175       4.2564e+9 
           2185      4.19788e+9 
           2195      4.14048e+9 
           2205      4.08418e+9 
           2215      4.02888e+9 
           2225      3.97456e+9 
           2235      3.92135e+9 
           2245      3.86908e+9 
           2255      3.81773e+9 
           2265      3.76757e+9 
           2275      3.71807e+9 
           2285      3.66951e+9 
           2295      3.61943e+9 
           2305      3.57434e+9 
           2315      3.52813e+9 
           2325      3.48258e+9 
           2335      3.43776e+9 
           2345       3.3937e+9 
           2355       3.3504e+9 
           2365      3.30758e+9 
           2375      3.26556e+9 
           2385        3.224e+9 
           2395      3.18347e+9 
           2405      3.14344e+9 
           2415      3.10409e+9 
           2425      3.06553e+9 
           2435      3.02732e+9 
           2445      2.98981e+9 
           2455      2.95294e+9 
           2465      2.91669e+9 
           2475      2.88099e+9 
           2485      2.84596e+9 
           2495      2.80316e+9 
           2505      2.77752e+9 
           2513       2.7502e+9 
           2518      2.73424e+9 
           2525       2.7113e+9 
           2535      2.67905e+9 
           2545       2.6471e+9 
           2555      2.61574e+9 
           2565      2.58479e+9 
           2575       2.5543e+9 
           2585      2.52421e+9 
           2595      2.49455e+9 
           2605      2.48448e+9 
           2615      2.45533e+9 
           2625       2.4266e+9 
           2635      2.39671e+9 
           2645      2.36747e+9 
           2655      2.33701e+9 
           2665       2.3047e+9 
           2675      2.27318e+9 
           2685      2.26349e+9 
           2695       2.2182e+9 
           2705      2.21249e+9 
           2715      2.18753e+9 
           2725      2.14162e+9 
           2735      2.13848e+9 
           2745      2.11458e+9 
           2755      2.09092e+9 
           2765       2.0462e+9 
           2775      2.04459e+9 
           2785      2.02197e+9 
           2795      1.99895e+9 
           2805      1.97744e+9 
           2815       1.9559e+9 
           2825      1.90842e+9 
           2835      1.89906e+9 
           2845      1.89262e+9 
           2855      1.87213e+9 
           2865      1.85197e+9 
           2875        1.832e+9 
           2885      1.81235e+9 
           2895      1.79298e+9 
           2910      1.76444e+9 
           2930      1.72723e+9 
           2950      1.67493e+9 
           2970      1.65586e+9 
           2990       1.6216e+9 
           3010      1.58823e+9 
           3030      1.55572e+9 
           3050      1.52401e+9 
           3070       1.4931e+9 
           3090      1.46307e+9 
           3110      1.43375e+9 
           3130      1.40684e+9 
           3150      1.37893e+9 
           3170      1.35154e+9 
           3190      1.31084e+9 
           3210      1.29861e+9 
           3230      1.27312e+9 
           3250      1.24833e+9 
           3270      1.22596e+9 
           3290      1.20069e+9 
           3310       1.1798e+9 
           3330      1.15751e+9 
           3350      1.13346e+9 
           3370      1.11457e+9 
           3390      1.09386e+9 
           3410      1.07368e+9 
           3430      1.04934e+9 
           3450      1.02617e+9 
           3470      1.01065e+9 
           3490      9.92386e+8 
           3510      9.75819e+8 
           3530      9.59502e+8 
           3550      9.43131e+8 
           3570      9.33008e+8 
           3590      9.08727e+8 
           3610       8.9698e+8 
           3630       8.7746e+8 
           3640      8.77507e+8 
           3650      8.68323e+8 
           3670      8.57402e+8 
           3690      8.42904e+8 
           3710      8.14873e+8 
           3730      7.83385e+8 
           3750      7.80597e+8 
           3770      7.63245e+8 
           3790      8.05147e+8 
           3810      8.46545e+8 
           3830      7.26909e+8 
           3850      8.83487e+8 
           3870      9.11683e+8 
           3890      6.80235e+8 
           3910       9.0037e+8 
           3930      9.06303e+8 
           3950      8.74307e+8 
           3970      6.33639e+8 
           3990      8.33154e+8 
           4010      8.46441e+8 
           4030      7.80905e+8 
           4050       8.3318e+8 
           4070      8.11866e+8 
           4090      7.10282e+8 
           4110      6.07086e+8 
           4130      7.55429e+8 
           4150      7.56062e+8 
           4170      7.53095e+8 
           4190      7.44571e+8 
           4210      7.32072e+8 
           4230      7.19839e+8 
           4250      7.07845e+8 
           4270      6.94576e+8 
           4290      6.81073e+8 
           4310      6.61342e+8 
           4330      5.68644e+8 
           4350      5.13674e+8 
           4370      6.25591e+8 
           4390      6.00532e+8 
           4410      6.18536e+8 
           4430      6.06821e+8 
           4450      5.99704e+8 
           4470      5.49947e+8 
           4490      5.80041e+8 
           4510      5.72907e+8 
           4530      5.63931e+8 
           4550      5.55108e+8 
           4570       5.4649e+8 
           4590      5.38019e+8 
           4610      5.29727e+8 
           4630      5.21575e+8 
           4650      5.13579e+8 
           4670      5.05734e+8 
           4690      4.97919e+8 
           4710      4.82406e+8 
           4730      4.83118e+8 
           4750      4.75869e+8 
           4770      4.68741e+8 
           4790      4.60549e+8 
           4810      4.52249e+8 
           4830      4.39904e+8 
           4850      3.88237e+8 
           4870      3.42373e+8 
           4890      4.16887e+8 
           4910       4.1817e+8 
           4930      3.99857e+8 
           4950      4.09886e+8 
           4970      4.04428e+8 
           4990      3.98636e+8 
           5010      3.86454e+8 
           5030      3.87273e+8 
           5050      3.78923e+8 
           5070      3.76467e+8 
           5090      3.71173e+8 
           5110      3.65951e+8 
           5130      3.60827e+8 
           5150      3.55785e+8 
           5170      3.50839e+8 
           5190      3.45987e+8 
           5210      3.41212e+8 
           5230      3.36514e+8 
           5250      3.31905e+8 
           5270      3.27369e+8 
           5290      3.22919e+8 
           5310      3.18541e+8 
           5330      3.14245e+8 
           5350      3.10018e+8 
           5370      3.05871e+8 
           5390       3.0179e+8 
           5410      2.97773e+8 
           5430      2.93821e+8 
           5450       2.8993e+8 
           5470      2.86114e+8 
           5490      2.82346e+8 
           5510       2.7865e+8 
           5530      2.75012e+8 
           5550      2.71431e+8 
           5570      2.67919e+8 
           5590       2.6445e+8 
           5610      2.61048e+8 
           5630      2.57699e+8 
           5650      2.54402e+8 
           5670      2.51158e+8 
           5690      2.47964e+8 
           5710       2.4482e+8 
           5730      2.41737e+8 
           5750      2.38691e+8 
           5770      2.35704e+8 
           5790      2.32753e+8 
           5810      2.29847e+8 
           5830      2.26987e+8 
           5850      2.24183e+8 
           5870      2.12216e+8 
           5890      2.17869e+8 
           5910      2.16008e+8 
           5930      2.13365e+8 
           5950      2.10762e+8 
           5970        2.082e+8 
           5990      2.05678e+8 
           6010      2.03196e+8 
           6030      2.00741e+8 
           6050      1.98336e+8 
           6070      1.95967e+8 
           6090      1.93626e+8 
           6110      1.91321e+8 
           6130      1.89052e+8 
           6150      1.86818e+8 
           6170       1.8462e+8 
           6190      1.82445e+8 
           6210      1.80305e+8 
           6230      1.78198e+8 
           6250      1.76124e+8 
           6270      1.74082e+8 
           6290      1.72072e+8 
           6310      1.70084e+8 
           6330      1.68127e+8 
           6350      1.66192e+8 
           6370      1.64296e+8 
           6390       1.6242e+8 
           6410      1.60574e+8 
           6430      1.58747e+8 
           6450      1.56958e+8 
           6470      1.55179e+8 
           6490      1.53232e+8 
           6510      1.51083e+8 
           6530      1.48197e+8 
           6550      1.38012e+8 
           6570      1.20948e+8 
           6590       1.4159e+8 
           6610      1.42571e+8 
           6630      1.41506e+8 
           6650       1.4035e+8 
           6670      1.36791e+8 
           6690      1.35368e+8 
           6710      1.35876e+8 
           6730      1.34405e+8 
           6750      1.32948e+8 
           6770      1.31514e+8 
           6790      1.30095e+8 
           6810       1.2869e+8 
           6830      1.27316e+8 
           6850      1.25947e+8 
           6870      1.24608e+8 
           6890      1.23283e+8 
           6910      1.21971e+8 
           6930      1.20679e+8 
           6950      1.19408e+8 
           6970       1.1815e+8 
           6990      1.16912e+8 
           7010      1.15687e+8 
           7030       1.1448e+8 
           7050      1.13286e+8 
           7070       1.0997e+8 
           7090      1.10955e+8 
           7110       1.0981e+8 
           7130      1.08676e+8 
           7150       1.0756e+8 
           7170      1.06448e+8 
           7190      1.05368e+8 
           7210      1.04299e+8 
           7230      1.03233e+8 
           7250      1.02191e+8 
           7270      1.01152e+8 
           7290      9.91798e+7 
           7310      9.91102e+7 
           7330      9.81283e+7 
           7350      9.71487e+7 
           7370      9.61783e+7 
           7390      9.52169e+7 
           7410      9.42714e+7 
           7430      9.33414e+7 
           7450      9.24337e+7 
           7470      9.15208e+7 
           7490      9.06164e+7 
           7510      8.96935e+7 
           7530      8.88522e+7 
           7550      8.79856e+7 
           7570      8.71268e+7 
           7590      8.62824e+7 
           7610      8.54457e+7 
           7630      8.46166e+7 
           7650      8.38013e+7 
           7670      8.29999e+7 
           7690      8.21992e+7 
           7710      8.14121e+7 
           7730      8.06382e+7 
           7750      7.98651e+7 
           7770      7.91112e+7 
           7790      7.83579e+7 
           7810      7.75742e+7 
           7830      7.68834e+7 
           7850      7.62476e+7 
           7870      7.55321e+7 
           7890      7.47745e+7 
           7910      7.41259e+7 
           7930      7.34349e+7 
           7950        7.275e+7 
           7970      7.19643e+7 
           7990      7.12858e+7 
           8010      7.05838e+7 
           8030       6.9923e+7 
           8050      6.92737e+7 
           8070      6.86415e+7 
           8090      6.79514e+7 
           8110      6.73876e+7 
           8130      6.68227e+7 
           8150      6.61662e+7 
           8170      6.56169e+7 
           8190      6.49655e+7 
           8210      6.43307e+7 
           8230      6.39128e+7 
           8250      6.33597e+7 
           8270      6.25138e+7 
           8290      6.22071e+7 
           8310      6.16898e+7 
           8330      6.11007e+7 
           8350      6.02735e+7 
           8370      5.99481e+7 
           8390      5.95128e+7 
           8410      5.89851e+7 
           8430      5.84299e+7 
           8450      5.75152e+7 
           8470      5.74119e+7 
           8490      5.67707e+7 
           8510      5.63637e+7 
           8530      5.57476e+7 
           8550      5.51315e+7 
           8570      5.50848e+7 
           8590      5.34092e+7 
