# Kurucz ODFNEW /NOVER (2003)
# teff = 30000 K (value for the effective temperature for the model. Temperatures are given in K)
# logg = 3.5 log(cm/s2) (value for Log(G) for the model.)
# meta = 0.2  (value for the Metallicity for the model.)
# lh = 1.25  (l/Hp where l is the  mixing length of the convective element and Hp is the pressure scale height)
# vtur = 2 km/s (Microturbulence velocity)
# alpha = 0.4  (Alpha)
#
# column 1: WAVELENGTH (ANGSTROM), Wavelength in Angstrom
# column 2: FLUX (ERG/CM2/S/A), Flux in erg/cm2/s/A
          147.2      7.99035e-9 
            151      2.49159e-8 
          155.2      8.22463e-8 
          158.8      2.18188e-7 
            162      5.01789e-7 
            166       1.3623e-6 
          170.3      3.77209e-6 
          173.4      7.69082e-6 
          176.8      1.63777e-5 
          180.2      3.36587e-5 
          181.7      4.63693e-5 
          186.1     0.000111899 
            191      0.00028573 
          193.9     0.000486388 
          198.4      0.00108494 
          201.8      0.00193447 
            205      0.00327811 
          210.5      0.00784054 
          216.2       0.0183471 
          219.8       0.0311032 
            223       0.0487266 
          226.8        0.086056 
            230         23.2326 
            234         49.9375 
            240         88.2894 
          246.5         165.058 
          252.4          295.78 
          256.8         430.307 
            260         745.267 
            264         1145.39 
          268.5         1814.98 
          273.5         2675.86 
          278.5         3627.45 
            284         9543.41 
            290         14659.7 
            296         20731.4 
            301         29579.2 
            308          113427 
            318          255318 
            328          393174 
            338          746277 
            348      1.21206e+6 
            357      3.36207e+6 
            366      8.15072e+6 
            375      1.00196e+7 
            385      1.61163e+7 
            395      3.85917e+7 
            405      4.94382e+7 
            414      7.85897e+7 
            422      8.95855e+7 
            430      1.04347e+8 
            441      1.31611e+8 
            451      1.48422e+8 
            460      1.53199e+8 
            470      1.93396e+8 
            480      2.30959e+8 
            490      2.41163e+8 
            500      3.16769e+8 
            506      4.36459e+8 
            512      3.92934e+9 
            520      3.79892e+9 
            530      3.52186e+9 
            540      3.52002e+9 
            550      3.87901e+9 
            560      5.71077e+9 
            570      6.81394e+9 
            580       6.1176e+9 
            590      6.52897e+9 
            600      3.88408e+9 
            610      6.00408e+9 
            620       8.0006e+9 
            630      7.72148e+9 
            640      7.44546e+9 
            650      6.13003e+9 
            658      4.19153e+9 
            665      6.60483e+9 
            675      8.56277e+9 
            685       5.8573e+9 
            695      8.81174e+9 
            705      5.45753e+9 
            716      9.98893e+9 
            726      9.64631e+9 
            735      9.79367e+9 
            745      8.22183e+9 
            755      8.50776e+9 
            765      9.19188e+9 
            775     1.00507e+10 
            785     1.00757e+10 
            795     1.04592e+10 
            805      9.49519e+9 
            815      9.30445e+9 
            825     1.05299e+10 
            835      7.09665e+9 
            845      9.92969e+9 
            855      9.82091e+9 
            865     1.02683e+10 
            875      1.0374e+10 
            885     1.06738e+10 
            895     1.07531e+10 
            905     1.03264e+10 
            915     1.37485e+10 
            925     3.80655e+10 
            935     5.39093e+10 
            945     5.88787e+10 
            955     6.15019e+10 
            965     6.40407e+10 
            975     2.48462e+10 
            985     4.81209e+10 
            995     4.67856e+10 
           1005     4.96786e+10 
           1015     5.31694e+10 
           1025      4.8311e+10 
           1035     5.12294e+10 
           1045     5.97751e+10 
           1055     5.65115e+10 
           1065     4.80949e+10 
           1075      5.0474e+10 
           1085     4.78934e+10 
           1095      5.0372e+10 
           1105     4.81346e+10 
           1115     4.66781e+10 
           1125     3.39752e+10 
           1135      4.5071e+10 
           1145     4.37756e+10 
           1155     4.13689e+10 
           1165     4.11613e+10 
           1175      2.5305e+10 
           1185     3.72484e+10 
           1195     3.62477e+10 
           1205     3.39777e+10 
           1215     3.11903e+10 
           1225     3.46221e+10 
           1235     3.69017e+10 
           1245     3.50596e+10 
           1255      3.5345e+10 
           1265     3.62174e+10 
           1275     3.75032e+10 
           1285     3.73826e+10 
           1295     3.39658e+10 
           1305     3.43033e+10 
           1315     3.67378e+10 
           1325     3.54515e+10 
           1335     3.42882e+10 
           1345     3.42571e+10 
           1355     3.35954e+10 
           1365     3.23042e+10 
           1375     3.11247e+10 
           1385     2.95221e+10 
           1395     1.86955e+10 
           1405      2.1113e+10 
           1415     2.87163e+10 
           1425     2.61329e+10 
           1435     2.79177e+10 
           1442     2.76637e+10 
           1447      2.7543e+10 
           1455     2.61536e+10 
           1465     2.53678e+10 
           1475     2.58838e+10 
           1485     2.57585e+10 
           1495      2.4992e+10 
           1505     2.41553e+10 
           1512     2.36075e+10 
           1517     2.39498e+10 
           1525     2.30286e+10 
           1535     2.00402e+10 
           1545     1.65889e+10 
           1555     1.67563e+10 
           1565     1.93208e+10 
           1575     2.04841e+10 
           1585     2.04813e+10 
           1595      2.0403e+10 
           1605     1.93291e+10 
           1615     1.84839e+10 
           1625     1.88506e+10 
           1635     1.92351e+10 
           1645     1.93096e+10 
           1655     1.91018e+10 
           1665     1.87819e+10 
           1672     1.72828e+10 
           1677     2.04042e+10 
           1685     1.93538e+10 
           1695     1.86055e+10 
           1705     1.84773e+10 
           1715     1.74722e+10 
           1725     1.69347e+10 
           1735      1.7521e+10 
           1745     1.73492e+10 
           1755     1.71349e+10 
           1765     1.69631e+10 
           1775     1.63097e+10 
           1785     1.65473e+10 
           1795     1.62172e+10 
           1805     1.62427e+10 
           1815     1.57017e+10 
           1825     1.55742e+10 
           1835     1.55246e+10 
           1845     1.46164e+10 
           1855     1.49311e+10 
           1865     1.49415e+10 
           1875     1.45939e+10 
           1885     1.38341e+10 
           1895     1.34608e+10 
           1905     1.39147e+10 
           1915     1.34749e+10 
           1925     1.26897e+10 
           1935     1.34574e+10 
           1945     1.36122e+10 
           1955     1.23387e+10 
           1967     1.29481e+10 
           1976     1.32945e+10 
           1984     1.27674e+10 
           1995     1.24538e+10 
           2005     1.26888e+10 
           2015     1.26708e+10 
           2025     1.26782e+10 
           2035     1.20873e+10 
           2045     1.19549e+10 
           2055     1.00681e+10 
           2065      9.84003e+9 
           2074     1.04336e+10 
           2078     1.03079e+10 
           2085     1.10942e+10 
           2095     1.09559e+10 
           2105     1.10604e+10 
           2115      1.1207e+10 
           2125     1.10108e+10 
           2135     1.09492e+10 
           2145     1.06984e+10 
           2155     1.07315e+10 
           2165     1.03578e+10 
           2175      1.0426e+10 
           2185     1.02361e+10 
           2195     1.03166e+10 
           2205     1.01566e+10 
           2215      9.89234e+9 
           2225      9.83786e+9 
           2235      9.68668e+9 
           2245       9.5774e+9 
           2255      9.36966e+9 
           2265      9.33705e+9 
           2275      9.25805e+9 
           2285      9.00475e+9 
           2295      7.96729e+9 
           2305      8.69742e+9 
           2315      8.57816e+9 
           2325       8.5791e+9 
           2335      8.43737e+9 
           2345      8.36214e+9 
           2355       8.2084e+9 
           2365      8.07582e+9 
           2375      7.90977e+9 
           2385      7.65682e+9 
           2395      7.64095e+9 
           2405      7.63681e+9 
           2415      7.49812e+9 
           2425      7.46524e+9 
           2435      7.33416e+9 
           2445      7.25979e+9 
           2455      7.15639e+9 
           2465      7.05442e+9 
           2475      6.91943e+9 
           2485      6.50757e+9 
           2495      4.18607e+9 
           2505      6.00603e+9 
           2513      6.27746e+9 
           2518      6.35832e+9 
           2525      6.52225e+9 
           2535      6.50079e+9 
           2545       6.3358e+9 
           2555      6.31112e+9 
           2565      6.22765e+9 
           2575      6.18448e+9 
           2585      6.11474e+9 
           2595      5.99833e+9 
           2605      5.98235e+9 
           2615      5.85349e+9 
           2625      5.81773e+9 
           2635      5.76389e+9 
           2645        5.673e+9 
           2655      5.61538e+9 
           2665      5.48633e+9 
           2675      5.36746e+9 
           2685      5.39706e+9 
           2695      5.28654e+9 
           2705      5.24238e+9 
           2715      5.17521e+9 
           2725      5.12461e+9 
           2735      5.02863e+9 
           2745      5.03471e+9 
           2755      4.96447e+9 
           2765      4.89808e+9 
           2775      4.88285e+9 
           2785       4.7815e+9 
           2795      4.62375e+9 
           2805      4.67324e+9 
           2815      4.64861e+9 
           2825      4.59555e+9 
           2835      4.50371e+9 
           2845      4.49877e+9 
           2855       4.4234e+9 
           2865      4.36357e+9 
           2875      4.30984e+9 
           2885      4.27169e+9 
           2895      4.22578e+9 
           2910      4.11354e+9 
           2930      4.06873e+9 
           2950      3.96205e+9 
           2970      3.87552e+9 
           2990      3.75908e+9 
           3010      3.63922e+9 
           3030      3.54977e+9 
           3050       3.5188e+9 
           3070      3.46247e+9 
           3090      3.34681e+9 
           3110      3.32665e+9 
           3130      3.23198e+9 
           3150      3.18507e+9 
           3170      3.11006e+9 
           3190      3.05253e+9 
           3210      2.97103e+9 
           3230      2.90936e+9 
           3250      2.87195e+9 
           3270      2.78299e+9 
           3290      2.74139e+9 
           3310      2.68027e+9 
           3330      2.61535e+9 
           3350      2.55387e+9 
           3370      2.50643e+9 
           3390      2.47996e+9 
           3410      2.42779e+9 
           3430      2.39312e+9 
           3450      2.32732e+9 
           3470       2.2909e+9 
           3490      2.24591e+9 
           3510      2.20385e+9 
           3530      2.17045e+9 
           3550      2.12406e+9 
           3570      2.08245e+9 
           3590      2.03782e+9 
           3610      1.99984e+9 
           3630      1.96134e+9 
           3640      1.93642e+9 
           3650      1.84894e+9 
           3670      1.82106e+9 
           3690      1.78497e+9 
           3710      1.73019e+9 
           3730      1.70714e+9 
           3750      1.74768e+9 
           3770      1.71993e+9 
           3790      1.74245e+9 
           3810      1.76197e+9 
           3830      1.63963e+9 
           3850      1.72753e+9 
           3870      1.65959e+9 
           3890      1.55956e+9 
           3910      1.65535e+9 
           3930      1.59937e+9 
           3950      1.56528e+9 
           3970       1.4335e+9 
           3990       1.5368e+9 
           4010      1.50705e+9 
           4030      1.46587e+9 
           4050      1.45839e+9 
           4070       1.3991e+9 
           4090      1.34629e+9 
           4110      1.27383e+9 
           4130      1.33894e+9 
           4150      1.32328e+9 
           4170      1.31612e+9 
           4190      1.29151e+9 
           4210      1.26932e+9 
           4230      1.25229e+9 
           4250      1.21867e+9 
           4270       1.1923e+9 
           4290      1.16903e+9 
           4310      1.14138e+9 
           4330      1.10805e+9 
           4350      1.04347e+9 
           4370      1.09518e+9 
           4390      1.07948e+9 
           4410      1.06029e+9 
           4430      1.05423e+9 
           4450      1.03327e+9 
           4470      1.01054e+9 
           4490      1.00567e+9 
           4510      9.84085e+8 
           4530      9.75341e+8 
           4550      9.55758e+8 
           4570      9.46112e+8 
           4590      9.27746e+8 
           4610      9.11241e+8 
           4630      8.94475e+8 
           4650      8.49948e+8 
           4670       8.6659e+8 
           4690      8.51337e+8 
           4710      8.36327e+8 
           4730      8.42471e+8 
           4750      8.27327e+8 
           4770      8.19857e+8 
           4790      8.07361e+8 
           4810      7.92747e+8 
           4830      7.78783e+8 
           4850      7.59273e+8 
           4870       7.0403e+8 
           4890      7.45326e+8 
           4910      7.33907e+8 
           4930      7.17688e+8 
           4950      7.09348e+8 
           4970      7.06182e+8 
           4990      6.95872e+8 
           5010      6.74028e+8 
           5030      6.71656e+8 
           5050      6.62299e+8 
           5070      6.56527e+8 
           5090      6.46303e+8 
           5110      6.36912e+8 
           5130       6.2726e+8 
           5150       6.1859e+8 
           5170      6.09106e+8 
           5190      6.01624e+8 
           5210      5.93641e+8 
           5230      5.85666e+8 
           5250       5.7595e+8 
           5270      5.67273e+8 
           5290      5.61713e+8 
           5310      5.53628e+8 
           5330      5.46299e+8 
           5350      5.38997e+8 
           5370       5.3158e+8 
           5390      5.23415e+8 
           5410      5.13721e+8 
           5430      5.10442e+8 
           5450      5.03329e+8 
           5470      4.96407e+8 
           5490      4.89897e+8 
           5510       4.8312e+8 
           5530      4.76885e+8 
           5550      4.71008e+8 
           5570       4.6439e+8 
           5590      4.57082e+8 
           5610      4.52668e+8 
           5630      4.46783e+8 
           5650      4.40722e+8 
           5670      4.34174e+8 
           5690      4.23307e+8 
           5710      4.13692e+8 
           5730      4.08893e+8 
           5750      4.02555e+8 
           5770         3.99e+8 
           5790      3.93955e+8 
           5810       3.8867e+8 
           5830      3.84201e+8 
           5850      3.81215e+8 
           5870      3.70936e+8 
           5890      3.72396e+8 
           5910      3.69092e+8 
           5930      3.65407e+8 
           5950      3.61975e+8 
           5970        3.593e+8 
           5990      3.54301e+8 
           6010      3.50403e+8 
           6030      3.45669e+8 
           6050      3.41586e+8 
           6070        3.376e+8 
           6090      3.33711e+8 
           6110       3.2935e+8 
           6130       3.2546e+8 
           6150      3.20976e+8 
           6170      3.16929e+8 
           6190      3.13999e+8 
           6210      3.10417e+8 
           6230      3.06166e+8 
           6250      3.02608e+8 
           6270      2.99311e+8 
           6290      2.95849e+8 
           6310      2.91497e+8 
           6330      2.88972e+8 
           6350       2.8522e+8 
           6370       2.8229e+8 
           6390      2.78985e+8 
           6410      2.75257e+8 
           6430      2.72591e+8 
           6450      2.69237e+8 
           6470      2.65541e+8 
           6490      2.62494e+8 
           6510      2.59123e+8 
           6530      2.56045e+8 
           6550      2.51893e+8 
           6570      2.31388e+8 
           6590      2.47283e+8 
           6610      2.45393e+8 
           6630       2.4292e+8 
           6650      2.39843e+8 
           6670      2.35316e+8 
           6690      2.32455e+8 
           6710      2.31615e+8 
           6730       2.2856e+8 
           6750      2.26761e+8 
           6770       2.2456e+8 
           6790      2.21581e+8 
           6810      2.19647e+8 
           6830      2.17079e+8 
           6850      2.14817e+8 
           6870      2.12355e+8 
           6890      2.09188e+8 
           6910         2.07e+8 
           6930      2.05768e+8 
           6950      2.03525e+8 
           6970      2.01358e+8 
           6990      1.99159e+8 
           7010      1.96782e+8 
           7030      1.94467e+8 
           7050      1.92539e+8 
           7070      1.88331e+8 
           7090      1.88762e+8 
           7110      1.86226e+8 
           7130      1.84412e+8 
           7150       1.8288e+8 
           7170      1.80557e+8 
           7190      1.78934e+8 
           7210      1.77204e+8 
           7230      1.74041e+8 
           7250      1.73075e+8 
           7270      1.71725e+8 
           7290      1.68934e+8 
           7310      1.68074e+8 
           7330      1.66429e+8 
           7350      1.64723e+8 
           7370      1.63032e+8 
           7390      1.61413e+8 
           7410      1.59719e+8 
           7430      1.58137e+8 
           7450      1.56421e+8 
           7470      1.54308e+8 
           7490      1.52921e+8 
           7510      1.51747e+8 
           7530      1.50178e+8 
           7550      1.48802e+8 
           7570      1.47287e+8 
           7590      1.45289e+8 
           7610      1.44018e+8 
           7630      1.42837e+8 
           7650      1.41403e+8 
           7670       1.4016e+8 
           7690      1.38445e+8 
           7710      1.37258e+8 
           7730      1.35616e+8 
           7750      1.34654e+8 
           7770      1.33412e+8 
           7790      1.32132e+8 
           7810      1.30826e+8 
           7830      1.29587e+8 
           7850      1.28231e+8 
           7870      1.26753e+8 
           7890       1.2556e+8 
           7910      1.24631e+8 
           7930      1.23416e+8 
           7950      1.22331e+8 
           7970      1.21012e+8 
           7990      1.19964e+8 
           8010      1.18791e+8 
           8030      1.17615e+8 
           8050      1.16607e+8 
           8070      1.15532e+8 
           8090      1.14346e+8 
           8110      1.12603e+8 
           8130      1.12323e+8 
           8150      1.11149e+8 
           8170      1.10216e+8 
           8190      1.08645e+8 
           8210      1.06858e+8 
           8230      1.05667e+8 
           8250      1.05127e+8 
           8270      1.03441e+8 
           8290      1.03134e+8 
           8310      1.02338e+8 
           8330      1.01217e+8 
           8350      1.00009e+8 
           8370       9.9322e+7 
           8390      9.86831e+7 
           8410       9.7703e+7 
           8430      9.69166e+7 
           8450       9.5783e+7 
           8470      9.50529e+7 
           8490      9.44697e+7 
           8510      9.27985e+7 
           8530      9.30318e+7 
           8550      9.08397e+7 
           8570      9.20166e+7 
