# Kurucz ODFNEW /NOVER (2003)
# teff = 20000 K (value for the effective temperature for the model. Temperatures are given in K)
# logg = 4 log(cm/s2) (value for Log(G) for the model.)
# meta = -1  (value for the Metallicity for the model.)
# lh = 1.25  (l/Hp where l is the  mixing length of the convective element and Hp is the pressure scale height)
# vtur = 2 km/s (Microturbulence velocity)
# alpha = 0.4  (Alpha)
#
# column 1: WAVELENGTH (ANGSTROM), Wavelength in Angstrom
# column 2: FLUX (ERG/CM2/S/A), Flux in erg/cm2/s/A
          147.2     4.71802e-20 
            151     2.90515e-19 
          155.2     1.95739e-18 
          158.8     9.28056e-18 
            162     3.50216e-17 
            166     1.71945e-16 
          170.3     8.77781e-16 
          173.4     2.71087e-15 
          176.8     8.93837e-15 
          180.2     2.82315e-14 
          181.7     4.62757e-14 
          186.1     1.88978e-13 
            191     8.41773e-13 
          193.9     1.96796e-12 
          198.4     7.01527e-12 
          201.8     1.76897e-11 
            205     4.11377e-11 
          210.5     1.65442e-10 
          216.2      6.5119e-10 
          219.8      1.49305e-9 
            223      3.05291e-9 
          226.8       6.9586e-9 
            230      4.08135e-8 
            234       1.0367e-7 
            240      3.23072e-7 
          246.5      1.03231e-6 
          252.4      2.82658e-6 
          256.8      5.70359e-6 
            260      9.61106e-6 
            264      1.77835e-5 
          268.5      3.46937e-5 
          273.5      7.09721e-5 
          278.5     0.000141804 
            284     0.000295009 
            290       0.0006339 
            296      0.00131741 
            301      0.00237312 
            308      0.00516899 
            318       0.0152083 
            328       0.0411628 
            338        0.105397 
            348        0.254432 
            357        0.539811 
            366         1.10207 
            375         2.15742 
            385          4.3891 
            395         8.57622 
            405         16.1987 
            414         27.9454 
            422         44.3146 
            430         68.9013 
            441         123.707 
            451         204.755 
            460         315.288 
            470         499.111 
            480          773.26 
            490         1175.71 
            500         1754.35 
            506           16843 
            512         52872.7 
            520           68487 
            530          100063 
            540          115298 
            550          172648 
            560          216752 
            570          278286 
            580          291529 
            590          403569 
            600          521059 
            610          646930 
            620          770600 
            630          931003 
            640      1.07473e+6 
            650      1.26091e+6 
            658      1.49451e+6 
            665       1.6491e+6 
            675      1.88131e+6 
            685      2.17724e+6 
            695      2.58776e+6 
            705      2.94592e+6 
            716      3.42407e+6 
            726      3.85617e+6 
            735      4.33588e+6 
            745      4.95407e+6 
            755      5.59267e+6 
            765      6.25233e+6 
            775        7.035e+6 
            785      7.84974e+6 
            795       8.6394e+6 
            805      9.56786e+6 
            815      1.04859e+7 
            825      1.16142e+7 
            835      1.24508e+7 
            845      1.37612e+7 
            855      1.49687e+7 
            865      1.63914e+7 
            875      1.78581e+7 
            885      1.95011e+7 
            895      2.10651e+7 
            905      2.21965e+7 
            915      3.63961e+7 
            925      1.76665e+8 
            935      6.50402e+8 
            945      2.82712e+9 
            955      5.37857e+9 
            965      7.39846e+9 
            975       1.7745e+9 
            985      9.76241e+9 
            995      9.50932e+9 
           1005      1.0236e+10 
           1015      8.73602e+9 
           1025      1.64931e+9 
           1035      6.51559e+9 
           1045     1.11464e+10 
           1055     1.07814e+10 
           1065      9.36057e+9 
           1075     1.05075e+10 
           1085      9.65325e+9 
           1095     1.04835e+10 
           1105      9.38873e+9 
           1115      9.18744e+9 
           1125      8.64383e+9 
           1135      9.66867e+9 
           1145      8.76174e+9 
           1155      9.19637e+9 
           1165      9.31841e+9 
           1175      7.68562e+9 
           1185      9.08406e+9 
           1195      7.28146e+9 
           1205      4.52483e+9 
           1215      1.28232e+9 
           1225      5.33829e+9 
           1235      7.79628e+9 
           1245      8.16517e+9 
           1255      7.91478e+9 
           1265      7.59615e+9 
           1275      7.90596e+9 
           1285      7.80734e+9 
           1295      6.07116e+9 
           1305      5.87539e+9 
           1315      7.43622e+9 
           1325      7.11175e+9 
           1335      6.72383e+9 
           1345      6.92244e+9 
           1355      6.87686e+9 
           1365      6.51483e+9 
           1375      6.44054e+9 
           1385      6.46885e+9 
           1395      5.81639e+9 
           1405      5.98675e+9 
           1415      6.05089e+9 
           1425      5.98741e+9 
           1435      5.98786e+9 
           1442       6.0576e+9 
           1447      5.96615e+9 
           1455      5.84075e+9 
           1465      5.65649e+9 
           1475      5.56326e+9 
           1485      5.40949e+9 
           1495      5.35809e+9 
           1505      5.10134e+9 
           1512        4.869e+9 
           1517      4.97774e+9 
           1525      4.95999e+9 
           1535      4.64599e+9 
           1545      4.73519e+9 
           1555      4.51214e+9 
           1565      4.55295e+9 
           1575      4.64779e+9 
           1585      4.57508e+9 
           1595      4.58438e+9 
           1605      4.44452e+9 
           1615      4.38517e+9 
           1625      4.31324e+9 
           1635      4.34407e+9 
           1645      4.27833e+9 
           1655      4.13656e+9 
           1665      4.23555e+9 
           1672      4.08467e+9 
           1677      4.16685e+9 
           1685      4.13401e+9 
           1695      4.00958e+9 
           1705      3.87145e+9 
           1715      3.73447e+9 
           1725      3.69396e+9 
           1735      3.72534e+9 
           1745      3.64515e+9 
           1755      3.67137e+9 
           1765      3.46288e+9 
           1775      3.48651e+9 
           1785      3.45252e+9 
           1795      3.48992e+9 
           1805      3.44604e+9 
           1815      3.29862e+9 
           1825      3.33168e+9 
           1835      3.25239e+9 
           1845      3.06738e+9 
           1855      3.00637e+9 
           1865      3.01678e+9 
           1875      3.08327e+9 
           1885      2.88705e+9 
           1895      2.75354e+9 
           1905      2.87824e+9 
           1915      2.76587e+9 
           1925          2.7e+9 
           1935      2.74823e+9 
           1945      2.76605e+9 
           1955      2.60979e+9 
           1967      2.70306e+9 
           1976      2.75472e+9 
           1984      2.62153e+9 
           1995      2.55029e+9 
           2005      2.58142e+9 
           2015      2.55967e+9 
           2025      2.59509e+9 
           2035      2.48131e+9 
           2045      2.46575e+9 
           2055      2.38044e+9 
           2065      2.40753e+9 
           2074      2.43625e+9 
           2078      2.35744e+9 
           2085      2.37439e+9 
           2095      2.29272e+9 
           2105      2.31622e+9 
           2115      2.29631e+9 
           2125      2.31246e+9 
           2135      2.26564e+9 
           2145      2.20501e+9 
           2155      2.22297e+9 
           2165      2.18833e+9 
           2175      2.15982e+9 
           2185      2.13275e+9 
           2195      2.12728e+9 
           2205       2.0906e+9 
           2215      2.05978e+9 
           2225      2.01719e+9 
           2235      2.01419e+9 
           2245      1.99778e+9 
           2255      1.95617e+9 
           2265      1.95487e+9 
           2275      1.92935e+9 
           2285      1.92008e+9 
           2295      1.86769e+9 
           2305      1.86357e+9 
           2315      1.83127e+9 
           2325      1.81555e+9 
           2335      1.76562e+9 
           2345      1.73292e+9 
           2355        1.745e+9 
           2365      1.70528e+9 
           2375      1.69783e+9 
           2385      1.66594e+9 
           2395      1.66592e+9 
           2405       1.6392e+9 
           2415      1.61699e+9 
           2425      1.62188e+9 
           2435      1.58698e+9 
           2445      1.57762e+9 
           2455      1.57173e+9 
           2465       1.5414e+9 
           2475      1.52866e+9 
           2485      1.51766e+9 
           2495      1.47332e+9 
           2505       1.4862e+9 
           2513      1.44716e+9 
           2518      1.46109e+9 
           2525      1.43917e+9 
           2535      1.41594e+9 
           2545      1.39495e+9 
           2555      1.40771e+9 
           2565      1.38267e+9 
           2575      1.38428e+9 
           2585      1.37162e+9 
           2595      1.35698e+9 
           2605      1.34819e+9 
           2615      1.33542e+9 
           2625      1.32144e+9 
           2635      1.30552e+9 
           2645      1.30956e+9 
           2655      1.29479e+9 
           2665      1.27093e+9 
           2675      1.26561e+9 
           2685      1.25938e+9 
           2695      1.23475e+9 
           2705      1.23177e+9 
           2715      1.21591e+9 
           2725      1.19412e+9 
           2735      1.19502e+9 
           2745      1.16103e+9 
           2755       1.1552e+9 
           2765      1.14661e+9 
           2775      1.15064e+9 
           2785      1.13603e+9 
           2795      1.09513e+9 
           2805      1.10672e+9 
           2815        1.107e+9 
           2825      1.08554e+9 
           2835      1.06646e+9 
           2845      1.06949e+9 
           2855      1.06178e+9 
           2865      1.05461e+9 
           2875      1.04278e+9 
           2885      1.03379e+9 
           2895      1.02419e+9 
           2910      1.00935e+9 
           2930      9.85915e+8 
           2950      9.64323e+8 
           2970      9.53643e+8 
           2990       9.3368e+8 
           3010      9.18237e+8 
           3030      9.02708e+8 
           3050      8.85967e+8 
           3070      8.69824e+8 
           3090      8.52525e+8 
           3110      8.38129e+8 
           3130       8.2426e+8 
           3150      8.09385e+8 
           3170       7.9463e+8 
           3190      7.74109e+8 
           3210       7.6654e+8 
           3230      7.53213e+8 
           3250      7.40262e+8 
           3270      7.28275e+8 
           3290      7.14958e+8 
           3310      7.03696e+8 
           3330        6.916e+8 
           3350      6.78734e+8 
           3370      6.68313e+8 
           3390      6.57173e+8 
           3410      6.46247e+8 
           3430      6.33385e+8 
           3450      6.21125e+8 
           3470      6.12327e+8 
           3490      6.02267e+8 
           3510      5.94261e+8 
           3530      5.85279e+8 
           3550      5.75983e+8 
           3570      5.68926e+8 
           3590      5.56964e+8 
           3610       5.4893e+8 
           3630      5.39496e+8 
           3640      5.38071e+8 
           3650      5.30942e+8 
           3670      5.24723e+8 
           3690      5.12217e+8 
           3710      4.97321e+8 
           3730      4.82146e+8 
           3750      5.26818e+8 
           3770      5.35265e+8 
           3790       5.7448e+8 
           3810      6.06043e+8 
           3830      5.20706e+8 
           3850      6.29352e+8 
           3870      6.40095e+8 
           3890      4.91398e+8 
           3910      6.33028e+8 
           3930      6.22211e+8 
           3950      6.13657e+8 
           3970      4.58384e+8 
           3990      5.88092e+8 
           4010      5.88683e+8 
           4030      5.53047e+8 
           4050      5.76515e+8 
           4070      5.62357e+8 
           4090      5.10591e+8 
           4110      4.38013e+8 
           4130      5.26148e+8 
           4150      5.24698e+8 
           4170      5.21345e+8 
           4190      5.15328e+8 
           4210      5.07766e+8 
           4230      4.99396e+8 
           4250      4.90994e+8 
           4270       4.7998e+8 
           4290      4.74451e+8 
           4310      4.63913e+8 
           4330      4.12056e+8 
           4350      3.72439e+8 
           4370      4.41082e+8 
           4390      4.26047e+8 
           4410      4.32458e+8 
           4430      4.24281e+8 
           4450      4.20191e+8 
           4470      3.94511e+8 
           4490       4.0487e+8 
           4510      4.01713e+8 
           4530        3.952e+8 
           4550      3.89167e+8 
           4570      3.83423e+8 
           4590      3.77961e+8 
           4610      3.72349e+8 
           4630      3.66732e+8 
           4650      3.60552e+8 
           4670      3.56089e+8 
           4690      3.51328e+8 
           4710      3.40624e+8 
           4730      3.40057e+8 
           4750      3.34795e+8 
           4770      3.31546e+8 
           4790      3.26599e+8 
           4810      3.20632e+8 
           4830      3.14139e+8 
           4850      2.85336e+8 
           4870      2.51927e+8 
           4890      2.99955e+8 
           4910      2.98485e+8 
           4930      2.87776e+8 
           4950      2.91543e+8 
           4970      2.87753e+8 
           4990      2.83681e+8 
           5010      2.75417e+8 
           5030      2.75747e+8 
           5050      2.68973e+8 
           5070      2.68541e+8 
           5090       2.6485e+8 
           5110      2.61136e+8 
           5130      2.57572e+8 
           5150      2.54098e+8 
           5170      2.50924e+8 
           5190      2.47553e+8 
           5210       2.4338e+8 
           5230      2.41081e+8 
           5250      2.37895e+8 
           5270      2.34723e+8 
           5290      2.31739e+8 
           5310      2.28688e+8 
           5330      2.25596e+8 
           5350      2.22438e+8 
           5370      2.19935e+8 
           5390        2.171e+8 
           5410      2.14262e+8 
           5430      2.11166e+8 
           5450      2.08668e+8 
           5470      2.05999e+8 
           5490      2.03588e+8 
           5510      2.00959e+8 
           5530      1.98412e+8 
           5550      1.95993e+8 
           5570      1.93496e+8 
           5590      1.91137e+8 
           5610      1.88604e+8 
           5630      1.86458e+8 
           5650       1.8357e+8 
           5670      1.81493e+8 
           5690      1.79474e+8 
           5710      1.77422e+8 
           5730       1.7529e+8 
           5750      1.73116e+8 
           5770      1.71069e+8 
           5790      1.69013e+8 
           5810      1.66947e+8 
           5830      1.64939e+8 
           5850      1.62988e+8 
           5870      1.56281e+8 
           5890       1.5874e+8 
           5910      1.57225e+8 
           5930      1.55385e+8 
           5950      1.53405e+8 
           5970      1.51756e+8 
           5990      1.49883e+8 
           6010       1.4824e+8 
           6030      1.46502e+8 
           6050      1.44815e+8 
           6070      1.43126e+8 
           6090      1.41456e+8 
           6110      1.39855e+8 
           6130      1.38252e+8 
           6150      1.36548e+8 
           6170        1.351e+8 
           6190       1.3358e+8 
           6210      1.32066e+8 
           6230      1.30569e+8 
           6250       1.2904e+8 
           6270      1.27643e+8 
           6290      1.26205e+8 
           6310      1.24744e+8 
           6330      1.23421e+8 
           6350      1.21663e+8 
           6370      1.20464e+8 
           6390      1.19342e+8 
           6410      1.18003e+8 
           6430      1.16769e+8 
           6450      1.15466e+8 
           6470      1.14195e+8 
           6490      1.12965e+8 
           6510      1.11534e+8 
           6530      1.09809e+8 
           6550      1.03977e+8 
           6570      9.14835e+7 
           6590      1.05286e+8 
           6610      1.05512e+8 
           6630      1.04722e+8 
           6650      1.03684e+8 
           6670      1.01615e+8 
           6690      1.00563e+8 
           6710      1.00416e+8 
           6730      9.93624e+7 
           6750      9.83279e+7 
           6770       9.7304e+7 
           6790       9.6225e+7 
           6810      9.52707e+7 
           6830      9.42694e+7 
           6850      9.33102e+7 
           6870      9.23447e+7 
           6890      9.13967e+7 
           6910      9.04502e+7 
           6930      8.95053e+7 
           6950      8.86087e+7 
           6970      8.77132e+7 
           6990      8.68033e+7 
           7010      8.59254e+7 
           7030      8.50561e+7 
           7050      8.41876e+7 
           7070      8.21066e+7 
           7090      8.25209e+7 
           7110      8.16921e+7 
           7130      8.08787e+7 
           7150      8.00585e+7 
           7170      7.92607e+7 
           7190      7.84924e+7 
           7210       7.7717e+7 
           7230      7.66462e+7 
           7250      7.61737e+7 
           7270      7.54415e+7 
           7290      7.41633e+7 
           7310      7.39625e+7 
           7330      7.32509e+7 
           7350       7.2539e+7 
           7370      7.18407e+7 
           7390      7.11419e+7 
           7410      7.04565e+7 
           7430      6.97638e+7 
           7450      6.91115e+7 
           7470      6.84381e+7 
           7490       6.7791e+7 
           7510      6.71299e+7 
           7530      6.65146e+7 
           7550      6.58858e+7 
           7570      6.52639e+7 
           7590      6.46438e+7 
           7610      6.40391e+7 
           7630      6.34385e+7 
           7650      6.28439e+7 
           7670      6.22566e+7 
           7690      6.16765e+7 
           7710      6.11028e+7 
           7730      6.05335e+7 
           7750       5.9975e+7 
           7770      5.92124e+7 
           7790      5.88746e+7 
           7810      5.83048e+7 
           7830      5.77996e+7 
           7850       5.7275e+7 
           7870      5.67519e+7 
           7890      5.61704e+7 
           7910      5.57675e+7 
           7930      5.52655e+7 
           7950      5.47136e+7 
           7970      5.42217e+7 
           7990      5.36933e+7 
           8010      5.32394e+7 
           8030      5.27577e+7 
           8050      5.22849e+7 
           8070      5.18438e+7 
           8090      5.13006e+7 
           8110      5.08858e+7 
           8130      5.04727e+7 
           8150      4.99689e+7 
           8170       4.9601e+7 
           8190      4.91142e+7 
           8210      4.85571e+7 
           8230      4.82296e+7 
           8250      4.78666e+7 
           8270      4.72586e+7 
           8290      4.70105e+7 
           8310      4.66165e+7 
           8330      4.62099e+7 
           8350      4.56257e+7 
           8370      4.53364e+7 
           8390      4.50103e+7 
           8410      4.45935e+7 
           8430      4.41463e+7 
           8450      4.34838e+7 
           8470      4.32288e+7 
           8490      4.29705e+7 
           8510      4.22803e+7 
           8530      4.23717e+7 
           8550      4.08982e+7 
           8570      4.22423e+7 
           8590      4.02149e+7 
