# Kurucz ODFNEW /NOVER (2003)
# teff = 33000 K (value for the effective temperature for the model. Temperatures are given in K)
# logg = 5 log(cm/s2) (value for Log(G) for the model.)
# meta = -0.5  (value for the Metallicity for the model.)
# lh = 1.25  (l/Hp where l is the  mixing length of the convective element and Hp is the pressure scale height)
# vtur = 2 km/s (Microturbulence velocity)
# alpha = 0.4  (Alpha)
#
# column 1: WAVELENGTH (ANGSTROM), Wavelength in Angstrom
# column 2: FLUX (ERG/CM2/S/A), Flux in erg/cm2/s/A
          147.2      4.55841e-6 
            151      1.23544e-5 
          155.2      3.52346e-5 
          158.8      8.29666e-5 
            162      0.00017246 
            166     0.000414558 
          170.3      0.00101721 
          173.4       0.0018957 
          176.8      0.00366145 
          180.2      0.00689753 
          181.7      0.00906424 
          186.1       0.0196614 
            191       0.0447199 
          193.9       0.0713264 
          198.4        0.143418 
          201.8        0.238046 
            205        0.377698 
          210.5        0.808931 
          216.2          1.7068 
          219.8         2.68745 
            223         3.96949 
          226.8         6.24525 
            230         1940.69 
            234         4758.38 
            240            7893 
          246.5         13578.1 
          252.4         22194.3 
          256.8         28703.3 
            260         42937.7 
            264           56410 
          268.5         81614.3 
          273.5          114451 
          278.5          150508 
            284          277358 
            290          395552 
            296          534677 
            301          679394 
            308      1.20965e+6 
            318      2.37663e+6 
            328      3.49549e+6 
            338      5.67581e+6 
            348      8.44145e+6 
            357      1.58955e+7 
            366      2.64922e+7 
            375      3.29298e+7 
            385      4.63131e+7 
            395      6.88628e+7 
            405       8.5392e+7 
            414      1.10133e+8 
            422      1.24137e+8 
            430      1.45741e+8 
            441      1.80307e+8 
            451      2.16146e+8 
            460      2.42364e+8 
            470      2.88098e+8 
            480      3.35165e+8 
            490      3.82551e+8 
            500       4.5319e+8 
            506      1.06542e+9 
            512      6.34455e+9 
            520      5.98295e+9 
            530      5.79632e+9 
            540      5.29075e+9 
            550      6.21473e+9 
            560      7.05431e+9 
            570      7.30755e+9 
            580      6.72066e+9 
            590      7.29942e+9 
            600      6.61893e+9 
            610      7.35518e+9 
            620      8.07107e+9 
            630       8.0311e+9 
            640      7.81511e+9 
            650      8.11123e+9 
            658      7.55331e+9 
            665      8.06609e+9 
            675      8.27337e+9 
            685       7.5484e+9 
            695      8.76182e+9 
            705      7.88894e+9 
            716       9.1387e+9 
            726      8.97516e+9 
            735      9.08865e+9 
            745      9.15785e+9 
            755      9.13694e+9 
            765       9.3496e+9 
            775      9.50001e+9 
            785      9.76877e+9 
            795      9.72245e+9 
            805      9.60216e+9 
            815      9.62717e+9 
            825      9.95313e+9 
            835      8.87541e+9 
            845      9.82575e+9 
            855      9.82916e+9 
            865     1.00392e+10 
            875     1.01127e+10 
            885     1.02544e+10 
            895     1.03548e+10 
            905     1.01741e+10 
            915     1.02824e+10 
            925     2.82517e+10 
            935      4.8876e+10 
            945     8.34392e+10 
            955      9.7505e+10 
            965     1.22531e+11 
            975     5.31077e+10 
            985      1.1462e+11 
            995     1.02057e+11 
           1005     1.06989e+11 
           1015     1.06386e+11 
           1025     6.13919e+10 
           1035      9.8963e+10 
           1045      1.1401e+11 
           1055     1.09645e+11 
           1065     9.47017e+10 
           1075     9.86171e+10 
           1085     8.95433e+10 
           1095     9.73569e+10 
           1105     9.21503e+10 
           1115     8.99381e+10 
           1125     7.50467e+10 
           1135      8.6308e+10 
           1145     7.98013e+10 
           1155      7.8369e+10 
           1165     7.71432e+10 
           1175     5.79737e+10 
           1185     7.10627e+10 
           1195     6.81267e+10 
           1205     6.22267e+10 
           1215     3.90504e+10 
           1225      6.1301e+10 
           1235     6.56722e+10 
           1245     6.36201e+10 
           1255     6.31676e+10 
           1265     6.30674e+10 
           1275     6.28282e+10 
           1285     6.19408e+10 
           1295     5.60705e+10 
           1305     5.66789e+10 
           1315     5.85608e+10 
           1325     5.60301e+10 
           1335     5.44413e+10 
           1345     5.33162e+10 
           1355     5.30718e+10 
           1365     5.03802e+10 
           1375     4.95245e+10 
           1385     4.81717e+10 
           1395     3.87604e+10 
           1405     3.99034e+10 
           1415     4.48657e+10 
           1425     4.16445e+10 
           1435     4.28133e+10 
           1442     4.29766e+10 
           1447     4.23562e+10 
           1455     4.08845e+10 
           1465     3.98912e+10 
           1475     3.92448e+10 
           1485     3.89059e+10 
           1495     3.77383e+10 
           1505     3.61623e+10 
           1512     3.56074e+10 
           1517     3.54418e+10 
           1525     3.46725e+10 
           1535     3.12403e+10 
           1545     2.91185e+10 
           1555     2.85317e+10 
           1565     2.96434e+10 
           1575      3.0275e+10 
           1585     3.00697e+10 
           1595     2.98789e+10 
           1605     2.83393e+10 
           1615     2.72282e+10 
           1625     2.73649e+10 
           1635     2.72623e+10 
           1645     2.65059e+10 
           1655     2.70516e+10 
           1665     2.64287e+10 
           1672     2.53198e+10 
           1677     2.72226e+10 
           1685     2.63623e+10 
           1695     2.55788e+10 
           1705      2.4909e+10 
           1715     2.41852e+10 
           1725     2.32941e+10 
           1735     2.37847e+10 
           1745     2.34139e+10 
           1755     2.29669e+10 
           1765     2.24679e+10 
           1775     2.19416e+10 
           1785      2.1823e+10 
           1795     2.15069e+10 
           1805     2.13617e+10 
           1815     2.07027e+10 
           1825     2.04289e+10 
           1835     2.01968e+10 
           1845     1.90687e+10 
           1855     1.89327e+10 
           1865     1.89024e+10 
           1875     1.86199e+10 
           1885     1.77305e+10 
           1895     1.71798e+10 
           1905     1.75429e+10 
           1915     1.69235e+10 
           1925     1.61839e+10 
           1935     1.66439e+10 
           1945     1.67132e+10 
           1955     1.56211e+10 
           1967     1.59276e+10 
           1976     1.61534e+10 
           1984     1.54998e+10 
           1995     1.50757e+10 
           2005     1.51872e+10 
           2015     1.51008e+10 
           2025     1.49768e+10 
           2035     1.44543e+10 
           2045     1.42511e+10 
           2055     1.23991e+10 
           2065     1.20487e+10 
           2074     1.22141e+10 
           2078     1.19848e+10 
           2085     1.21566e+10 
           2095     1.23224e+10 
           2105     1.29147e+10 
           2115     1.29848e+10 
           2125      1.2757e+10 
           2135     1.26113e+10 
           2145     1.23679e+10 
           2155     1.22834e+10 
           2165     1.19483e+10 
           2175     1.19399e+10 
           2185     1.16485e+10 
           2195     1.16537e+10 
           2205     1.14808e+10 
           2215     1.11363e+10 
           2225     1.11178e+10 
           2235     1.09431e+10 
           2245     1.07965e+10 
           2255     1.04632e+10 
           2265     1.04848e+10 
           2275     1.03382e+10 
           2285     1.01116e+10 
           2295      9.56232e+9 
           2305      9.69863e+9 
           2315      9.67969e+9 
           2325      9.57151e+9 
           2335       9.4213e+9 
           2345      9.31851e+9 
           2355      9.17637e+9 
           2365       9.0464e+9 
           2375      8.89023e+9 
           2385      8.60191e+9 
           2395      8.58737e+9 
           2405      8.52913e+9 
           2415      8.38565e+9 
           2425      8.29037e+9 
           2435        8.136e+9 
           2445      8.04753e+9 
           2455      7.93397e+9 
           2465      7.84183e+9 
           2475      7.72386e+9 
           2485      7.58983e+9 
           2495      6.49182e+9 
           2505      7.31723e+9 
           2513      7.01957e+9 
           2518      7.10402e+9 
           2525      7.21122e+9 
           2535      7.12923e+9 
           2545      6.95641e+9 
           2555      6.89341e+9 
           2565      6.81399e+9 
           2575      6.74299e+9 
           2585      6.66104e+9 
           2595      6.56337e+9 
           2605      6.50808e+9 
           2615      6.41102e+9 
           2625      6.33603e+9 
           2635      6.25167e+9 
           2645      6.16464e+9 
           2655      6.08088e+9 
           2665       5.9669e+9 
           2675      5.87973e+9 
           2685      5.85117e+9 
           2695      5.72121e+9 
           2705      5.67589e+9 
           2715      5.60912e+9 
           2725      5.50816e+9 
           2735      5.40903e+9 
           2745      5.40819e+9 
           2755       5.3412e+9 
           2765      5.23808e+9 
           2775      5.22535e+9 
           2785      5.14612e+9 
           2795      4.99266e+9 
           2805      4.99735e+9 
           2815      4.96951e+9 
           2825      4.87208e+9 
           2835      4.79137e+9 
           2845      4.79218e+9 
           2855      4.71846e+9 
           2865      4.66034e+9 
           2875      4.60336e+9 
           2885       4.5534e+9 
           2895      4.49548e+9 
           2910      4.39791e+9 
           2930      4.31364e+9 
           2950       4.1785e+9 
           2970      4.10926e+9 
           2990      4.00407e+9 
           3010       3.8932e+9 
           3030        3.805e+9 
           3050      3.73514e+9 
           3070      3.66521e+9 
           3090      3.54334e+9 
           3110      3.49686e+9 
           3130       3.4074e+9 
           3150      3.33652e+9 
           3170      3.26238e+9 
           3190      3.17577e+9 
           3210      3.11439e+9 
           3230      3.05236e+9 
           3250      2.99565e+9 
           3270      2.92275e+9 
           3290      2.86369e+9 
           3310      2.80554e+9 
           3330      2.73983e+9 
           3350      2.68143e+9 
           3370      2.62721e+9 
           3390      2.58175e+9 
           3410       2.5279e+9 
           3430      2.47324e+9 
           3450      2.41275e+9 
           3470      2.36799e+9 
           3490      2.31981e+9 
           3510       2.2766e+9 
           3530      2.23563e+9 
           3550      2.19019e+9 
           3570      2.15608e+9 
           3590       2.0971e+9 
           3610      2.06714e+9 
           3630      2.01806e+9 
           3640      2.01035e+9 
           3650      1.95605e+9 
           3670      1.92749e+9 
           3690      1.89235e+9 
           3710      1.82818e+9 
           3730       1.7868e+9 
           3750      1.75435e+9 
           3770      1.69488e+9 
           3790      1.72753e+9 
           3810      1.76988e+9 
           3830      1.58305e+9 
           3850      1.78438e+9 
           3870      1.78078e+9 
           3890       1.4794e+9 
           3910      1.76079e+9 
           3930      1.73606e+9 
           3950      1.68444e+9 
           3970      1.36702e+9 
           3990       1.6284e+9 
           4010      1.62323e+9 
           4030      1.53694e+9 
           4050       1.5829e+9 
           4070      1.51807e+9 
           4090      1.39629e+9 
           4110      1.25617e+9 
           4130      1.44018e+9 
           4150      1.43055e+9 
           4170      1.42386e+9 
           4190      1.39511e+9 
           4210      1.37491e+9 
           4230      1.35335e+9 
           4250       1.3185e+9 
           4270      1.28832e+9 
           4290      1.26682e+9 
           4310       1.2326e+9 
           4330      1.12429e+9 
           4350      1.03712e+9 
           4370        1.173e+9 
           4390      1.14252e+9 
           4410      1.14574e+9 
           4430       1.1344e+9 
           4450      1.11412e+9 
           4470      1.05268e+9 
           4490      1.07709e+9 
           4510      1.06412e+9 
           4530      1.04843e+9 
           4550      1.02627e+9 
           4570      1.01257e+9 
           4590      9.93962e+8 
           4610      9.76173e+8 
           4630      9.58813e+8 
           4650      9.24727e+8 
           4670      9.29244e+8 
           4690      9.09963e+8 
           4710      8.86883e+8 
           4730      8.92701e+8 
           4750      8.77252e+8 
           4770      8.66897e+8 
           4790      8.52974e+8 
           4810      8.36011e+8 
           4830      8.15683e+8 
           4850      7.54388e+8 
           4870      6.83761e+8 
           4890      7.77623e+8 
           4910      7.71864e+8 
           4930      7.44828e+8 
           4950      7.49492e+8 
           4970      7.42938e+8 
           4990      7.31624e+8 
           5010      7.09374e+8 
           5030      7.08494e+8 
           5050      6.95448e+8 
           5070      6.89269e+8 
           5090      6.78439e+8 
           5110      6.68493e+8 
           5130      6.58481e+8 
           5150      6.48973e+8 
           5170      6.39282e+8 
           5190      6.30715e+8 
           5210      6.21718e+8 
           5230      6.12978e+8 
           5250      6.03997e+8 
           5270      5.95216e+8 
           5290      5.87157e+8 
           5310      5.78814e+8 
           5330      5.70699e+8 
           5350      5.62623e+8 
           5370      5.54847e+8 
           5390      5.46756e+8 
           5410      5.37341e+8 
           5430      5.32035e+8 
           5450       5.2451e+8 
           5470      5.17333e+8 
           5490      5.10333e+8 
           5510      5.03433e+8 
           5530      4.96522e+8 
           5550      4.89892e+8 
           5570      4.83247e+8 
           5590      4.76468e+8 
           5610       4.7036e+8 
           5630        4.641e+8 
           5650      4.57764e+8 
           5670      4.51282e+8 
           5690      4.43566e+8 
           5710       4.3746e+8 
           5730      4.32036e+8 
           5750      4.25629e+8 
           5770      4.20997e+8 
           5790      4.15464e+8 
           5810      4.10087e+8 
           5830      4.04518e+8 
           5850      3.99566e+8 
           5870      3.83236e+8 
           5890       3.8812e+8 
           5910      3.84451e+8 
           5930      3.79773e+8 
           5950      3.75064e+8 
           5970       3.7098e+8 
           5990      3.66418e+8 
           6010      3.62137e+8 
           6030      3.57532e+8 
           6050      3.53165e+8 
           6070      3.48868e+8 
           6090      3.44539e+8 
           6110      3.40279e+8 
           6130      3.36117e+8 
           6150      3.31683e+8 
           6170      3.27686e+8 
           6190      3.23851e+8 
           6210      3.19952e+8 
           6230      3.16066e+8 
           6250      3.12127e+8 
           6270      3.08424e+8 
           6290      3.04752e+8 
           6310      3.01016e+8 
           6330       2.9749e+8 
           6350      2.93834e+8 
           6370      2.90451e+8 
           6390      2.86984e+8 
           6410      2.83573e+8 
           6430      2.80272e+8 
           6450      2.76961e+8 
           6470      2.73415e+8 
           6490      2.70275e+8 
           6510      2.66786e+8 
           6530      2.62406e+8 
           6550      2.50418e+8 
           6570      2.24816e+8 
           6590      2.51595e+8 
           6610      2.51428e+8 
           6630      2.49288e+8 
           6650      2.46419e+8 
           6670       2.4104e+8 
           6690      2.38422e+8 
           6710      2.38116e+8 
           6730      2.35256e+8 
           6750      2.32946e+8 
           6770      2.30372e+8 
           6790      2.27464e+8 
           6810      2.25204e+8 
           6830      2.22611e+8 
           6850      2.20245e+8 
           6870      2.17799e+8 
           6890      2.15187e+8 
           6910      2.12665e+8 
           6930      2.10718e+8 
           6950      2.08423e+8 
           6970       2.0615e+8 
           6990      2.03901e+8 
           7010      2.01658e+8 
           7030      1.99422e+8 
           7050      1.97299e+8 
           7070      1.92439e+8 
           7090      1.93116e+8 
           7110      1.90988e+8 
           7130      1.88976e+8 
           7150         1.87e+8 
           7170      1.84976e+8 
           7190      1.83052e+8 
           7210      1.81117e+8 
           7230      1.78416e+8 
           7250      1.77125e+8 
           7270       1.7546e+8 
           7290      1.72372e+8 
           7310      1.71797e+8 
           7330      1.70019e+8 
           7350      1.68251e+8 
           7370      1.66521e+8 
           7390        1.648e+8 
           7410      1.63102e+8 
           7430      1.61427e+8 
           7450      1.59774e+8 
           7470      1.57839e+8 
           7490      1.56467e+8 
           7510      1.54913e+8 
           7530       1.5334e+8 
           7550      1.51829e+8 
           7570      1.50298e+8 
           7590      1.48722e+8 
           7610      1.47154e+8 
           7630      1.45808e+8 
           7650      1.44338e+8 
           7670       1.4292e+8 
           7690      1.41458e+8 
           7710      1.40085e+8 
           7730      1.38617e+8 
           7750      1.37332e+8 
           7770      1.35958e+8 
           7790      1.34659e+8 
           7810       1.3329e+8 
           7830      1.32039e+8 
           7850      1.30829e+8 
           7870      1.29417e+8 
           7890      1.28132e+8 
           7910      1.27057e+8 
           7930      1.25812e+8 
           7950      1.24608e+8 
           7970      1.23366e+8 
           7990      1.22219e+8 
           8010      1.21057e+8 
           8030      1.19882e+8 
           8050      1.18741e+8 
           8070      1.17615e+8 
           8090      1.16366e+8 
           8110      1.14911e+8 
           8130      1.14284e+8 
           8150      1.13128e+8 
           8170      1.12152e+8 
           8190      1.10768e+8 
           8210      1.09558e+8 
           8230      1.08581e+8 
           8250       1.0774e+8 
           8270      1.06211e+8 
           8290      1.05732e+8 
           8310      1.04837e+8 
           8330      1.03813e+8 
           8350      1.02532e+8 
           8370      1.01806e+8 
           8390      1.01033e+8 
           8410      1.00084e+8 
           8430      9.91749e+7 
           8450      9.78038e+7 
           8470      9.74054e+7 
           8490      9.63774e+7 
           8510      9.55504e+7 
           8530      9.45747e+7 
           8550      9.37308e+7 
           8570      9.31707e+7 
