# Kurucz ODFNEW /NOVER (2003)
# teff = 6750 K (value for the effective temperature for the model. Temperatures are given in K)
# logg = 5 log(cm/s2) (value for Log(G) for the model.)
# meta = -4  (value for the Metallicity for the model.)
# lh = 1.25  (l/Hp where l is the  mixing length of the convective element and Hp is the pressure scale height)
# vtur = 2 km/s (Microturbulence velocity)
# alpha = 0.4  (Alpha)
#
# column 1: WAVELENGTH (ANGSTROM), Wavelength in Angstrom
# column 2: FLUX (ERG/CM2/S/A), Flux in erg/cm2/s/A
          147.2     1.73866e-35 
            151     1.65225e-35 
          155.2     1.56403e-35 
          158.8     1.49392e-35 
            162     1.43549e-35 
            166     1.36714e-35 
          170.3     1.29897e-35 
          173.4     1.25294e-35 
          176.8     1.20522e-35 
          180.2     1.16017e-35 
          181.7     1.14109e-35 
          186.1     1.08777e-35 
            191     1.03267e-35 
          193.9     1.00201e-35 
          198.4     9.57076e-36 
          201.8     9.25097e-36 
            205     8.96441e-36 
          210.5     8.50208e-36 
          216.2     8.05969e-36 
          219.8     7.79784e-36 
            223     7.57565e-36 
          226.8     7.32392e-36 
            230     7.12154e-36 
            234     6.88015e-36 
            240     6.54044e-36 
          246.5     6.20006e-36 
          252.4     5.91358e-36 
          256.8     5.71267e-36 
            260     5.57292e-36 
            264     5.40532e-36 
          268.5     5.22566e-36 
          273.5     5.03634e-36 
          278.5     4.85712e-36 
            284     4.67082e-36 
            290     4.47954e-36 
            296     4.29978e-36 
            301     4.15812e-36 
            308     3.97126e-36 
            318     6.24194e-23 
            328     7.89113e-22 
            338     7.96631e-21 
            348     6.99213e-20 
            357     2.91942e-21 
            366     1.54681e-20 
            375     7.52066e-20 
            385     3.97583e-19 
            395     1.92002e-18 
            405      8.5353e-18 
            414     3.06138e-17 
            422     9.06792e-17 
            430     2.57211e-16 
            441     1.00954e-15 
            451     3.28609e-15 
            460     9.06839e-15 
            470     2.66763e-14 
            480     7.47098e-14 
            490     2.00023e-13 
            500     5.12638e-13 
            506     1.16971e-12 
            512     2.24548e-12 
            520     4.45374e-12 
            530      1.0232e-11 
            540     2.23454e-11 
            550     4.79125e-11 
            560     9.90825e-11 
            570     1.99195e-10 
            580     3.85397e-10 
            590     7.44043e-10 
            600      1.38615e-9 
            610      2.52442e-9 
            620      4.49851e-9 
            630      7.85323e-9 
            640      1.34513e-8 
            650      2.26154e-8 
            658      3.38328e-8 
            665      4.76968e-8 
            675      7.68226e-8 
            685      1.21796e-7 
            695      1.90196e-7 
            705      2.92758e-7 
            716      4.63063e-7 
            726      6.92875e-7 
            735      9.85365e-7 
            745      1.44094e-6 
            755      2.08276e-6 
            765      2.97708e-6 
            775      4.21015e-6 
            785      5.89317e-6 
            795      8.16791e-6 
            805      1.12142e-5 
            815      1.52575e-5 
            825      2.05799e-5 
            835      2.75313e-5 
            845      3.65325e-5 
            855      4.80986e-5 
            865      6.28516e-5 
            875      8.15384e-5 
            885     0.000105045 
            895     0.000134428 
            905     0.000170912 
            915        0.382905 
            925           1.062 
            935         1.45628 
            945         1.95489 
            955         2.59147 
            965         3.26939 
            975         3.80306 
            985         5.40967 
            995          6.7802 
           1005         8.19012 
           1015         9.60267 
           1025         11.6243 
           1035         15.2025 
           1045         19.1814 
           1055         23.2399 
           1065         28.6454 
           1075         34.4545 
           1085         41.7619 
           1095         49.6305 
           1105         58.8377 
           1115         69.4384 
           1125         82.1787 
           1135         96.3241 
           1145         111.827 
           1155         128.436 
           1165         145.829 
           1175         162.237 
           1185         211.082 
           1195         236.156 
           1205         261.579 
           1215         257.163 
           1225         343.836 
           1235         414.687 
           1245         91.1111 
           1255         234.233 
           1265         575.844 
           1275         673.171 
           1285         777.974 
           1295         902.542 
           1305         1039.83 
           1315         1194.51 
           1325         1366.97 
           1335         1553.36 
           1345         1762.73 
           1355         1992.92 
           1365         2251.41 
           1375         2524.45 
           1385         2822.98 
           1395         3153.57 
           1405         3498.92 
           1415         3920.78 
           1425         4313.24 
           1435          4785.9 
           1442         5154.26 
           1447         5352.24 
           1455         5832.03 
           1465         6338.96 
           1475         6992.51 
           1485         7655.62 
           1495         8405.61 
           1505         9201.58 
           1512         9799.62 
           1517         10087.9 
           1525         10852.2 
           1535         11768.3 
           1545         12644.2 
           1555         13698.4 
           1565         14641.6 
           1575           15808 
           1585         16988.8 
           1595         18266.2 
           1605         19634.8 
           1615         21446.3 
           1625         23599.9 
           1635         26079.9 
           1645           29758 
           1655         33459.7 
           1665         41950.6 
           1672         50825.6 
           1677         66818.8 
           1685          125403 
           1695          339158 
           1705          799574 
           1715      1.50565e+6 
           1725      2.34777e+6 
           1735      3.11348e+6 
           1745      3.64478e+6 
           1755      4.18851e+6 
           1765      4.47677e+6 
           1775      4.81998e+6 
           1785      5.11753e+6 
           1795      5.41354e+6 
           1805       5.4771e+6 
           1815      5.67171e+6 
           1825      5.78414e+6 
           1835      6.02302e+6 
           1845       5.9008e+6 
           1855      6.22031e+6 
           1865      6.49063e+6 
           1875      6.60333e+6 
           1885      6.74592e+6 
           1895      6.89889e+6 
           1905      6.94303e+6 
           1915      7.19841e+6 
           1925       7.3487e+6 
           1935      7.33139e+6 
           1945      7.60016e+6 
           1955      7.72852e+6 
           1967      7.90325e+6 
           1976      7.87918e+6 
           1984      7.93999e+6 
           1995      8.22354e+6 
           2005      8.29043e+6 
           2015      8.45933e+6 
           2025      8.41403e+6 
           2035      8.73645e+6 
           2045      8.87138e+6 
           2055       8.8931e+6 
           2065      9.00781e+6 
           2074       9.2451e+6 
           2078      9.28544e+6 
           2085      9.31159e+6 
           2095      9.43749e+6 
           2105      9.51978e+6 
           2115      9.69779e+6 
           2125      9.66596e+6 
           2135      9.88969e+6 
           2145      1.00425e+7 
           2155      1.01321e+7 
           2165      1.00957e+7 
           2175      1.02731e+7 
           2185      1.04586e+7 
           2195      1.05793e+7 
           2205      1.05603e+7 
           2215      1.03861e+7 
           2225      1.08294e+7 
           2235      1.10517e+7 
           2245      1.11187e+7 
           2255      1.10773e+7 
           2265      1.10649e+7 
           2275      1.12488e+7 
           2285      1.14298e+7 
           2295      1.14442e+7 
           2305      1.16386e+7 
           2315      1.16747e+7 
           2325      1.17069e+7 
           2335      1.17657e+7 
           2345      1.15252e+7 
           2355      1.20137e+7 
           2365      1.17258e+7 
           2375      1.20894e+7 
           2385      1.17193e+7 
           2395      1.21852e+7 
           2405      1.22958e+7 
           2415      1.23886e+7 
           2425      1.27748e+7 
           2435      1.27209e+7 
           2445       1.2859e+7 
           2455       1.2967e+7 
           2465      1.29569e+7 
           2475      1.29908e+7 
           2485      1.28547e+7 
           2495      1.29274e+7 
           2505      1.32002e+7 
           2513      1.29361e+7 
           2518      1.27737e+7 
           2525      1.28838e+7 
           2535      1.32437e+7 
           2545      1.34225e+7 
           2555      1.36725e+7 
           2565       1.3581e+7 
           2575      1.37076e+7 
           2585      1.37528e+7 
           2595      1.37813e+7 
           2605      1.37162e+7 
           2615      1.37773e+7 
           2625      1.38759e+7 
           2635      1.39938e+7 
           2645      1.43772e+7 
           2655      1.44331e+7 
           2665      1.44179e+7 
           2675       1.4475e+7 
           2685      1.45994e+7 
           2695      1.46163e+7 
           2705      1.46819e+7 
           2715      1.45075e+7 
           2725      1.45398e+7 
           2735      1.46089e+7 
           2745      1.42442e+7 
           2755      1.44442e+7 
           2765      1.47933e+7 
           2775      1.49422e+7 
           2785      1.48715e+7 
           2795      1.37772e+7 
           2805      1.43437e+7 
           2815      1.52109e+7 
           2825       1.5245e+7 
           2835       1.5215e+7 
           2845      1.52749e+7 
           2855      1.47474e+7 
           2865      1.53258e+7 
           2875      1.54021e+7 
           2885      1.52679e+7 
           2895      1.55083e+7 
           2910      1.55646e+7 
           2930      1.55516e+7 
           2950      1.55618e+7 
           2970      1.56442e+7 
           2990      1.56729e+7 
           3010       1.5743e+7 
           3030      1.57718e+7 
           3050      1.58731e+7 
           3070      1.59227e+7 
           3090      1.59611e+7 
           3110      1.60249e+7 
           3130      1.60784e+7 
           3150      1.60996e+7 
           3170      1.61307e+7 
           3190      1.61082e+7 
           3210      1.61567e+7 
           3230      1.60901e+7 
           3250      1.61809e+7 
           3270      1.62372e+7 
           3290      1.62541e+7 
           3310      1.62612e+7 
           3330      1.62411e+7 
           3350      1.62135e+7 
           3370      1.62164e+7 
           3390      1.62167e+7 
           3410      1.62558e+7 
           3430      1.62522e+7 
           3450      1.62058e+7 
           3470      1.62182e+7 
           3490       1.6224e+7 
           3510      1.62209e+7 
           3530      1.62091e+7 
           3550      1.62051e+7 
           3570      1.61411e+7 
           3590      1.61322e+7 
           3610      1.61207e+7 
           3630      1.61177e+7 
           3640      1.61185e+7 
           3650      1.61256e+7 
           3670      1.61403e+7 
           3690      1.58988e+7 
           3710      1.58196e+7 
           3730      1.51297e+7 
           3750      1.62064e+7 
           3770      1.62642e+7 
           3790      1.73181e+7 
           3810      1.87541e+7 
           3830      1.65393e+7 
           3850      1.95333e+7 
           3870      2.01916e+7 
           3890      1.60298e+7 
           3910      2.01591e+7 
           3930      2.01003e+7 
           3950      2.01185e+7 
           3970      1.57725e+7 
           3990      1.98719e+7 
           4010      2.02828e+7 
           4030      2.02652e+7 
           4050      2.01857e+7 
           4070      1.99915e+7 
           4090      1.87008e+7 
           4110      1.62295e+7 
           4130      1.97198e+7 
           4150      1.98253e+7 
           4170      1.97883e+7 
           4190      1.97486e+7 
           4210      1.96738e+7 
           4230      1.95828e+7 
           4250      1.95163e+7 
           4270      1.93988e+7 
           4290      1.92961e+7 
           4310      1.90854e+7 
           4330       1.7507e+7 
           4350      1.58719e+7 
           4370      1.88131e+7 
           4390      1.88903e+7 
           4410      1.88507e+7 
           4430      1.88057e+7 
           4450      1.87236e+7 
           4470      1.86427e+7 
           4490      1.85632e+7 
           4510      1.84811e+7 
           4530      1.83969e+7 
           4550      1.83156e+7 
           4570      1.82332e+7 
           4590      1.81497e+7 
           4610      1.80688e+7 
           4630      1.79851e+7 
           4650      1.79022e+7 
           4670      1.78182e+7 
           4690      1.77351e+7 
           4710       1.7651e+7 
           4730      1.75678e+7 
           4750      1.74853e+7 
           4770      1.74019e+7 
           4790      1.72913e+7 
           4810      1.71674e+7 
           4830      1.69657e+7 
           4850      1.57784e+7 
           4870      1.39222e+7 
           4890      1.66386e+7 
           4910      1.67393e+7 
           4930      1.67014e+7 
           4950      1.66513e+7 
           4970      1.65709e+7 
           4990      1.64883e+7 
           5010      1.64049e+7 
           5030      1.63239e+7 
           5050      1.62406e+7 
           5070      1.61596e+7 
           5090       1.6078e+7 
           5110      1.59971e+7 
           5130      1.59155e+7 
           5150      1.58334e+7 
           5170      1.57322e+7 
           5190      1.56574e+7 
           5210      1.55887e+7 
           5230      1.55083e+7 
           5250        1.543e+7 
           5270       1.5347e+7 
           5290      1.52702e+7 
           5310      1.51915e+7 
           5330      1.51095e+7 
           5350      1.50323e+7 
           5370      1.49532e+7 
           5390      1.48749e+7 
           5410       1.4796e+7 
           5430      1.47179e+7 
           5450      1.46405e+7 
           5470      1.45638e+7 
           5490      1.44867e+7 
           5510      1.44102e+7 
           5530      1.43333e+7 
           5550      1.42571e+7 
           5570      1.41816e+7 
           5590      1.41044e+7 
           5610      1.40303e+7 
           5630      1.39558e+7 
           5650      1.38808e+7 
           5670      1.38065e+7 
           5690      1.37328e+7 
           5710      1.36588e+7 
           5730      1.35854e+7 
           5750      1.35116e+7 
           5770      1.34384e+7 
           5790       1.3366e+7 
           5810      1.32942e+7 
           5830       1.3222e+7 
           5850      1.31504e+7 
           5870      1.30796e+7 
           5890      1.30039e+7 
           5910      1.29376e+7 
           5930      1.28666e+7 
           5950      1.27973e+7 
           5970      1.27275e+7 
           5990      1.26584e+7 
           6010      1.25889e+7 
           6030      1.25211e+7 
           6050      1.24528e+7 
           6070      1.23842e+7 
           6090      1.23172e+7 
           6110      1.22498e+7 
           6130      1.21821e+7 
           6150      1.21159e+7 
           6170      1.20494e+7 
           6190      1.19844e+7 
           6210      1.19191e+7 
           6230      1.18533e+7 
           6250      1.17882e+7 
           6270      1.17237e+7 
           6290      1.16597e+7 
           6310      1.15954e+7 
           6330      1.15325e+7 
           6350      1.14694e+7 
           6370      1.14058e+7 
           6390      1.13437e+7 
           6410      1.12813e+7 
           6430      1.12194e+7 
           6450      1.11572e+7 
           6470      1.10946e+7 
           6490      1.10058e+7 
           6510      1.09196e+7 
           6530      1.07733e+7 
           6550      1.01395e+7 
           6570      8.68334e+6 
           6590      1.04809e+7 
           6610      1.05986e+7 
           6630      1.05828e+7 
           6650       1.0549e+7 
           6670      1.05019e+7 
           6690      1.04451e+7 
           6710      1.03871e+7 
           6730      1.03305e+7 
           6750      1.02735e+7 
           6770      1.02178e+7 
           6790      1.01618e+7 
           6810      1.01063e+7 
           6830      1.00504e+7 
           6850       9.9958e+6 
           6870      9.94088e+6 
           6890      9.88643e+6 
           6910      9.83244e+6 
           6930       9.7789e+6 
           6950      9.72504e+6 
           6970      9.67164e+6 
           6990      9.61869e+6 
           7010      9.56618e+6 
           7030      9.51411e+6 
           7050      9.46248e+6 
           7070      9.41053e+6 
           7090      9.35976e+6 
           7110      9.30867e+6 
           7130        9.258e+6 
           7150      9.20702e+6 
           7170      9.15719e+6 
           7190      9.10705e+6 
           7210      9.05732e+6 
           7230      9.00872e+6 
           7250      8.95908e+6 
           7270      8.91057e+6 
           7290      8.86245e+6 
           7310      8.81402e+6 
           7330      8.76599e+6 
           7350      8.71835e+6 
           7370       8.6711e+6 
           7390      8.62423e+6 
           7410      8.57773e+6 
           7430      8.53094e+6 
           7450      8.48519e+6 
           7470      8.43914e+6 
           7490      8.39346e+6 
           7510      8.34815e+6 
           7530       8.3032e+6 
           7550      8.25794e+6 
           7570      8.21371e+6 
           7590      8.16917e+6 
           7610      8.12564e+6 
           7630       8.0818e+6 
           7650      8.03831e+6 
           7670      7.99516e+6 
           7690      7.95172e+6 
           7710      7.90925e+6 
           7730      7.86712e+6 
           7750      7.82468e+6 
           7770      7.78258e+6 
           7790      7.74143e+6 
           7810      7.69998e+6 
           7830      7.65885e+6 
           7850      7.61804e+6 
           7870      7.57693e+6 
           7890      7.53675e+6 
           7910      7.49688e+6 
           7930      7.45672e+6 
           7950      7.41687e+6 
           7970      7.37732e+6 
           7990      7.33866e+6 
           8010      7.29971e+6 
           8030      7.26047e+6 
           8050      7.22211e+6 
           8070      7.18405e+6 
           8090      7.14569e+6 
           8110       7.1082e+6 
           8130      7.07042e+6 
           8150      7.03349e+6 
           8170      6.99628e+6 
           8190      6.95934e+6 
           8210      6.92324e+6 
           8230      6.88685e+6 
           8250      6.85129e+6 
           8270      6.81543e+6 
           8290       6.7804e+6 
           8310      6.74507e+6 
           8330      6.71001e+6 
           8350       6.6752e+6 
           8370      6.64011e+6 
           8390      6.60528e+6 
           8410      6.56964e+6 
           8430      6.53638e+6 
           8450      6.50231e+6 
           8470      6.46114e+6 
           8490      6.43753e+6 
           8510      6.37765e+6 
           8530      6.37367e+6 
           8550      6.26865e+6 
           8570      6.31277e+6 
           8590      6.25073e+6 
