# Kurucz ODFNEW /NOVER (2003)
# teff = 9250 K (value for the effective temperature for the model. Temperatures are given in K)
# logg = 3.5 log(cm/s2) (value for Log(G) for the model.)
# meta = -1.5  (value for the Metallicity for the model.)
# lh = 1.25  (l/Hp where l is the  mixing length of the convective element and Hp is the pressure scale height)
# vtur = 2 km/s (Microturbulence velocity)
# alpha = 0  (Alpha)
#
# column 1: WAVELENGTH (ANGSTROM), Wavelength in Angstrom
# column 2: FLUX (ERG/CM2/S/A), Flux in erg/cm2/s/A
          273.5     5.10785e-23 
          278.5     2.56136e-22 
            284     1.20386e-21 
            290     6.00527e-21 
            296     2.79718e-20 
            301     9.61689e-20 
            308     5.05581e-19 
            318     4.75364e-18 
            328     3.88481e-17 
            338     2.79355e-16 
            348     1.78821e-15 
            357     8.67238e-15 
            366     3.88468e-14 
            375     1.61488e-13 
            385     7.25374e-13 
            395      3.0107e-12 
            405      1.1619e-11 
            414     3.69727e-11 
            422     9.90691e-11 
            430       2.555e-10 
            441     8.86979e-10 
            451       2.6019e-9 
            460      6.57336e-9 
            470      1.76239e-8 
            480      4.52533e-8 
            490       1.1161e-7 
            500      2.64961e-7 
            506      4.75701e-7 
            512       8.0435e-7 
            520      1.51124e-6 
            530      3.24022e-6 
            540      6.70671e-6 
            550       1.3561e-5 
            560      2.66414e-5 
            570      5.10411e-5 
            580      9.52104e-5 
            590     0.000174663 
            600     0.000312727 
            610     0.000548642 
            620     0.000944058 
            630      0.00159481 
            640      0.00264722 
            650      0.00432173 
            658      0.00632323 
            665      0.00875067 
            675       0.0137462 
            685       0.0212907 
            695       0.0325304 
            705       0.0490603 
            716        0.075999 
            726         0.11173 
            735        0.156536 
            745        0.225315 
            755         0.32094 
            765        0.452558 
            775        0.631996 
            785        0.874537 
            795         1.19929 
            805         1.63063 
            815         2.19892 
            825         2.94166 
            835          3.9051 
            845         5.14634 
            855           6.734 
            865         8.75079 
            875         11.2961 
            885         14.4901 
            895         18.4733 
            905         23.4094 
            915         93.4416 
            925         586.564 
            935         1023.24 
            945         1907.77 
            955         3018.83 
            965         4033.95 
            975         2850.52 
            985         7228.42 
            995         10444.3 
           1005         10891.3 
           1015          8805.5 
           1025         5090.35 
           1035         11566.8 
           1045         19667.1 
           1055         54978.2 
           1065          130291 
           1075          247630 
           1085          349584 
           1095          373014 
           1105      3.13595e+6 
           1115      1.74737e+7 
           1125       1.9705e+7 
           1135      2.08779e+7 
           1145      1.63275e+7 
           1155      1.08046e+7 
           1165      5.77075e+6 
           1175       1.5079e+6 
           1185      1.40183e+6 
           1195         56764.3 
           1205         39457.3 
           1215         12293.6 
           1225         42964.4 
           1235         84550.3 
           1245          147503 
           1255       1.1001e+6 
           1265      4.57167e+6 
           1275      1.22535e+7 
           1285      2.44761e+7 
           1295      3.17823e+7 
           1305      3.15603e+7 
           1315      4.40513e+7 
           1325      5.17191e+7 
           1335      5.58089e+7 
           1345      6.39452e+7 
           1355      6.19359e+7 
           1365      6.10438e+7 
           1375      6.21916e+7 
           1385      5.99495e+7 
           1395      5.94609e+7 
           1405      6.90337e+7 
           1415      7.48934e+7 
           1425      7.81686e+7 
           1435      7.35118e+7 
           1442      8.05723e+7 
           1447      8.22655e+7 
           1455      8.38315e+7 
           1465      8.00879e+7 
           1475      7.96394e+7 
           1485       8.0465e+7 
           1495      8.25475e+7 
           1505      8.39291e+7 
           1512      8.18552e+7 
           1517      8.40569e+7 
           1525      8.18636e+7 
           1535      8.09555e+7 
           1545      8.27707e+7 
           1555      7.76245e+7 
           1565      7.03553e+7 
           1575      7.50247e+7 
           1585      7.80444e+7 
           1595      8.07709e+7 
           1605      7.68485e+7 
           1615      7.77876e+7 
           1625      7.37701e+7 
           1635      7.62527e+7 
           1645      7.86475e+7 
           1655      6.97968e+7 
           1665      7.84939e+7 
           1672      6.93091e+7 
           1677      7.42735e+7 
           1685       7.8413e+7 
           1695      7.43605e+7 
           1705      7.33741e+7 
           1715       7.5221e+7 
           1725      7.37108e+7 
           1735       7.5931e+7 
           1745      7.41712e+7 
           1755      7.64033e+7 
           1765        7.108e+7 
           1775       7.5032e+7 
           1785      7.37775e+7 
           1795      7.64561e+7 
           1805      7.40676e+7 
           1815      7.32948e+7 
           1825      7.12756e+7 
           1835      7.12684e+7 
           1845      6.84173e+7 
           1855      6.97683e+7 
           1865      6.99439e+7 
           1875       7.0939e+7 
           1885      7.09019e+7 
           1895      6.99824e+7 
           1905      6.81835e+7 
           1915      6.85375e+7 
           1925       6.9091e+7 
           1935      6.75859e+7 
           1945      6.97438e+7 
           1955      6.91228e+7 
           1967      6.92274e+7 
           1976      6.77791e+7 
           1984      6.72355e+7 
           1995      6.66277e+7 
           2005      6.54053e+7 
           2015      6.35487e+7 
           2025      6.34968e+7 
           2035      6.47747e+7 
           2045      6.47931e+7 
           2055      6.27885e+7 
           2065      6.25175e+7 
           2074      6.39371e+7 
           2078      6.44231e+7 
           2085      6.41958e+7 
           2095      6.28377e+7 
           2105      6.26399e+7 
           2115      6.22436e+7 
           2125      6.20771e+7 
           2135      5.84819e+7 
           2145      6.13596e+7 
           2155      6.08102e+7 
           2165      5.89509e+7 
           2175      5.86211e+7 
           2185      5.86089e+7 
           2195      6.05915e+7 
           2205      5.87073e+7 
           2215      5.60146e+7 
           2225      5.59064e+7 
           2235      5.89466e+7 
           2245      5.63058e+7 
           2255      5.50252e+7 
           2265       5.4572e+7 
           2275      5.67493e+7 
           2285      5.72047e+7 
           2295      5.52081e+7 
           2305      5.52286e+7 
           2315      5.45613e+7 
           2325      5.47752e+7 
           2335      5.39885e+7 
           2345      5.07976e+7 
           2355      5.36467e+7 
           2365      5.09975e+7 
           2375      5.25807e+7 
           2385      4.87636e+7 
           2395      5.15623e+7 
           2405      5.04447e+7 
           2415      5.08668e+7 
           2425      5.19312e+7 
           2435      5.03486e+7 
           2445      5.17456e+7 
           2455      5.10167e+7 
           2465      5.01888e+7 
           2475      4.90356e+7 
           2485      5.06117e+7 
           2495      4.95108e+7 
           2505      5.15154e+7 
           2513      4.97234e+7 
           2518      4.97168e+7 
           2525      4.76523e+7 
           2535        4.746e+7 
           2545      4.75054e+7 
           2555      4.92788e+7 
           2565      4.89531e+7 
           2575      5.03696e+7 
           2585      5.04655e+7 
           2595      5.02233e+7 
           2605      4.90468e+7 
           2615      4.87203e+7 
           2625      4.90857e+7 
           2635      4.94355e+7 
           2645      5.18066e+7 
           2655      5.13743e+7 
           2665      4.97838e+7 
           2675      5.04626e+7 
           2685      5.07835e+7 
           2695      4.96599e+7 
           2705      4.97011e+7 
           2715      4.86023e+7 
           2725      4.86003e+7 
           2735       4.9826e+7 
           2745      4.65773e+7 
           2755      4.67123e+7 
           2765      4.78583e+7 
           2775      4.91323e+7 
           2785      4.87947e+7 
           2795      4.44884e+7 
           2805      4.66548e+7 
           2815      4.93718e+7 
           2825      4.89899e+7 
           2835      4.81011e+7 
           2845      4.74238e+7 
           2855      4.66485e+7 
           2865      4.73607e+7 
           2875      4.69908e+7 
           2885      4.76025e+7 
           2895      4.75394e+7 
           2910      4.85053e+7 
           2930      4.74066e+7 
           2950      4.71729e+7 
           2970      4.71547e+7 
           2990      4.70106e+7 
           3010      4.72279e+7 
           3030      4.70701e+7 
           3050        4.671e+7 
           3070      4.62473e+7 
           3090      4.63134e+7 
           3110      4.59378e+7 
           3130      4.55448e+7 
           3150      4.54695e+7 
           3170      4.52837e+7 
           3190      4.44548e+7 
           3210      4.46813e+7 
           3230      4.42092e+7 
           3250      4.42517e+7 
           3270      4.42792e+7 
           3290      4.41706e+7 
           3310      4.40373e+7 
           3330      4.35643e+7 
           3350      4.30658e+7 
           3370      4.29907e+7 
           3390      4.27341e+7 
           3410      4.28401e+7 
           3430       4.2595e+7 
           3450       4.2438e+7 
           3470      4.21568e+7 
           3490      4.19719e+7 
           3510      4.18619e+7 
           3530      4.17003e+7 
           3550      4.15038e+7 
           3570      4.11997e+7 
           3590       4.1002e+7 
           3610      4.07976e+7 
           3630      4.05951e+7 
           3640      4.04776e+7 
           3650      4.07199e+7 
           3670      4.04423e+7 
           3690      3.88596e+7 
           3710      4.19999e+7 
           3730      4.53958e+7 
           3750       6.0992e+7 
           3770      6.60348e+7 
           3790      8.24241e+7 
           3810       9.7405e+7 
           3830      7.65381e+7 
           3850      1.07838e+8 
           3870      1.21974e+8 
           3890      6.50011e+7 
           3910      1.20406e+8 
           3930      1.26306e+8 
           3950      1.18916e+8 
           3970       6.2152e+7 
           3990      1.12706e+8 
           4010      1.23369e+8 
           4030      1.22716e+8 
           4050      1.21084e+8 
           4070      1.16533e+8 
           4090      9.01145e+7 
           4110      6.77583e+7 
           4130      1.10011e+8 
           4150       1.1311e+8 
           4170      1.12315e+8 
           4190      1.11104e+8 
           4210       1.0969e+8 
           4230      1.08008e+8 
           4250      1.06625e+8 
           4270      1.05003e+8 
           4290      1.03094e+8 
           4310      9.86293e+7 
           4330      7.32827e+7 
           4350      6.17301e+7 
           4370      9.41542e+7 
           4390      9.61718e+7 
           4410      9.58168e+7 
           4430      9.49593e+7 
           4450      9.40031e+7 
           4470      9.26943e+7 
           4490      9.10444e+7 
           4510      9.04072e+7 
           4530      8.92692e+7 
           4550      8.78784e+7 
           4570      8.71325e+7 
           4590      8.59493e+7 
           4610      8.51253e+7 
           4630      8.39082e+7 
           4650      8.30364e+7 
           4670      8.20106e+7 
           4690      8.09375e+7 
           4710      7.96199e+7 
           4730      7.90406e+7 
           4750      7.80224e+7 
           4770      7.69341e+7 
           4790      7.58119e+7 
           4810      7.43539e+7 
           4830      7.12977e+7 
           4850      5.54608e+7 
           4870      4.44986e+7 
           4890      6.73264e+7 
           4910      6.98215e+7 
           4930       6.9515e+7 
           4950      6.90913e+7 
           4970      6.84433e+7 
           4990      6.77157e+7 
           5010      6.67994e+7 
           5030      6.61665e+7 
           5050       6.5351e+7 
           5070      6.46825e+7 
           5090      6.39455e+7 
           5110      6.32179e+7 
           5130      6.24984e+7 
           5150      6.17866e+7 
           5170      6.07795e+7 
           5190      6.02463e+7 
           5210      5.97291e+7 
           5230      5.89853e+7 
           5250      5.84192e+7 
           5270      5.76836e+7 
           5290      5.71325e+7 
           5310      5.64491e+7 
           5330      5.58539e+7 
           5350      5.52857e+7 
           5370      5.46643e+7 
           5390      5.40791e+7 
           5410      5.34792e+7 
           5430      5.29097e+7 
           5450      5.23521e+7 
           5470      5.17887e+7 
           5490      5.12395e+7 
           5510       5.0692e+7 
           5530        5.014e+7 
           5550      4.96252e+7 
           5570       4.9097e+7 
           5590        4.858e+7 
           5610      4.80714e+7 
           5630      4.75712e+7 
           5650       4.7071e+7 
           5670      4.65813e+7 
           5690      4.60996e+7 
           5710      4.56236e+7 
           5730      4.51542e+7 
           5750      4.46879e+7 
           5770      4.42305e+7 
           5790      4.37771e+7 
           5810      4.33311e+7 
           5830      4.28902e+7 
           5850      4.24555e+7 
           5870       4.1995e+7 
           5890      4.15561e+7 
           5910      4.11836e+7 
           5930      4.07702e+7 
           5950      4.03593e+7 
           5970      3.99594e+7 
           5990      3.95575e+7 
           6010      3.91685e+7 
           6030      3.87827e+7 
           6050      3.84011e+7 
           6070      3.80238e+7 
           6090      3.76515e+7 
           6110      3.72833e+7 
           6130      3.69181e+7 
           6150       3.6537e+7 
           6170      3.62045e+7 
           6190      3.58578e+7 
           6210       3.5512e+7 
           6230      3.51688e+7 
           6250      3.48178e+7 
           6270      3.45002e+7 
           6290      3.41716e+7 
           6310      3.38427e+7 
           6330      3.35239e+7 
           6350      3.31701e+7 
           6370      3.28749e+7 
           6390      3.25818e+7 
           6410      3.22733e+7 
           6430      3.19726e+7 
           6450      3.16289e+7 
           6470       3.1286e+7 
           6490      3.09191e+7 
           6510      3.04565e+7 
           6530      2.95537e+7 
           6550      2.56741e+7 
           6570      2.05781e+7 
           6590      2.79146e+7 
           6610      2.89229e+7 
           6630      2.89389e+7 
           6650      2.87711e+7 
           6670      2.85547e+7 
           6690      2.83506e+7 
           6710      2.81007e+7 
           6730      2.78449e+7 
           6750       2.7595e+7 
           6770      2.73492e+7 
           6790      2.71049e+7 
           6810      2.68631e+7 
           6830       2.6622e+7 
           6850      2.63873e+7 
           6870      2.61533e+7 
           6890      2.59223e+7 
           6910      2.56936e+7 
           6930      2.54678e+7 
           6950      2.52442e+7 
           6970      2.50236e+7 
           6990       2.4805e+7 
           7010      2.45863e+7 
           7030      2.43741e+7 
           7050      2.41633e+7 
           7070      2.39537e+7 
           7090      2.37483e+7 
           7110      2.35321e+7 
           7130      2.33395e+7 
           7150      2.31399e+7 
           7170      2.29428e+7 
           7190      2.27468e+7 
           7210      2.25534e+7 
           7230      2.23611e+7 
           7250      2.21712e+7 
           7270      2.19853e+7 
           7290      2.17989e+7 
           7310      2.16149e+7 
           7330       2.1434e+7 
           7350      2.12554e+7 
           7370      2.10778e+7 
           7390      2.09018e+7 
           7410      2.07267e+7 
           7430      2.05531e+7 
           7450      2.03839e+7 
           7470      2.02114e+7 
           7490      2.00472e+7 
           7510      1.98838e+7 
           7530      1.97218e+7 
           7550      1.95607e+7 
           7570      1.94009e+7 
           7590      1.92425e+7 
           7610      1.90862e+7 
           7630      1.89313e+7 
           7650      1.87771e+7 
           7670      1.86255e+7 
           7690      1.84752e+7 
           7710      1.83256e+7 
           7730      1.81799e+7 
           7750      1.80341e+7 
           7770      1.77779e+7 
           7790      1.77469e+7 
           7810      1.76055e+7 
           7830      1.74653e+7 
           7850      1.73257e+7 
           7870       1.7183e+7 
           7890      1.70421e+7 
           7910      1.69187e+7 
           7930      1.67862e+7 
           7950      1.66511e+7 
           7970      1.65244e+7 
           7990      1.63833e+7 
           8010      1.62676e+7 
           8030      1.61405e+7 
           8050      1.60156e+7 
           8070      1.58912e+7 
           8090      1.57684e+7 
           8110      1.56466e+7 
           8130      1.55259e+7 
           8150      1.54066e+7 
           8170      1.52884e+7 
           8190       1.5165e+7 
           8210      1.51035e+7 
           8230      1.49957e+7 
           8250      1.48904e+7 
           8270      1.47975e+7 
           8290      1.46944e+7 
           8310       1.4591e+7 
           8330      1.44722e+7 
           8350      1.43662e+7 
           8370      1.42315e+7 
           8390      1.40931e+7 
           8410      1.39398e+7 
           8430      1.38499e+7 
           8450      1.37375e+7 
           8470      1.33046e+7 
           8490      1.37275e+7 
           8510      1.28645e+7 
           8530       1.3744e+7 
           8550      1.21632e+7 
           8570      1.38976e+7 
           8590      1.27261e+7 
           8610      1.23459e+7 
           8630      1.40834e+7 
           8650      1.34167e+7 
           8670      1.09307e+7 
           8690      1.38163e+7 
           8710      1.43468e+7 
           8730       1.3684e+7 
           8750      1.05024e+7 
           8770       1.2912e+7 
           8790      1.42014e+7 
           8810      1.43283e+7 
           8830       1.3946e+7 
           8850      1.22255e+7 
           8870      1.01675e+7 
           8890      1.31306e+7 
           8910      1.37997e+7 
           8930      1.38626e+7 
           8950      1.37852e+7 
           8970      1.35398e+7 
           8990      1.28173e+7 
           9010      1.00039e+7 
           9030      1.10195e+7 
           9050      1.28047e+7 
           9070      1.30904e+7 
           9090      1.30648e+7 
           9110      1.30656e+7 
           9130      1.29912e+7 
           9150       1.2876e+7 
           9170       1.2711e+7 
           9190       1.2393e+7 
