# Kurucz ODFNEW /NOVER (2003)
# teff = 7000 K (value for the effective temperature for the model. Temperatures are given in K)
# logg = 4.5 log(cm/s2) (value for Log(G) for the model.)
# meta = -2.5  (value for the Metallicity for the model.)
# lh = 1.25  (l/Hp where l is the  mixing length of the convective element and Hp is the pressure scale height)
# vtur = 2 km/s (Microturbulence velocity)
# alpha = 0.4  (Alpha)
#
# column 1: WAVELENGTH (ANGSTROM), Wavelength in Angstrom
# column 2: FLUX (ERG/CM2/S/A), Flux in erg/cm2/s/A
          268.5     4.83363e-33 
          273.5      2.9103e-32 
          278.5     1.64098e-31 
            284     1.02141e-30 
            290     6.90969e-30 
            296     4.30408e-29 
            301     1.86766e-28 
            308     1.33998e-27 
            318     1.90995e-26 
            328     2.29706e-25 
            338     2.36457e-24 
            348     2.11493e-23 
            357     1.35881e-22 
            366     7.93895e-22 
            375     4.23625e-21 
            385      2.4709e-20 
            395     1.30999e-19 
            405     6.36369e-19 
            414     2.46309e-18 
            422     7.78574e-18 
            430     2.35104e-17 
            441     1.00199e-16 
            451     3.50279e-16 
            460     1.02801e-15 
            470     3.22923e-15 
            480     9.63129e-15 
            490     2.73909e-14 
            500     7.43845e-14 
            506     1.75773e-13 
            512     3.48154e-13 
            520     7.20606e-13 
            530     1.74269e-12 
            540     3.99971e-12 
            550     8.99505e-12 
            560     1.94792e-11 
            570     4.09405e-11 
            580     8.26991e-11 
            590     1.66395e-10 
            600       3.227e-10 
            610     6.10897e-10 
            620      1.13029e-9 
            630      2.04624e-9 
            640      3.63034e-9 
            650      6.31559e-9 
            658      9.70268e-9 
            665      1.39924e-8 
            675      2.32615e-8 
            685      3.80282e-8 
            695      6.11838e-8 
            705      9.69442e-8 
            716      1.58156e-7 
            726      2.43202e-7 
            735      3.54264e-7 
            745      5.31646e-7 
            755      7.88057e-7 
            765      1.15454e-6 
            775      1.67226e-6 
            785      2.39607e-6 
            795      3.39687e-6 
            805      4.76916e-6 
            815       6.6308e-6 
            825      9.13449e-6 
            835       1.2474e-5 
            845      1.68889e-5 
            855      2.26772e-5 
            865      3.02078e-5 
            875      3.99293e-5 
            885      5.23951e-5 
            895      6.82654e-5 
            905       8.8324e-5 
            915        0.140621 
            925        0.992078 
            935         1.67683 
            945         2.83746 
            955         3.94915 
            965         5.19971 
            975         4.63944 
            985         8.83245 
            995          11.039 
           1005         13.3657 
           1015         13.8895 
           1025         11.9323 
           1035         21.9322 
           1045         31.3351 
           1055         36.8225 
           1065         46.7597 
           1075         56.6255 
           1085         69.9776 
           1095         81.1727 
           1105         102.193 
           1115         125.901 
           1125         145.268 
           1135         176.544 
           1145         203.473 
           1155         223.297 
           1165         251.454 
           1175         221.458 
           1185           322.1 
           1195         244.384 
           1205         175.181 
           1215         85.6444 
           1225         208.541 
           1235         422.468 
           1245          235.63 
           1255         449.509 
           1265         888.274 
           1275         1140.44 
           1285         1418.49 
           1295         1691.78 
           1305         1982.17 
           1315         2338.95 
           1325         2714.06 
           1335         3109.42 
           1345         3613.76 
           1355         4077.69 
           1365         4710.47 
           1375         5289.01 
           1385         5898.72 
           1395         6617.27 
           1405         7284.49 
           1415         8324.37 
           1425         9017.76 
           1435         9962.94 
           1442         10956.9 
           1447           11168 
           1455           12328 
           1465         13125.5 
           1475         14550.4 
           1485         15844.3 
           1495         17558.6 
           1505           19282 
           1512         20545.8 
           1517         20733.1 
           1525         22286.7 
           1535         24037.4 
           1545         25644.8 
           1555         27272.9 
           1565         27899.1 
           1575         30867.3 
           1585         32989.4 
           1595         35506.1 
           1605         37855.4 
           1615         41800.6 
           1625         46359.6 
           1635         53360.6 
           1645         66607.8 
           1655         81680.4 
           1665          194696 
           1672          326709 
           1677          604183 
           1685      1.10871e+6 
           1695      1.82135e+6 
           1705      2.92983e+6 
           1715      4.13948e+6 
           1725      4.95102e+6 
           1735      5.95388e+6 
           1745      6.18487e+6 
           1755      6.94816e+6 
           1765      6.37322e+6 
           1775      7.27183e+6 
           1785      7.60216e+6 
           1795      8.19667e+6 
           1805      7.84176e+6 
           1815      8.11503e+6 
           1825      7.85407e+6 
           1835      8.47299e+6 
           1845      7.80037e+6 
           1855      8.40951e+6 
           1865      8.95503e+6 
           1875      8.97603e+6 
           1885      9.15173e+6 
           1895       9.4872e+6 
           1905      9.21377e+6 
           1915      9.86309e+6 
           1925      1.02539e+7 
           1935      9.82355e+6 
           1945      1.05161e+7 
           1955      1.05921e+7 
           1967      1.10329e+7 
           1976      1.07088e+7 
           1984      1.07508e+7 
           1995      1.09999e+7 
           2005      1.07583e+7 
           2015      1.10368e+7 
           2025      1.04816e+7 
           2035      1.15141e+7 
           2045      1.18378e+7 
           2055      1.16319e+7 
           2065      1.17262e+7 
           2074      1.24077e+7 
           2078      1.23765e+7 
           2085      1.22728e+7 
           2095      1.22288e+7 
           2105      1.21444e+7 
           2115      1.24635e+7 
           2125      1.24967e+7 
           2135      1.21617e+7 
           2145      1.28141e+7 
           2155      1.26582e+7 
           2165      1.23189e+7 
           2175      1.25125e+7 
           2185      1.29529e+7 
           2195      1.34372e+7 
           2205      1.31762e+7 
           2215       1.2649e+7 
           2225      1.32105e+7 
           2235      1.40149e+7 
           2245      1.36534e+7 
           2255      1.31347e+7 
           2265      1.27708e+7 
           2275      1.35126e+7 
           2285      1.37272e+7 
           2295      1.33038e+7 
           2305      1.37566e+7 
           2315      1.38749e+7 
           2325      1.38652e+7 
           2335      1.38891e+7 
           2345      1.29666e+7 
           2355      1.42927e+7 
           2365      1.34622e+7 
           2375      1.40897e+7 
           2385       1.2836e+7 
           2395      1.39342e+7 
           2405       1.3898e+7 
           2415      1.39653e+7 
           2425      1.47441e+7 
           2435      1.43576e+7 
           2445      1.46255e+7 
           2455      1.46434e+7 
           2465      1.44877e+7 
           2475       1.4246e+7 
           2485       1.4245e+7 
           2495      1.41129e+7 
           2505      1.50877e+7 
           2513      1.42587e+7 
           2518      1.38194e+7 
           2525      1.35651e+7 
           2535      1.35861e+7 
           2545      1.36453e+7 
           2555      1.46455e+7 
           2565      1.47658e+7 
           2575      1.53649e+7 
           2585      1.55676e+7 
           2595      1.55318e+7 
           2605      1.52179e+7 
           2615      1.51078e+7 
           2625      1.55079e+7 
           2635      1.56189e+7 
           2645      1.67282e+7 
           2655      1.67633e+7 
           2665      1.61381e+7 
           2675      1.64404e+7 
           2685      1.68611e+7 
           2695      1.64131e+7 
           2705      1.65303e+7 
           2715      1.59304e+7 
           2725      1.60085e+7 
           2735       1.6215e+7 
           2745      1.52211e+7 
           2755      1.55456e+7 
           2765       1.6208e+7 
           2775      1.65566e+7 
           2785      1.62383e+7 
           2795      1.22297e+7 
           2805      1.37668e+7 
           2815       1.7182e+7 
           2825      1.71356e+7 
           2835      1.68752e+7 
           2845      1.66521e+7 
           2855      1.53437e+7 
           2865      1.66687e+7 
           2875       1.6717e+7 
           2885      1.69177e+7 
           2895      1.72294e+7 
           2910      1.75194e+7 
           2930      1.72095e+7 
           2950      1.70345e+7 
           2970      1.71599e+7 
           2990      1.71865e+7 
           3010      1.71797e+7 
           3030      1.72766e+7 
           3050      1.73472e+7 
           3070      1.73153e+7 
           3090       1.7344e+7 
           3110       1.7371e+7 
           3130      1.74865e+7 
           3150      1.75363e+7 
           3170      1.75564e+7 
           3190      1.72018e+7 
           3210       1.7315e+7 
           3230      1.70225e+7 
           3250       1.7318e+7 
           3270      1.75651e+7 
           3290      1.76641e+7 
           3310      1.76651e+7 
           3330      1.74223e+7 
           3350      1.72841e+7 
           3370      1.73064e+7 
           3390      1.72454e+7 
           3410      1.74059e+7 
           3430      1.74149e+7 
           3450      1.72395e+7 
           3470      1.72394e+7 
           3490      1.73078e+7 
           3510      1.73484e+7 
           3530      1.73174e+7 
           3550      1.73949e+7 
           3570      1.71101e+7 
           3590      1.70763e+7 
           3610      1.70782e+7 
           3630      1.71341e+7 
           3640      1.71578e+7 
           3650      1.72205e+7 
           3670      1.72882e+7 
           3690      1.67001e+7 
           3710      1.68068e+7 
           3730       1.6307e+7 
           3750      1.86191e+7 
           3770      1.90569e+7 
           3790      2.11113e+7 
           3810      2.32262e+7 
           3830      1.97175e+7 
           3850      2.44858e+7 
           3870      2.57301e+7 
           3890      1.90753e+7 
           3910      2.56991e+7 
           3930      2.50602e+7 
           3950       2.5838e+7 
           3970      1.85098e+7 
           3990      2.54267e+7 
           4010      2.64693e+7 
           4030      2.64601e+7 
           4050      2.62867e+7 
           4070      2.56514e+7 
           4090      2.32437e+7 
           4110      1.95995e+7 
           4130      2.53002e+7 
           4150      2.56301e+7 
           4170      2.56405e+7 
           4190      2.54692e+7 
           4210      2.52937e+7 
           4230      2.50256e+7 
           4250        2.502e+7 
           4270      2.47924e+7 
           4290      2.46437e+7 
           4310       2.4016e+7 
           4330      2.12448e+7 
           4350      1.90209e+7 
           4370      2.37713e+7 
           4390      2.39364e+7 
           4410       2.3898e+7 
           4430      2.38958e+7 
           4450      2.37614e+7 
           4470      2.36605e+7 
           4490      2.35511e+7 
           4510      2.34353e+7 
           4530      2.32508e+7 
           4550       2.3116e+7 
           4570      2.30296e+7 
           4590      2.28937e+7 
           4610      2.27841e+7 
           4630      2.26457e+7 
           4650      2.25175e+7 
           4670      2.23959e+7 
           4690      2.22567e+7 
           4710      2.20884e+7 
           4730      2.19963e+7 
           4750      2.18632e+7 
           4770      2.16952e+7 
           4790      2.15325e+7 
           4810      2.13228e+7 
           4830      2.09044e+7 
           4850      1.87784e+7 
           4870      1.62672e+7 
           4890      2.03362e+7 
           4910      2.06569e+7 
           4930       2.0578e+7 
           4950      2.05289e+7 
           4970      2.04769e+7 
           4990      2.03388e+7 
           5010      2.01857e+7 
           5030      2.01119e+7 
           5050       1.9981e+7 
           5070      1.98764e+7 
           5090      1.97525e+7 
           5110      1.96386e+7 
           5130      1.95129e+7 
           5150      1.93844e+7 
           5170      1.90543e+7 
           5190      1.90028e+7 
           5210      1.90127e+7 
           5230      1.88896e+7 
           5250      1.88266e+7 
           5270      1.86351e+7 
           5290      1.85941e+7 
           5310       1.8481e+7 
           5330      1.83227e+7 
           5350       1.8257e+7 
           5370      1.81317e+7 
           5390      1.80259e+7 
           5410      1.78981e+7 
           5430       1.7801e+7 
           5450      1.76908e+7 
           5470       1.7597e+7 
           5490       1.7494e+7 
           5510      1.73883e+7 
           5530      1.72775e+7 
           5550      1.71814e+7 
           5570      1.70691e+7 
           5590      1.69508e+7 
           5610      1.68577e+7 
           5630      1.67667e+7 
           5650      1.66635e+7 
           5670      1.65591e+7 
           5690      1.64615e+7 
           5710      1.63579e+7 
           5730      1.62635e+7 
           5750      1.61619e+7 
           5770      1.60636e+7 
           5790      1.59663e+7 
           5810        1.587e+7 
           5830      1.57735e+7 
           5850      1.56746e+7 
           5870        1.558e+7 
           5890       1.5419e+7 
           5910      1.53903e+7 
           5930      1.52974e+7 
           5950      1.52043e+7 
           5970      1.51111e+7 
           5990      1.50198e+7 
           6010      1.49273e+7 
           6030      1.48357e+7 
           6050      1.47481e+7 
           6070      1.46582e+7 
           6090      1.45692e+7 
           6110       1.4479e+7 
           6130      1.43827e+7 
           6150      1.42992e+7 
           6170      1.42007e+7 
           6190      1.41308e+7 
           6210      1.40457e+7 
           6230      1.39586e+7 
           6250      1.38704e+7 
           6270      1.37916e+7 
           6290      1.37088e+7 
           6310       1.3624e+7 
           6330      1.35427e+7 
           6350      1.34603e+7 
           6370      1.33797e+7 
           6390      1.32988e+7 
           6410       1.3215e+7 
           6430      1.31375e+7 
           6450      1.30462e+7 
           6470      1.29477e+7 
           6490      1.28456e+7 
           6510      1.27295e+7 
           6530      1.25103e+7 
           6550      1.16314e+7 
           6570      9.87624e+6 
           6590      1.21074e+7 
           6610      1.23136e+7 
           6630      1.23106e+7 
           6650       1.2263e+7 
           6670      1.22175e+7 
           6690      1.21505e+7 
           6710      1.20765e+7 
           6730      1.20057e+7 
           6750       1.1933e+7 
           6770      1.18626e+7 
           6790       1.1792e+7 
           6810       1.1722e+7 
           6830      1.16518e+7 
           6850      1.15823e+7 
           6870      1.15134e+7 
           6890      1.14458e+7 
           6910      1.13773e+7 
           6930      1.13101e+7 
           6950      1.12428e+7 
           6970      1.11768e+7 
           6990      1.11106e+7 
           7010      1.10443e+7 
           7030      1.09792e+7 
           7050      1.09148e+7 
           7070      1.08508e+7 
           7090      1.07867e+7 
           7110      1.07224e+7 
           7130      1.06593e+7 
           7150      1.05954e+7 
           7170      1.05341e+7 
           7190       1.0472e+7 
           7210      1.04103e+7 
           7230      1.03507e+7 
           7250        1.029e+7 
           7270      1.02299e+7 
           7290      1.01682e+7 
           7310      1.01105e+7 
           7330      1.00505e+7 
           7350      9.99312e+6 
           7370      9.93479e+6 
           7390      9.87626e+6 
           7410      9.81616e+6 
           7430      9.76066e+6 
           7450      9.70493e+6 
           7470      9.64898e+6 
           7490      9.59215e+6 
           7510      9.53712e+6 
           7530      9.48253e+6 
           7550      9.42774e+6 
           7570      9.37338e+6 
           7590      9.31882e+6 
           7610      9.26535e+6 
           7630      9.21166e+6 
           7650      9.15841e+6 
           7670      9.10494e+6 
           7690      9.05319e+6 
           7710      9.00121e+6 
           7730      8.95028e+6 
           7750       8.8985e+6 
           7770      8.84089e+6 
           7790      8.79804e+6 
           7810      8.74748e+6 
           7830      8.69732e+6 
           7850      8.64755e+6 
           7870      8.59879e+6 
           7890      8.54981e+6 
           7910      8.50121e+6 
           7930      8.45119e+6 
           7950      8.40395e+6 
           7970      8.35768e+6 
           7990      8.31058e+6 
           8010      8.26326e+6 
           8030      8.21689e+6 
           8050      8.17029e+6 
           8070      8.12464e+6 
           8090      8.07819e+6 
           8110      8.03324e+6 
           8130      7.98806e+6 
           8150      7.94324e+6 
           8170      7.89875e+6 
           8190      7.85123e+6 
           8210      7.81079e+6 
           8230      7.76731e+6 
           8250      7.72527e+6 
           8270       7.6852e+6 
           8290      7.64323e+6 
           8310      7.60048e+6 
           8330      7.55588e+6 
           8350      7.51757e+6 
           8370      7.47416e+6 
           8390      7.43054e+6 
           8410      7.38831e+6 
           8430      7.34906e+6 
           8450      7.30692e+6 
           8470      7.24725e+6 
           8490      7.23667e+6 
           8510      7.09709e+6 
           8530      7.16533e+6 
           8550       6.9288e+6 
           8570      7.10475e+6 
           8590      6.98134e+6 
           8610      6.90626e+6 
           8630      7.01136e+6 
           8650      6.92863e+6 
           8670      6.54487e+6 
           8690      6.88694e+6 
           8710      6.89011e+6 
           8730      6.80915e+6 
           8750      6.33717e+6 
           8770       6.6835e+6 
           8790        6.756e+6 
           8810       6.7239e+6 
           8830      6.67657e+6 
           8850      6.47519e+6 
           8870      6.03902e+6 
           8890      6.52526e+6 
           8910      6.55816e+6 
           8930      6.53921e+6 
           8950      6.50767e+6 
           8970      6.45808e+6 
           8990      6.36086e+6 
           9010      5.79526e+6 
           9030      6.06808e+6 
           9050      6.28691e+6 
           9070      6.29356e+6 
           9090      6.26818e+6 
           9110       6.2543e+6 
           9130      6.22829e+6 
           9150      6.18174e+6 
           9170      6.14047e+6 
