# Kurucz ODFNEW /NOVER (2003)
# teff = 8750 K (value for the effective temperature for the model. Temperatures are given in K)
# logg = 2.5 log(cm/s2) (value for Log(G) for the model.)
# meta = -2.5  (value for the Metallicity for the model.)
# lh = 1.25  (l/Hp where l is the  mixing length of the convective element and Hp is the pressure scale height)
# vtur = 2 km/s (Microturbulence velocity)
# alpha = 0.4  (Alpha)
#
# column 1: WAVELENGTH (ANGSTROM), Wavelength in Angstrom
# column 2: FLUX (ERG/CM2/S/A), Flux in erg/cm2/s/A
          273.5     1.96019e-23 
          278.5     1.10126e-22 
            284     5.45972e-22 
            290     2.75783e-21 
            296     1.29423e-20 
            301     4.47621e-20 
            308     2.37056e-19 
            318     2.24974e-18 
            328     1.85413e-17 
            338     1.34288e-16 
            348     8.65609e-16 
            357     4.22017e-15 
            366      1.9008e-14 
            375     7.93938e-14 
            385      3.5862e-13 
            395      1.4961e-12 
            405     5.80396e-12 
            414     1.85586e-11 
            422      4.9927e-11 
            430     1.29286e-10 
            441     4.51287e-10 
            451      1.33053e-9 
            460      3.37703e-9 
            470      9.10273e-9 
            480      2.34965e-8 
            490      5.82793e-8 
            500      1.39082e-7 
            506      3.30798e-7 
            512      6.12295e-7 
            520      1.15139e-6 
            530      2.48717e-6 
            540      5.12603e-6 
            550      1.04295e-5 
            560      2.05027e-5 
            570      3.93021e-5 
            580      7.28441e-5 
            590     0.000134588 
            600     0.000241023 
            610     0.000422876 
            620     0.000727654 
            630      0.00122919 
            640      0.00204065 
            650      0.00333127 
            658      0.00487387 
            665      0.00674454 
            675       0.0105935 
            685       0.0164052 
            695        0.025061 
            705       0.0377893 
            716       0.0585226 
            726       0.0860206 
            735        0.120489 
            745         0.17341 
            755        0.246972 
            765        0.348241 
            775        0.486316 
            785        0.672852 
            795        0.922533 
            805          1.2542 
            815         1.69113 
            825         2.26234 
            835         3.00308 
            845         3.95779 
            855         5.17869 
            865         6.72975 
            875         8.68772 
            885         11.1452 
            895         14.2104 
            905         18.0093 
            915         50.5636 
            925         236.788 
            935         394.882 
            945         729.982 
            955         1252.76 
            965         1551.62 
            975         977.069 
            985         8141.68 
            995          115292 
           1005           32408 
           1015         2862.59 
           1025         1899.13 
           1035         4254.28 
           1045         86259.4 
           1055      1.39475e+6 
           1065      3.87117e+6 
           1075      6.50623e+6 
           1085      8.04517e+6 
           1095      7.71132e+6 
           1105      1.12844e+7 
           1115      1.56898e+7 
           1125      1.39381e+7 
           1135      1.26349e+7 
           1145      9.01116e+6 
           1155      4.87791e+6 
           1165       2.0035e+6 
           1175          384281 
           1185      2.64342e+6 
           1195         18313.3 
           1205         13141.5 
           1215         6316.91 
           1225         14736.8 
           1235         27105.7 
           1245         26856.7 
           1255          157272 
           1265      1.05142e+6 
           1275      3.38069e+6 
           1285      7.82286e+6 
           1295      1.12069e+7 
           1305      1.28444e+7 
           1315      1.82628e+7 
           1325      2.22889e+7 
           1335      2.51607e+7 
           1345      2.90321e+7 
           1355      2.97645e+7 
           1365      3.11376e+7 
           1375      3.22605e+7 
           1385      3.26114e+7 
           1395      3.27456e+7 
           1405      3.71057e+7 
           1415      4.05136e+7 
           1425      4.21139e+7 
           1435      4.09454e+7 
           1442      4.41724e+7 
           1447      4.43588e+7 
           1455      4.54455e+7 
           1465      4.48061e+7 
           1475      4.52967e+7 
           1485      4.55873e+7 
           1495      4.65403e+7 
           1505      4.72129e+7 
           1512       4.7169e+7 
           1517      4.74888e+7 
           1525      4.66598e+7 
           1535      4.62089e+7 
           1545       4.7374e+7 
           1555      4.52772e+7 
           1565      4.22701e+7 
           1575      4.42697e+7 
           1585      4.55124e+7 
           1595      4.66317e+7 
           1605      4.50959e+7 
           1615      4.55719e+7 
           1625      4.36032e+7 
           1635      4.48951e+7 
           1645      4.56262e+7 
           1655      4.24288e+7 
           1665      4.59567e+7 
           1672      4.32198e+7 
           1677       4.4227e+7 
           1685      4.56219e+7 
           1695      4.40585e+7 
           1705      4.37168e+7 
           1715      4.48134e+7 
           1725      4.41979e+7 
           1735      4.51541e+7 
           1745      4.43386e+7 
           1755      4.50702e+7 
           1765      4.33177e+7 
           1775      4.46593e+7 
           1785      4.40279e+7 
           1795      4.48167e+7 
           1805      4.38693e+7 
           1815      4.35725e+7 
           1825      4.29481e+7 
           1835      4.30363e+7 
           1845      4.18882e+7 
           1855      4.25556e+7 
           1865      4.24968e+7 
           1875       4.2633e+7 
           1885      4.25795e+7 
           1895      4.22918e+7 
           1905      4.13777e+7 
           1915      4.16236e+7 
           1925      4.19355e+7 
           1935      4.11902e+7 
           1945      4.19588e+7 
           1955       4.1715e+7 
           1967      4.15999e+7 
           1976      4.09691e+7 
           1984      4.08288e+7 
           1995      4.07897e+7 
           2005      4.01449e+7 
           2015      3.92983e+7 
           2025      3.93246e+7 
           2035      3.97932e+7 
           2045      3.95915e+7 
           2055      3.85363e+7 
           2065      3.87064e+7 
           2074      3.92838e+7 
           2078      3.93787e+7 
           2085      3.92369e+7 
           2095      3.89311e+7 
           2105      3.88435e+7 
           2115      3.85402e+7 
           2125      3.83393e+7 
           2135      3.75347e+7 
           2145      3.82688e+7 
           2155      3.78674e+7 
           2165      3.71077e+7 
           2175      3.71201e+7 
           2185      3.71409e+7 
           2195      3.78268e+7 
           2205      3.69955e+7 
           2215      3.59021e+7 
           2225      3.58571e+7 
           2235      3.70392e+7 
           2245      3.63258e+7 
           2255       3.5508e+7 
           2265      3.51077e+7 
           2275      3.61362e+7 
           2285      3.61864e+7 
           2295      3.55763e+7 
           2305      3.56696e+7 
           2315      3.54093e+7 
           2325        3.549e+7 
           2335      3.48909e+7 
           2345      3.34033e+7 
           2355      3.47471e+7 
           2365      3.35372e+7 
           2375      3.42973e+7 
           2385      3.25175e+7 
           2395      3.39167e+7 
           2405      3.36241e+7 
           2415      3.36867e+7 
           2425      3.43473e+7 
           2435      3.36991e+7 
           2445      3.40353e+7 
           2455       3.4023e+7 
           2465      3.33923e+7 
           2475      3.31789e+7 
           2485      3.35963e+7 
           2495      3.31212e+7 
           2505      3.38599e+7 
           2513       3.3171e+7 
           2518      3.31552e+7 
           2525      3.24121e+7 
           2535       3.2134e+7 
           2545      3.23781e+7 
           2555      3.32118e+7 
           2565      3.29047e+7 
           2575      3.33661e+7 
           2585      3.35065e+7 
           2595       3.3209e+7 
           2605       3.2823e+7 
           2615      3.26407e+7 
           2625      3.26697e+7 
           2635      3.28487e+7 
           2645      3.39933e+7 
           2655      3.38377e+7 
           2665      3.31917e+7 
           2675      3.34246e+7 
           2685      3.36297e+7 
           2695      3.33075e+7 
           2705      3.33186e+7 
           2715      3.28334e+7 
           2725      3.28354e+7 
           2735       3.3122e+7 
           2745      3.17857e+7 
           2755       3.1873e+7 
           2765      3.23884e+7 
           2775      3.30262e+7 
           2785      3.28905e+7 
           2795      3.04199e+7 
           2805      3.16614e+7 
           2815      3.30951e+7 
           2825      3.29627e+7 
           2835      3.25702e+7 
           2845      3.24552e+7 
           2855      3.20545e+7 
           2865       3.2229e+7 
           2875      3.22737e+7 
           2885      3.23744e+7 
           2895      3.25498e+7 
           2910      3.26916e+7 
           2930      3.22231e+7 
           2950       3.2134e+7 
           2970      3.22105e+7 
           2990      3.20806e+7 
           3010      3.22054e+7 
           3030      3.21448e+7 
           3050      3.20122e+7 
           3070      3.17168e+7 
           3090      3.18074e+7 
           3110      3.16925e+7 
           3130      3.15453e+7 
           3150      3.14384e+7 
           3170      3.13863e+7 
           3190      3.10732e+7 
           3210      3.11501e+7 
           3230       3.0867e+7 
           3250      3.09426e+7 
           3270      3.09835e+7 
           3290        3.094e+7 
           3310      3.08681e+7 
           3330      3.06486e+7 
           3350      3.04257e+7 
           3370      3.03997e+7 
           3390      3.03181e+7 
           3410      3.03811e+7 
           3430      3.02773e+7 
           3450      3.01899e+7 
           3470      3.00726e+7 
           3490      2.99912e+7 
           3510      2.99121e+7 
           3530      2.98299e+7 
           3550      2.97339e+7 
           3570      2.96183e+7 
           3590      2.95202e+7 
           3610      2.94224e+7 
           3630      2.93192e+7 
           3640      2.92578e+7 
           3650      2.94653e+7 
           3670      2.90696e+7 
           3690      2.89351e+7 
           3710      3.50588e+7 
           3730      4.28234e+7 
           3750      6.43407e+7 
           3770      6.87755e+7 
           3790      8.30902e+7 
           3810      9.46489e+7 
           3830      7.54234e+7 
           3850       1.0185e+8 
           3870      1.09931e+8 
           3890      6.58998e+7 
           3910      1.07535e+8 
           3930      1.08017e+8 
           3950       1.0547e+8 
           3970      6.25177e+7 
           3990      1.01283e+8 
           4010      1.04523e+8 
           4030       1.0334e+8 
           4050      1.02113e+8 
           4070       9.9947e+7 
           4090      8.48695e+7 
           4110      6.52181e+7 
           4130      9.53524e+7 
           4150      9.56102e+7 
           4170      9.46693e+7 
           4190      9.35595e+7 
           4210      9.23666e+7 
           4230       9.1131e+7 
           4250      8.99979e+7 
           4270      8.88014e+7 
           4290      8.73818e+7 
           4310      8.52727e+7 
           4330      6.94549e+7 
           4350      5.89209e+7 
           4370       8.1876e+7 
           4390       8.1898e+7 
           4410      8.12459e+7 
           4430      8.03546e+7 
           4450      7.93619e+7 
           4470      7.82932e+7 
           4490      7.71282e+7 
           4510      7.64605e+7 
           4530       7.5528e+7 
           4550      7.45361e+7 
           4570      7.37156e+7 
           4590      7.28332e+7 
           4610      7.20165e+7 
           4630       7.1118e+7 
           4650      7.03037e+7 
           4670      6.94678e+7 
           4690       6.8642e+7 
           4710       6.7775e+7 
           4730      6.70363e+7 
           4750      6.62543e+7 
           4770      6.54747e+7 
           4790      6.46089e+7 
           4810       6.3651e+7 
           4830      6.21706e+7 
           4850      5.21872e+7 
           4870      4.20921e+7 
           4890      5.94742e+7 
           4910      5.99939e+7 
           4930      5.94895e+7 
           4950       5.8996e+7 
           4970      5.83345e+7 
           4990      5.76727e+7 
           5010      5.69775e+7 
           5030      5.63838e+7 
           5050      5.57298e+7 
           5070      5.51356e+7 
           5090      5.45229e+7 
           5110      5.39195e+7 
           5130      5.33209e+7 
           5150      5.27343e+7 
           5170      5.20593e+7 
           5190       5.1533e+7 
           5210      5.10215e+7 
           5230      5.04488e+7 
           5250      4.99231e+7 
           5270      4.93658e+7 
           5290      4.88505e+7 
           5310      4.83149e+7 
           5330      4.78018e+7 
           5350      4.73016e+7 
           5370      4.67945e+7 
           5390      4.62987e+7 
           5410       4.5809e+7 
           5430      4.53252e+7 
           5450      4.48511e+7 
           5470      4.43815e+7 
           5490      4.39175e+7 
           5510      4.34602e+7 
           5530      4.30048e+7 
           5550      4.25633e+7 
           5570      4.21234e+7 
           5590      4.16887e+7 
           5610      4.12615e+7 
           5630      4.08393e+7 
           5650      4.04221e+7 
           5670      4.00097e+7 
           5690      3.96044e+7 
           5710      3.92038e+7 
           5730      3.88078e+7 
           5750      3.84176e+7 
           5770      3.80318e+7 
           5790      3.76515e+7 
           5810      3.72755e+7 
           5830      3.69049e+7 
           5850      3.65385e+7 
           5870      3.61522e+7 
           5890      3.58148e+7 
           5910      3.54682e+7 
           5930      3.51201e+7 
           5950      3.47758e+7 
           5970      3.44365e+7 
           5990      3.41008e+7 
           6010       3.3771e+7 
           6030      3.34448e+7 
           6050      3.31221e+7 
           6070       3.2804e+7 
           6090      3.24894e+7 
           6110      3.21781e+7 
           6130      3.18713e+7 
           6150      3.15627e+7 
           6170      3.12693e+7 
           6190      3.09732e+7 
           6210      3.06812e+7 
           6230      3.03923e+7 
           6250      3.01046e+7 
           6270      2.98256e+7 
           6290      2.95468e+7 
           6310      2.92718e+7 
           6330      2.89997e+7 
           6350      2.87192e+7 
           6370      2.84593e+7 
           6390       2.8203e+7 
           6410      2.79438e+7 
           6430      2.76873e+7 
           6450      2.74299e+7 
           6470      2.71814e+7 
           6490      2.68647e+7 
           6510      2.65461e+7 
           6530      2.60295e+7 
           6550      2.34226e+7 
           6570      1.87305e+7 
           6590       2.4907e+7 
           6610      2.53023e+7 
           6630      2.51962e+7 
           6650      2.50372e+7 
           6670      2.48331e+7 
           6690      2.46133e+7 
           6710      2.43973e+7 
           6730      2.41818e+7 
           6750      2.39693e+7 
           6770      2.37588e+7 
           6790      2.35504e+7 
           6810      2.33441e+7 
           6830      2.31405e+7 
           6850      2.29398e+7 
           6870      2.27401e+7 
           6890      2.25432e+7 
           6910      2.23482e+7 
           6930      2.21559e+7 
           6950      2.19654e+7 
           6970      2.17775e+7 
           6990      2.15906e+7 
           7010      2.14062e+7 
           7030      2.12244e+7 
           7050      2.10442e+7 
           7070      2.08651e+7 
           7090      2.06891e+7 
           7110      2.05139e+7 
           7130       2.0342e+7 
           7150      2.01708e+7 
           7170       2.0002e+7 
           7190      1.98348e+7 
           7210      1.96691e+7 
           7230      1.95057e+7 
           7250      1.93437e+7 
           7270      1.91833e+7 
           7290       1.9025e+7 
           7310      1.88675e+7 
           7330      1.87128e+7 
           7350      1.85587e+7 
           7370      1.84068e+7 
           7390      1.82563e+7 
           7410      1.81078e+7 
           7430      1.79599e+7 
           7450      1.78141e+7 
           7470      1.76695e+7 
           7490       1.7527e+7 
           7510      1.73856e+7 
           7530      1.72462e+7 
           7550      1.71074e+7 
           7570      1.69704e+7 
           7590      1.68347e+7 
           7610      1.67008e+7 
           7630      1.65674e+7 
           7650      1.64358e+7 
           7670      1.63054e+7 
           7690      1.61767e+7 
           7710      1.60486e+7 
           7730      1.59227e+7 
           7750      1.57974e+7 
           7770      1.56269e+7 
           7790      1.55511e+7 
           7810      1.54296e+7 
           7830      1.53091e+7 
           7850      1.51902e+7 
           7870      1.50705e+7 
           7890      1.49519e+7 
           7910      1.48402e+7 
           7930      1.47259e+7 
           7950       1.4612e+7 
           7970      1.45002e+7 
           7990      1.43858e+7 
           8010      1.42788e+7 
           8030      1.41698e+7 
           8050      1.40623e+7 
           8070      1.39551e+7 
           8090      1.38493e+7 
           8110      1.37444e+7 
           8130      1.36404e+7 
           8150      1.35372e+7 
           8170      1.34355e+7 
           8190      1.33334e+7 
           8210      1.32965e+7 
           8230      1.32053e+7 
           8250      1.31153e+7 
           8270      1.30299e+7 
           8290      1.29375e+7 
           8310       1.2836e+7 
           8330      1.27175e+7 
           8350      1.26058e+7 
           8370      1.24161e+7 
           8390       1.2304e+7 
           8410      1.21432e+7 
           8430      1.22129e+7 
           8450       1.2172e+7 
           8470      1.15401e+7 
           8490       1.2482e+7 
           8510      1.12795e+7 
           8530      1.26547e+7 
           8550      1.08011e+7 
           8570      1.28938e+7 
           8590      1.17801e+7 
           8610        1.139e+7 
           8630      1.32013e+7 
           8650      1.27259e+7 
           8670      1.01699e+7 
           8690      1.31169e+7 
           8710      1.34525e+7 
           8730      1.29945e+7 
           8750      9.89965e+6 
           8770      1.23418e+7 
           8790      1.31556e+7 
           8810      1.31415e+7 
           8830      1.29299e+7 
           8850      1.17335e+7 
           8870      9.64797e+6 
           8890      1.23779e+7 
           8910      1.26517e+7 
           8930       1.2615e+7 
           8950        1.253e+7 
           8970       1.2388e+7 
           8990      1.20183e+7 
           9010      9.53424e+6 
           9030      1.05866e+7 
           9050      1.18889e+7 
           9070       1.1962e+7 
           9090      1.19044e+7 
           9110      1.18413e+7 
           9130      1.17655e+7 
           9150      1.16642e+7 
           9170      1.15565e+7 
           9190      1.13916e+7 
