# Kurucz ODFNEW /NOVER (2003)
# teff = 24000 K (value for the effective temperature for the model. Temperatures are given in K)
# logg = 3.5 log(cm/s2) (value for Log(G) for the model.)
# meta = -2  (value for the Metallicity for the model.)
# lh = 1.25  (l/Hp where l is the  mixing length of the convective element and Hp is the pressure scale height)
# vtur = 2 km/s (Microturbulence velocity)
# alpha = 0.4  (Alpha)
#
# column 1: WAVELENGTH (ANGSTROM), Wavelength in Angstrom
# column 2: FLUX (ERG/CM2/S/A), Flux in erg/cm2/s/A
          147.2     4.17208e-15 
            151     2.12446e-14 
          155.2     1.16994e-13 
          158.8     4.69466e-13 
            162      1.5321e-12 
            166     6.29883e-12 
          170.3     2.67004e-11 
          173.4     7.22936e-11 
          176.8     2.06719e-10 
          180.2     5.67472e-10 
          181.7     8.75124e-10 
          186.1      2.99343e-9 
            191      1.09959e-8 
          193.9      2.29952e-8 
          198.4      6.91095e-8 
          201.8      1.53474e-7 
            205      3.17197e-7 
          210.5      1.04678e-6 
          216.2      3.37572e-6 
          219.8      6.84393e-6 
            223      1.25725e-5 
          226.8       2.5291e-5 
            230     0.000548686 
            234      0.00130338 
            240      0.00323516 
          246.5      0.00824484 
          252.4       0.0186544 
          256.8       0.0311632 
            260       0.0494886 
            264       0.0805501 
          268.5        0.137174 
          273.5        0.242056 
          278.5        0.419136 
            284        0.749853 
            290         1.37258 
            296         2.44516 
            301         3.86064 
            308         6.86432 
            318         16.8188 
            328         36.6455 
            338         76.8964 
            348         153.334 
            357         277.502 
            366         486.787 
            375         817.942 
            385          1426.6 
            395            2399 
            405         3928.64 
            414         6010.67 
            422         8562.96 
            430         12031.3 
            441         18937.5 
            451         28008.2 
            460         39006.5 
            470         55622.6 
            480           77846 
            490          107449 
            500          146219 
            506      1.07189e+6 
            512      3.07283e+6 
            520      3.65639e+6 
            530       4.7796e+6 
            540      5.12163e+6 
            550       6.9576e+6 
            560      8.07409e+6 
            570      9.59019e+6 
            580      9.63852e+6 
            590      1.23376e+7 
            600      1.45951e+7 
            610      1.69128e+7 
            620      1.89943e+7 
            630      2.16793e+7 
            640      2.37341e+7 
            650      2.68543e+7 
            658      2.98903e+7 
            665      3.20943e+7 
            675      3.47141e+7 
            685      3.80555e+7 
            695      4.36009e+7 
            705      4.70608e+7 
            716       5.2607e+7 
            726      5.69787e+7 
            735      6.19434e+7 
            745      6.79508e+7 
            755      7.36573e+7 
            765      7.94368e+7 
            775      8.62377e+7 
            785      9.30292e+7 
            795      9.91856e+7 
            805       1.0648e+8 
            815      1.13151e+8 
            825      1.21411e+8 
            835      1.25453e+8 
            845      1.36235e+8 
            855      1.44039e+8 
            865      1.53265e+8 
            875      1.62826e+8 
            885      1.72442e+8 
            895      1.81633e+8 
            905      1.88865e+8 
            915       3.3937e+8 
            925      3.82698e+9 
            935      9.40849e+9 
            945     1.88136e+10 
            955     2.16766e+10 
            965      2.5821e+10 
            975     1.23308e+10 
            985     2.55255e+10 
            995     2.42006e+10 
           1005     2.49612e+10 
           1015     2.39394e+10 
           1025     1.27976e+10 
           1035     2.19987e+10 
           1045      2.5113e+10 
           1055     2.43031e+10 
           1065     2.22917e+10 
           1075     2.31184e+10 
           1085     2.16602e+10 
           1095     2.28116e+10 
           1105     2.16962e+10 
           1115     2.14651e+10 
           1125     2.00934e+10 
           1135     2.10142e+10 
           1145     1.98025e+10 
           1155     2.02134e+10 
           1165     2.00105e+10 
           1175     1.73233e+10 
           1185     1.91739e+10 
           1195     1.80413e+10 
           1205     1.58125e+10 
           1215      8.85128e+9 
           1225     1.67879e+10 
           1235     1.75226e+10 
           1245     1.71742e+10 
           1255     1.69093e+10 
           1265     1.65618e+10 
           1275     1.65584e+10 
           1285     1.62175e+10 
           1295     1.46893e+10 
           1305      1.4873e+10 
           1315     1.53354e+10 
           1325     1.48589e+10 
           1335     1.43277e+10 
           1345     1.43557e+10 
           1355     1.43311e+10 
           1365     1.38548e+10 
           1375     1.36588e+10 
           1385     1.35057e+10 
           1395     1.24741e+10 
           1405     1.25121e+10 
           1415     1.27082e+10 
           1425     1.24898e+10 
           1435     1.23667e+10 
           1442     1.23067e+10 
           1447     1.21745e+10 
           1455     1.19813e+10 
           1465     1.17408e+10 
           1475     1.15508e+10 
           1485     1.13494e+10 
           1495     1.11356e+10 
           1505     1.07757e+10 
           1512      1.0659e+10 
           1517     1.06288e+10 
           1525     1.04669e+10 
           1535     1.00115e+10 
           1545      9.93469e+9 
           1555      9.66056e+9 
           1565      9.72608e+9 
           1575      9.66447e+9 
           1585      9.51127e+9 
           1595      9.38971e+9 
           1605      9.08032e+9 
           1615      8.92546e+9 
           1625       8.8676e+9 
           1635      8.79469e+9 
           1645      8.52506e+9 
           1655      8.53156e+9 
           1665      8.40683e+9 
           1672      8.28146e+9 
           1677      8.33316e+9 
           1685      8.20313e+9 
           1695      8.02664e+9 
           1705      7.86343e+9 
           1715      7.67311e+9 
           1725      7.57909e+9 
           1735      7.51062e+9 
           1745      7.38408e+9 
           1755      7.31791e+9 
           1765      7.09385e+9 
           1775      7.01259e+9 
           1785       6.9463e+9 
           1795      6.88993e+9 
           1805      6.81785e+9 
           1815      6.65167e+9 
           1825      6.57988e+9 
           1835      6.48039e+9 
           1845       6.2171e+9 
           1855      6.08445e+9 
           1865      6.07873e+9 
           1875      6.07696e+9 
           1885      5.80612e+9 
           1895       5.6102e+9 
           1905      5.72648e+9 
           1915      5.53677e+9 
           1925      5.43039e+9 
           1935      5.46255e+9 
           1945      5.45233e+9 
           1955      5.20183e+9 
           1967      5.26854e+9 
           1976      5.28685e+9 
           1984      5.12246e+9 
           1995      4.97318e+9 
           2005      5.01366e+9 
           2015      4.99584e+9 
           2025      4.96343e+9 
           2035      4.82699e+9 
           2045      4.76188e+9 
           2055      4.60324e+9 
           2065      4.56248e+9 
           2074      4.61975e+9 
           2078      4.50522e+9 
           2085       4.5096e+9 
           2095      4.40537e+9 
           2105      4.41377e+9 
           2115      4.37853e+9 
           2125      4.34843e+9 
           2135      4.28225e+9 
           2145      4.20091e+9 
           2155      4.17053e+9 
           2165      4.12148e+9 
           2175      4.06161e+9 
           2185      4.01339e+9 
           2195       3.9687e+9 
           2205       3.9162e+9 
           2215      3.86625e+9 
           2225      3.81164e+9 
           2235      3.75936e+9 
           2245      3.72041e+9 
           2255      3.66674e+9 
           2265      3.62658e+9 
           2275      3.58094e+9 
           2285      3.53776e+9 
           2295      3.45077e+9 
           2305      3.44706e+9 
           2315      3.40076e+9 
           2325      3.35965e+9 
           2335      3.31096e+9 
           2345      3.27607e+9 
           2355      3.23955e+9 
           2365      3.19921e+9 
           2375      3.15823e+9 
           2385      3.11882e+9 
           2395      3.08114e+9 
           2405      3.04496e+9 
           2415      3.00422e+9 
           2425      2.97373e+9 
           2435      2.93474e+9 
           2445      2.90133e+9 
           2455      2.86862e+9 
           2465      2.83392e+9 
           2475      2.79987e+9 
           2485      2.76647e+9 
           2495      2.66693e+9 
           2505      2.70037e+9 
           2513      2.65947e+9 
           2518      2.65551e+9 
           2525      2.63762e+9 
           2535      2.60753e+9 
           2545      2.55962e+9 
           2555      2.54389e+9 
           2565      2.51494e+9 
           2575      2.49016e+9 
           2585      2.46146e+9 
           2595      2.43357e+9 
           2605      2.42192e+9 
           2615       2.3944e+9 
           2625      2.36607e+9 
           2635      2.33409e+9 
           2645      2.30916e+9 
           2655      2.28084e+9 
           2665      2.25203e+9 
           2675      2.22606e+9 
           2685      2.21369e+9 
           2695      2.17312e+9 
           2705      2.16368e+9 
           2715      2.14015e+9 
           2725      2.10159e+9 
           2735      2.09255e+9 
           2745      2.06808e+9 
           2755      2.04639e+9 
           2765      2.00954e+9 
           2775      2.00374e+9 
           2785      1.98141e+9 
           2795      1.93871e+9 
           2805      1.93104e+9 
           2815      1.91849e+9 
           2825      1.88128e+9 
           2835      1.86545e+9 
           2845      1.85762e+9 
           2855      1.83742e+9 
           2865      1.81828e+9 
           2875      1.79909e+9 
           2885      1.78044e+9 
           2895      1.76151e+9 
           2910      1.73352e+9 
           2930      1.69739e+9 
           2950       1.6525e+9 
           2970      1.62874e+9 
           2990      1.59518e+9 
           3010      1.56233e+9 
           3030      1.53172e+9 
           3050      1.50109e+9 
           3070      1.47124e+9 
           3090       1.4392e+9 
           3110      1.41338e+9 
           3130       1.3868e+9 
           3150      1.35964e+9 
           3170      1.33272e+9 
           3190      1.29718e+9 
           3210      1.28165e+9 
           3230       1.2568e+9 
           3250      1.23278e+9 
           3270      1.21077e+9 
           3290      1.18628e+9 
           3310      1.16577e+9 
           3330      1.14396e+9 
           3350      1.12074e+9 
           3370        1.102e+9 
           3390      1.08179e+9 
           3410      1.06208e+9 
           3430      1.03788e+9 
           3450       1.0155e+9 
           3470      1.00017e+9 
           3490      9.82427e+8 
           3510      9.69612e+8 
           3530      9.53214e+8 
           3550      9.36704e+8 
           3570      9.24169e+8 
           3590      9.03202e+8 
           3610      8.88655e+8 
           3630      8.71942e+8 
           3640      8.69631e+8 
           3650      8.60066e+8 
           3670      8.48647e+8 
           3690       8.2503e+8 
           3710      8.04663e+8 
           3730      7.86905e+8 
           3750      8.50411e+8 
           3770      8.52624e+8 
           3790      8.81075e+8 
           3810       9.1192e+8 
           3830      8.09605e+8 
           3850      9.22806e+8 
           3870      9.14752e+8 
           3890        7.724e+8 
           3910      8.96378e+8 
           3930      8.77545e+8 
           3950      8.66435e+8 
           3970      7.16629e+8 
           3990      8.34692e+8 
           4010      8.22568e+8 
           4030      7.85405e+8 
           4050      8.01324e+8 
           4070       7.8453e+8 
           4090       7.4386e+8 
           4110      6.61168e+8 
           4130      7.39306e+8 
           4150      7.30207e+8 
           4170      7.22504e+8 
           4190      7.12233e+8 
           4210      7.01018e+8 
           4230      6.89541e+8 
           4250      6.77936e+8 
           4270      6.65629e+8 
           4290      6.56039e+8 
           4310      6.44002e+8 
           4330      6.02039e+8 
           4350      5.52477e+8 
           4370      6.12985e+8 
           4390      5.94061e+8 
           4410      5.95601e+8 
           4430      5.84802e+8 
           4450      5.77845e+8 
           4470      5.51173e+8 
           4490      5.59728e+8 
           4510      5.51589e+8 
           4530      5.43094e+8 
           4550      5.34454e+8 
           4570      5.26107e+8 
           4590      5.18296e+8 
           4610      5.10635e+8 
           4630      5.03017e+8 
           4650      4.93978e+8 
           4670      4.87752e+8 
           4690      4.80518e+8 
           4710      4.67989e+8 
           4730      4.66532e+8 
           4750      4.59455e+8 
           4770      4.53177e+8 
           4790       4.4651e+8 
           4810      4.39874e+8 
           4830      4.32298e+8 
           4850      4.09586e+8 
           4870      3.69758e+8 
           4890      4.13279e+8 
           4910      4.08981e+8 
           4930      3.95967e+8 
           4950      3.97463e+8 
           4970      3.91998e+8 
           4990      3.86456e+8 
           5010      3.76893e+8 
           5030      3.75674e+8 
           5050      3.68317e+8 
           5070      3.65285e+8 
           5090      3.60209e+8 
           5110      3.55231e+8 
           5130      3.50319e+8 
           5150      3.45487e+8 
           5170       3.4079e+8 
           5190      3.36168e+8 
           5210      3.31538e+8 
           5230      3.27121e+8 
           5250      3.22706e+8 
           5270      3.18362e+8 
           5290      3.14102e+8 
           5310      3.09896e+8 
           5330      3.05771e+8 
           5350      3.01699e+8 
           5370      2.97732e+8 
           5390      2.93802e+8 
           5410      2.89934e+8 
           5430      2.86129e+8 
           5450      2.82409e+8 
           5470      2.78736e+8 
           5490      2.75134e+8 
           5510      2.71589e+8 
           5530      2.68088e+8 
           5550      2.64655e+8 
           5570      2.61265e+8 
           5590       2.5794e+8 
           5610      2.54643e+8 
           5630      2.51435e+8 
           5650      2.48218e+8 
           5670      2.45076e+8 
           5690      2.41971e+8 
           5710      2.39008e+8 
           5730      2.36035e+8 
           5750      2.33051e+8 
           5770      2.30216e+8 
           5790       2.2737e+8 
           5810      2.24568e+8 
           5830      2.21811e+8 
           5850      2.19097e+8 
           5870      2.10926e+8 
           5890      2.13655e+8 
           5910      2.11198e+8 
           5930      2.08629e+8 
           5950      2.06112e+8 
           5970      2.03655e+8 
           5990      2.01205e+8 
           6010      1.98805e+8 
           6030      1.96442e+8 
           6050      1.94105e+8 
           6070      1.91816e+8 
           6090      1.89542e+8 
           6110      1.87315e+8 
           6130      1.85122e+8 
           6150      1.82944e+8 
           6170       1.8082e+8 
           6190      1.78719e+8 
           6210      1.76651e+8 
           6230      1.74607e+8 
           6250      1.72594e+8 
           6270      1.70603e+8 
           6290      1.68654e+8 
           6310      1.66725e+8 
           6330      1.64827e+8 
           6350      1.62922e+8 
           6370      1.61092e+8 
           6390      1.59283e+8 
           6410      1.57493e+8 
           6430      1.55722e+8 
           6450      1.53979e+8 
           6470      1.52254e+8 
           6490      1.50557e+8 
           6510      1.48887e+8 
           6530      1.46996e+8 
           6550      1.42394e+8 
           6570      1.28096e+8 
           6590      1.41625e+8 
           6610      1.40855e+8 
           6630      1.39338e+8 
           6650      1.37905e+8 
           6670      1.35284e+8 
           6690      1.33845e+8 
           6710      1.33475e+8 
           6730      1.32026e+8 
           6750      1.30616e+8 
           6770      1.29221e+8 
           6790      1.27823e+8 
           6810      1.26472e+8 
           6830      1.25127e+8 
           6850      1.23803e+8 
           6870      1.22493e+8 
           6890      1.21204e+8 
           6910      1.19927e+8 
           6930      1.18671e+8 
           6950      1.17427e+8 
           6970      1.16204e+8 
           6990      1.14985e+8 
           7010      1.13801e+8 
           7030       1.1262e+8 
           7050      1.11459e+8 
           7070      1.08621e+8 
           7090      1.09178e+8 
           7110      1.08058e+8 
           7130      1.06956e+8 
           7150      1.05865e+8 
           7170       1.0477e+8 
           7190      1.03729e+8 
           7210      1.02683e+8 
           7230      1.01517e+8 
           7250      1.00614e+8 
           7270      9.96122e+7 
           7290      9.78329e+7 
           7310      9.76156e+7 
           7330      9.66559e+7 
           7350      9.56982e+7 
           7370      9.47495e+7 
           7390      9.38097e+7 
           7410      9.28854e+7 
           7430      9.19698e+7 
           7450       9.1083e+7 
           7470      9.01841e+7 
           7490      8.93069e+7 
           7510      8.84043e+7 
           7530      8.75766e+7 
           7550      8.67299e+7 
           7570      8.58909e+7 
           7590      8.50596e+7 
           7610      8.42423e+7 
           7630      8.34323e+7 
           7650      8.26362e+7 
           7670      8.18472e+7 
           7690      8.10652e+7 
           7710      8.02903e+7 
           7730      7.95349e+7 
           7750      7.87737e+7 
           7770      7.80192e+7 
           7790      7.73025e+7 
           7810       7.6518e+7 
           7830      7.58573e+7 
           7850      7.52267e+7 
           7870      7.45224e+7 
           7890       7.3782e+7 
           7910      7.31505e+7 
           7930      7.23806e+7 
           7950      7.16294e+7 
           7970      7.09204e+7 
           7990      7.02944e+7 
           8010      6.96267e+7 
           8030      6.90233e+7 
           8050      6.84365e+7 
           8070      6.78432e+7 
           8090      6.70995e+7 
           8110      6.65513e+7 
           8130      6.60533e+7 
           8150      6.53211e+7 
           8170      6.48832e+7 
           8190      6.42016e+7 
           8210      6.35147e+7 
           8230      6.31452e+7 
           8250      6.25959e+7 
           8270      6.17041e+7 
           8290      6.14067e+7 
           8310      6.08824e+7 
           8330      6.03244e+7 
           8350      5.94954e+7 
           8370        5.912e+7 
           8390      5.86779e+7 
           8410      5.81328e+7 
           8430      5.75393e+7 
           8450      5.67185e+7 
           8470      5.63039e+7 
           8490      5.61017e+7 
           8510      5.50632e+7 
           8530      5.53334e+7 
           8550      5.33227e+7 
           8570      5.51976e+7 
