# Kurucz ODFNEW /NOVER (2003)
# teff = 3500 K (value for the effective temperature for the model. Temperatures are given in K)
# logg = 3 log(cm/s2) (value for Log(G) for the model.)
# meta = -4  (value for the Metallicity for the model.)
# lh = 1.25  (l/Hp where l is the  mixing length of the convective element and Hp is the pressure scale height)
# vtur = 2 km/s (Microturbulence velocity)
# alpha = 0.4  (Alpha)
#
# column 1: WAVELENGTH (ANGSTROM), Wavelength in Angstrom
# column 2: FLUX (ERG/CM2/S/A), Flux in erg/cm2/s/A
          147.2     1.73866e-35 
            151     1.65225e-35 
          155.2     1.56403e-35 
          158.8     1.49392e-35 
            162     1.43549e-35 
            166     1.36714e-35 
          170.3     1.29897e-35 
          173.4     1.25294e-35 
          176.8     1.20522e-35 
          180.2     1.16017e-35 
          181.7     1.14109e-35 
          186.1     1.08777e-35 
            191     1.03267e-35 
          193.9     1.00201e-35 
          198.4     9.57076e-36 
          201.8     9.25097e-36 
            205     8.96441e-36 
          210.5     8.50208e-36 
          216.2     8.05969e-36 
          219.8     7.79784e-36 
            223     7.57565e-36 
          226.8     7.32392e-36 
            230     7.12154e-36 
            234     6.88015e-36 
            240     6.54044e-36 
          246.5     6.20006e-36 
          252.4     5.91358e-36 
          256.8     5.71267e-36 
            260     5.57292e-36 
            264     5.40532e-36 
          268.5     5.22566e-36 
          273.5     5.03634e-36 
          278.5     4.85712e-36 
            284     4.67082e-36 
            290     4.47954e-36 
            296     4.29978e-36 
            301     4.15812e-36 
            308     3.97126e-36 
            318     3.72542e-36 
            328     3.50172e-36 
            338     3.29759e-36 
            348     3.11079e-36 
            357     2.95592e-36 
            366     2.81234e-36 
            375     2.67896e-36 
            385     2.54161e-36 
            395     2.41455e-36 
            405     2.29678e-36 
            414     2.19801e-36 
            422     2.11546e-36 
            430     2.03748e-36 
            441      1.9371e-36 
            451     1.85215e-36 
            460     1.78038e-36 
            470     1.70543e-36 
            480     1.63511e-36 
            490     1.56905e-36 
            500     1.50692e-36 
            506     1.47139e-36 
            512     1.43711e-36 
            520     1.39323e-36 
            530     1.34115e-36 
            540     1.29194e-36 
            550     1.24539e-36 
            560     1.20131e-36 
            570     1.15952e-36 
            580     1.11989e-36 
            590     1.08224e-36 
            600     1.04647e-36 
            610     1.01244e-36 
            620     9.80045e-37 
            630      9.4918e-37 
            640      9.1975e-37 
            650     8.91667e-37 
            658     8.70117e-37 
            665     8.51895e-37 
            675     8.26841e-37 
            685     8.02876e-37 
            695     7.79938e-37 
            705     7.57969e-37 
            716     7.34858e-37 
            726     7.14754e-37 
            735     6.97357e-37 
            745     6.78761e-37 
            755       6.609e-37 
            765     6.43734e-37 
            775     6.27229e-37 
            785      6.1135e-37 
            795     5.96067e-37 
            805      5.8135e-37 
            815     5.67171e-37 
            825     5.53505e-37 
            835     5.40327e-37 
            845     5.27614e-37 
            855     5.15344e-37 
            865     5.03498e-37 
            875     4.92055e-37 
            885     4.80998e-37 
            895     4.70309e-37 
            905     4.59973e-37 
            915     2.55126e-21 
            925     1.65732e-20 
            935     3.47536e-20 
            945     7.17327e-20 
            955     1.45297e-19 
            965     2.86783e-19 
            975     5.61671e-19 
            985     1.46393e-18 
            995     2.77452e-18 
           1005     5.23716e-18 
           1015     9.72664e-18 
           1025     1.78001e-17 
           1035     4.02358e-17 
           1045      7.2053e-17 
           1055     1.01999e-16 
           1065       2.221e-16 
           1075     3.85328e-16 
           1085     6.55358e-16 
           1095     1.11684e-15 
           1105     2.25222e-15 
           1115     3.78298e-15 
           1125     6.19496e-15 
           1135     1.19904e-14 
           1145      1.9341e-14 
           1155     3.12166e-14 
           1165     4.91638e-14 
           1175     8.87069e-14 
           1185     1.43448e-13 
           1195     2.13579e-13 
           1205     3.25404e-13 
           1215     3.14582e-13 
           1225      7.5543e-13 
           1235     1.28988e-12 
           1245     1.71487e-12 
           1255     2.95925e-12 
           1265     5.31632e-12 
           1275     7.78731e-12 
           1285     1.50587e-11 
           1295     2.09108e-11 
           1305     4.93723e-11 
           1315     8.01421e-11 
           1325     1.54556e-10 
           1335     1.87591e-10 
           1345     3.59669e-10 
           1355     5.18981e-10 
           1365     9.70502e-10 
           1375      1.43022e-9 
           1385      1.97141e-9 
           1395      2.83298e-9 
           1405      4.15199e-9 
           1415       7.3501e-9 
           1425      8.88066e-9 
           1435      1.51504e-8 
           1442      2.39133e-8 
           1447       1.9189e-8 
           1455      2.96024e-8 
           1465      3.51133e-8 
           1475      4.97711e-8 
           1485      6.25427e-8 
           1495       1.0845e-7 
           1505      1.64991e-7 
           1512      1.40729e-7 
           1517      1.55834e-7 
           1525      3.42335e-7 
           1535      1.01419e-6 
           1545      7.66329e-7 
           1555       1.3354e-6 
           1565      1.33834e-6 
           1575      1.99662e-6 
           1585      2.38509e-6 
           1595      2.49907e-6 
           1605      2.87955e-6 
           1615      4.93721e-6 
           1625      7.20724e-6 
           1635      1.24554e-5 
           1645      2.64182e-5 
           1655      2.85866e-5 
           1665      6.92857e-5 
           1672      8.93653e-5 
           1677     0.000163721 
           1685      0.00024591 
           1695     0.000402833 
           1705     0.000579526 
           1715     0.000840692 
           1725      0.00143228 
           1735      0.00191467 
           1745      0.00313221 
           1755      0.00363223 
           1765       0.0046335 
           1775      0.00489209 
           1785       0.0105768 
           1795      0.00968709 
           1805       0.0167087 
           1815       0.0136341 
           1825       0.0208599 
           1835       0.0229256 
           1845       0.0262237 
           1855       0.0269807 
           1865       0.0526358 
           1875       0.0533039 
           1885       0.0719483 
           1895       0.0996779 
           1905        0.103335 
           1915        0.158757 
           1925        0.149914 
           1935       0.0914228 
           1945        0.223786 
           1955        0.316502 
           1967        0.395377 
           1976        0.431458 
           1984        0.527827 
           1995        0.562213 
           2005        0.688005 
           2015        0.832192 
           2025        0.547102 
           2035         1.03634 
           2045         1.22747 
           2055         1.40414 
           2065         1.46178 
           2074         1.36487 
           2078         1.95882 
           2085         2.20384 
           2095         3.01305 
           2105          3.2892 
           2115          4.0516 
           2125         3.74133 
           2135         5.93572 
           2145         5.16692 
           2155         6.34142 
           2165         5.60976 
           2175         6.56338 
           2185         6.97485 
           2195         10.3158 
           2205         9.80251 
           2215         8.94711 
           2225         10.7579 
           2235         17.4525 
           2245         20.7088 
           2255         20.3455 
           2265         13.2914 
           2275         19.8438 
           2285         25.4132 
           2295         31.0237 
           2305         17.2715 
           2315         41.7724 
           2325         42.2251 
           2335         64.6052 
           2345         43.8392 
           2355         46.4185 
           2365         52.5379 
           2375         52.6641 
           2385         73.2633 
           2395         77.8807 
           2405         116.301 
           2415         84.3087 
           2425         107.946 
           2435         139.573 
           2445         176.113 
           2455         193.727 
           2465         145.553 
           2475         161.863 
           2485          62.971 
           2495         107.088 
           2505         148.602 
           2513         93.7294 
           2518         53.4073 
           2525         85.4486 
           2535         231.177 
           2545         260.685 
           2555          387.56 
           2565         377.083 
           2575         436.397 
           2585         481.653 
           2595         480.991 
           2605         518.143 
           2615         499.643 
           2625         605.009 
           2635         726.956 
           2645         778.873 
           2655          937.09 
           2665         914.582 
           2675         919.708 
           2685         1006.98 
           2695         944.699 
           2705          1134.3 
           2715         963.337 
           2725         799.259 
           2735         1002.89 
           2745         1042.09 
           2755         1093.75 
           2765         1390.93 
           2775         1389.58 
           2785         1220.16 
           2795         796.376 
           2805         910.554 
           2815         1133.48 
           2825         1067.17 
           2835         792.577 
           2845         372.088 
           2855         117.252 
           2865         688.265 
           2875         1178.28 
           2885         1530.64 
           2895         1953.54 
           2910         2494.31 
           2930         2984.73 
           2950         3031.24 
           2970         3092.37 
           2990         3490.78 
           3010         3648.21 
           3030         4010.01 
           3050         4747.94 
           3070         3940.57 
           3090         3714.62 
           3110         4823.58 
           3130         5328.56 
           3150          5950.6 
           3170         7701.87 
           3190         8084.65 
           3210         9458.73 
           3230         10039.2 
           3250         12377.8 
           3270         14787.1 
           3290         15018.2 
           3310         13635.2 
           3330         12902.8 
           3350         12602.5 
           3370         9281.82 
           3390         12960.9 
           3410         15603.3 
           3430         19493.1 
           3450         19100.3 
           3470         21820.2 
           3490         25374.3 
           3510         28418.4 
           3530           29524 
           3550         35348.7 
           3570         30206.6 
           3590         31037.3 
           3610         35542.1 
           3630         38945.5 
           3640         42061.3 
           3650         40784.9 
           3670         46867.1 
           3690         45701.9 
           3710         44966.9 
           3730         31967.9 
           3750           38770 
           3770         54276.7 
           3790         58308.2 
           3810         60521.3 
           3830         45796.5 
           3850         58594.2 
           3870         56201.7 
           3890         58712.3 
           3910         64160.4 
           3930         37121.9 
           3950         65803.6 
           3970           49952 
           3990         85054.7 
           4010         94551.9 
           4030         90623.5 
           4050         98373.4 
           4070         98850.8 
           4090          100395 
           4110         70902.9 
           4130         85126.3 
           4150         74963.1 
           4170         80766.9 
           4190         91802.1 
           4210         92719.5 
           4230         96276.8 
           4250          109971 
           4270          109674 
           4290          108169 
           4310          108283 
           4330          141880 
           4350          144996 
           4370          146810 
           4390          149461 
           4410          161649 
           4430          172394 
           4450          178762 
           4470          185715 
           4490          191484 
           4510          198903 
           4530          194103 
           4550          204829 
           4570          211229 
           4590          217689 
           4610          222151 
           4630          229655 
           4650          230210 
           4670          238659 
           4690          241903 
           4710          246595 
           4730          250475 
           4750          253847 
           4770          252319 
           4790          256176 
           4810          269519 
           4830          272750 
           4850          280115 
           4870          284284 
           4890          289084 
           4910          295203 
           4930          294797 
           4950          297125 
           4970          303218 
           4990          295573 
           5010          287904 
           5030          294613 
           5050          288000 
           5070          285805 
           5090          283462 
           5110          274120 
           5130          270642 
           5150          257521 
           5170          251600 
           5190          287441 
           5210          294454 
           5230          366332 
           5250          374946 
           5270          366286 
           5290          385479 
           5310          393723 
           5330          384926 
           5350          397532 
           5370          400076 
           5390          403908 
           5410          407002 
           5430          408571 
           5450          411831 
           5470          426087 
           5490          429975 
           5510          429775 
           5530          440975 
           5550          445251 
           5570          448810 
           5590          450487 
           5610          457863 
           5630          464766 
           5650          470792 
           5670          474438 
           5690          478904 
           5710          481876 
           5730          486848 
           5750          491215 
           5770          495114 
           5790          498971 
           5810          502773 
           5830          507055 
           5850          510353 
           5870          514239 
           5890          485798 
           5910          521410 
           5930          525280 
           5950          528789 
           5970          533063 
           5990          536733 
           6010          540249 
           6030          543975 
           6050          547394 
           6070          550561 
           6090          553868 
           6110          556737 
           6130          555165 
           6150          563662 
           6170          560073 
           6190          570166 
           6210          573269 
           6230          575758 
           6250          577133 
           6270          581209 
           6290          585432 
           6310          588738 
           6330          591802 
           6350          595358 
           6370          598106 
           6390          600826 
           6410          602795 
           6430          605147 
           6450          606308 
           6470          609414 
           6490          610708 
           6510          616997 
           6530          620106 
           6550          621822 
           6570          622929 
           6590          627187 
           6610          629795 
           6630          632472 
           6650          634764 
           6670          636594 
           6690          639469 
           6710          641520 
           6730          644092 
           6750          645540 
           6770          648356 
           6790          650385 
           6810          652516 
           6830          654661 
           6850          656648 
           6870          658298 
           6890          660378 
           6910          662163 
           6930          664073 
           6950          665497 
           6970          667709 
           6990          669214 
           7010          671104 
           7030          672620 
           7050          674713 
           7070          675838 
           7090          677517 
           7110          679001 
           7130          680726 
           7150          680873 
           7170          683565 
           7190          684920 
           7210          685277 
           7230          687826 
           7250          688172 
           7270          690386 
           7290          691884 
           7310          692904 
           7330          693777 
           7350          694553 
           7370          696143 
           7390          697209 
           7410          698253 
           7430          699208 
           7450          700278 
           7470          701529 
           7490          702555 
           7510          703427 
           7530          704479 
           7550          705246 
           7570          706324 
           7590          707118 
           7610          707960 
           7630          708783 
           7650          709460 
           7670          708326 
           7690          710698 
           7710          710628 
           7730          712189 
           7750          712407 
           7770          713486 
           7790          713987 
           7810          714658 
           7830          715068 
           7850          715463 
           7870          716089 
           7890          716518 
           7910          716813 
           7930          717276 
           7950          717486 
           7970          718101 
           7990          718346 
           8010          718638 
           8030          718919 
           8050          718839 
           8070          719214 
           8090          719577 
           8110          719813 
           8130          719980 
           8150          720138 
           8170          720228 
           8190          719411 
           8210          720158 
           8230          720388 
           8250          720498 
           8270          720597 
           8290          720578 
           8310          720387 
           8330          716660 
           8350          720310 
           8370          719775 
           8390          711264 
           8410          719177 
           8430          710626 
           8450          719823 
           8470          718319 
           8490          717133 
           8510          704611 
           8530          717465 
           8550          676544 
           8570          718631 
           8590          718301 
