# Kurucz ODFNEW /NOVER (2003)
# teff = 7000 K (value for the effective temperature for the model. Temperatures are given in K)
# logg = 1.5 log(cm/s2) (value for Log(G) for the model.)
# meta = -2  (value for the Metallicity for the model.)
# lh = 1.25  (l/Hp where l is the  mixing length of the convective element and Hp is the pressure scale height)
# vtur = 2 km/s (Microturbulence velocity)
# alpha = 0.4  (Alpha)
#
# column 1: WAVELENGTH (ANGSTROM), Wavelength in Angstrom
# column 2: FLUX (ERG/CM2/S/A), Flux in erg/cm2/s/A
            375     8.02028e-24 
            385     1.07108e-22 
            395     8.15006e-22 
            405      5.4792e-21 
            414     2.80268e-20 
            422     1.12555e-19 
            430     4.28441e-19 
            441     2.48046e-18 
            451     2.81212e-19 
            460      9.7104e-19 
            470     3.62762e-18 
            480     1.27751e-17 
            490     4.26076e-17 
            500     1.34834e-16 
            506      1.1191e-14 
            512     3.12284e-14 
            520     7.66263e-14 
            530     4.84478e-15 
            540     1.26772e-14 
            550     3.23377e-14 
            560     7.90867e-14 
            570     1.86927e-13 
            580     4.22969e-13 
            590     9.49367e-13 
            600     2.04669e-12 
            610     4.29225e-12 
            620     8.76847e-12 
            630     1.74725e-11 
            640     3.40179e-11 
            650     6.47564e-11 
            658     1.06702e-10 
            665     1.63394e-10 
            675     2.95273e-10 
            685     5.23435e-10 
            695     9.11123e-10 
            705      1.55823e-9 
            716       2.7588e-9 
            726      4.55934e-9 
            735      7.07468e-9 
            745      1.13686e-8 
            755      1.80128e-8 
            765      2.81557e-8 
            775       4.3445e-8 
            785      6.62031e-8 
            795      9.96326e-8 
            805      1.48349e-7 
            815      2.18389e-7 
            825      3.18099e-7 
            835      4.58684e-7 
            845      6.54874e-7 
            855      9.26125e-7 
            865      1.29782e-6 
            875      1.80235e-6 
            885      2.48253e-6 
            895      3.39107e-6 
            905      4.59467e-6 
            915       0.0248818 
            925        0.123279 
            935        0.165417 
            945        0.246053 
            955        0.360899 
            965        0.426277 
            975        0.368421 
            985        0.794288 
            995          0.9625 
           1005          1.1932 
           1015         1.10102 
           1025         1.28001 
           1035         1.92809 
           1045         3.03885 
           1055         3.95032 
           1065         4.83075 
           1075         6.03582 
           1085         7.40418 
           1095         8.74063 
           1105         21.7181 
           1115         47.2902 
           1125         54.9783 
           1135         64.2375 
           1145         66.4853 
           1155         59.5526 
           1165         58.9982 
           1175         49.7631 
           1185         148.527 
           1195         21.4553 
           1205         13.3968 
           1215         4.87938 
           1225          16.163 
           1235         39.7323 
           1245         60.0303 
           1255           103.6 
           1265         156.441 
           1275         220.929 
           1285         327.169 
           1295         456.741 
           1305         571.523 
           1315          784.82 
           1325         1002.24 
           1335         1288.79 
           1345         1640.28 
           1355         1947.78 
           1365         2365.45 
           1375         2832.91 
           1385         3365.62 
           1395         3987.74 
           1405         4724.13 
           1415         5672.13 
           1425         6702.98 
           1435         7528.46 
           1442         9454.45 
           1447         9902.91 
           1455         12181.7 
           1465         13343.5 
           1475         15953.2 
           1485         19403.4 
           1495           23807 
           1505           29185 
           1512           31435 
           1517         24670.1 
           1525         27804.1 
           1535         47635.1 
           1545           63109 
           1555           61806 
           1565         51845.1 
           1575         58338.9 
           1585         60070.4 
           1595         62824.6 
           1605           67037 
           1615          104382 
           1625          185082 
           1635          334546 
           1645          610600 
           1655          507748 
           1665      1.01802e+6 
           1672          725757 
           1677      1.31048e+6 
           1685      1.53811e+6 
           1695      1.62859e+6 
           1705      1.71762e+6 
           1715      2.02312e+6 
           1725      2.07569e+6 
           1735       2.3572e+6 
           1745      2.32556e+6 
           1755      2.64357e+6 
           1765      2.29843e+6 
           1775      2.63778e+6 
           1785      2.72702e+6 
           1795      3.09589e+6 
           1805      2.81435e+6 
           1815      3.02324e+6 
           1825      2.75402e+6 
           1835      3.00535e+6 
           1845      2.78107e+6 
           1855      3.00571e+6 
           1865      3.13939e+6 
           1875      3.23094e+6 
           1885       3.3402e+6 
           1895      3.44415e+6 
           1905      3.26016e+6 
           1915      3.58996e+6 
           1925      3.75558e+6 
           1935       3.4947e+6 
           1945      3.97251e+6 
           1955      3.99338e+6 
           1967      4.19028e+6 
           1976      4.07684e+6 
           1984      4.10222e+6 
           1995      4.09364e+6 
           2005      4.01617e+6 
           2015      4.05435e+6 
           2025      3.85262e+6 
           2035      4.25078e+6 
           2045      4.46803e+6 
           2055      4.32001e+6 
           2065      4.32129e+6 
           2074      4.73684e+6 
           2078      4.81782e+6 
           2085      4.76256e+6 
           2095      4.66665e+6 
           2105       4.6026e+6 
           2115      4.69031e+6 
           2125       4.7881e+6 
           2135      4.13093e+6 
           2145      4.71306e+6 
           2155      4.73659e+6 
           2165       4.5604e+6 
           2175       4.6076e+6 
           2185      4.79514e+6 
           2195      5.15471e+6 
           2205       5.0119e+6 
           2215      4.64509e+6 
           2225      4.77458e+6 
           2235      5.36719e+6 
           2245      4.92108e+6 
           2255      4.78396e+6 
           2265      4.71699e+6 
           2275      5.17233e+6 
           2285      5.32175e+6 
           2295      5.00818e+6 
           2305      5.20371e+6 
           2315      5.24868e+6 
           2325      5.23332e+6 
           2335      4.97964e+6 
           2345      4.42153e+6 
           2355      5.34966e+6 
           2365      4.67374e+6 
           2375      5.21058e+6 
           2385      4.27466e+6 
           2395        4.866e+6 
           2405      4.74785e+6 
           2415       4.9294e+6 
           2425      5.54829e+6 
           2435      5.42784e+6 
           2445      5.68589e+6 
           2455      5.59591e+6 
           2465      5.60175e+6 
           2475      5.35885e+6 
           2485      5.60449e+6 
           2495      5.53091e+6 
           2505       6.1231e+6 
           2513      5.55761e+6 
           2518      5.60478e+6 
           2525      5.26542e+6 
           2535      5.15344e+6 
           2545      5.28902e+6 
           2555      5.71088e+6 
           2565      5.72192e+6 
           2575      6.12255e+6 
           2585      6.14688e+6 
           2595      6.06379e+6 
           2605      5.83523e+6 
           2615      5.73229e+6 
           2625      6.23816e+6 
           2635       6.3743e+6 
           2645        7.177e+6 
           2655      7.19947e+6 
           2665      6.76203e+6 
           2675      6.99008e+6 
           2685      7.13041e+6 
           2695      6.79387e+6 
           2705      6.92599e+6 
           2715      6.61339e+6 
           2725      6.70395e+6 
           2735      7.11937e+6 
           2745      6.08165e+6 
           2755      6.41034e+6 
           2765      6.72574e+6 
           2775      7.17195e+6 
           2785      6.91849e+6 
           2795      4.05947e+6 
           2805      4.81588e+6 
           2815      7.44928e+6 
           2825      7.55855e+6 
           2835      7.44719e+6 
           2845      7.32931e+6 
           2855      6.96284e+6 
           2865      7.42148e+6 
           2875      7.35535e+6 
           2885      7.56516e+6 
           2895      7.47029e+6 
           2910       8.0301e+6 
           2930      7.89144e+6 
           2950      7.89389e+6 
           2970      8.06597e+6 
           2990      8.16912e+6 
           3010      8.29461e+6 
           3030       8.3652e+6 
           3050      8.37977e+6 
           3070      8.34529e+6 
           3090      8.54655e+6 
           3110      8.46464e+6 
           3130      8.51101e+6 
           3150      8.67398e+6 
           3170       8.7422e+6 
           3190      8.48706e+6 
           3210      8.69314e+6 
           3230      8.54682e+6 
           3250      8.77044e+6 
           3270      8.87769e+6 
           3290      9.06001e+6 
           3310      9.14926e+6 
           3330       9.0176e+6 
           3350      8.93576e+6 
           3370      9.02274e+6 
           3390      9.06444e+6 
           3410      9.27463e+6 
           3430      9.36756e+6 
           3450      9.33175e+6 
           3470      9.29457e+6 
           3490       9.3365e+6 
           3510      9.48574e+6 
           3530      9.56902e+6 
           3550      9.66418e+6 
           3570       9.5095e+6 
           3590      9.53392e+6 
           3610      9.60867e+6 
           3630      9.67576e+6 
           3640      9.62239e+6 
           3650      9.79256e+6 
           3670      9.72892e+6 
           3690      1.05243e+7 
           3710      1.36877e+7 
           3730      1.78994e+7 
           3750      2.47933e+7 
           3770      2.60094e+7 
           3790      3.07776e+7 
           3810      3.48361e+7 
           3830      2.81092e+7 
           3850      3.71506e+7 
           3870       3.9766e+7 
           3890      2.59815e+7 
           3910      3.90502e+7 
           3930       3.5256e+7 
           3950      3.89901e+7 
           3970      2.41275e+7 
           3990      3.80513e+7 
           4010      3.95399e+7 
           4030      3.91624e+7 
           4050      3.87857e+7 
           4070      3.77778e+7 
           4090      3.32136e+7 
           4110      2.64503e+7 
           4130      3.66991e+7 
           4150      3.70616e+7 
           4170      3.64794e+7 
           4190      3.62543e+7 
           4210      3.58448e+7 
           4230      3.52961e+7 
           4250      3.50815e+7 
           4270      3.46916e+7 
           4290      3.41233e+7 
           4310      3.27162e+7 
           4330      2.83478e+7 
           4350      2.46733e+7 
           4370      3.27275e+7 
           4390      3.24574e+7 
           4410      3.20861e+7 
           4430      3.23403e+7 
           4450      3.18315e+7 
           4470      3.16001e+7 
           4490      3.13342e+7 
           4510       3.1081e+7 
           4530      3.06272e+7 
           4550      3.00874e+7 
           4570      3.02034e+7 
           4590      2.98818e+7 
           4610      2.99794e+7 
           4630      2.94802e+7 
           4650      2.94014e+7 
           4670      2.91432e+7 
           4690      2.88438e+7 
           4710      2.83123e+7 
           4730       2.8358e+7 
           4750      2.81364e+7 
           4770       2.7843e+7 
           4790      2.75403e+7 
           4810      2.72239e+7 
           4830      2.66953e+7 
           4850      2.33845e+7 
           4870      1.94521e+7 
           4890       2.5737e+7 
           4910      2.60043e+7 
           4930      2.56186e+7 
           4950      2.56642e+7 
           4970      2.55236e+7 
           4990      2.52272e+7 
           5010      2.47815e+7 
           5030      2.48171e+7 
           5050       2.4584e+7 
           5070      2.44227e+7 
           5090      2.42107e+7 
           5110      2.40115e+7 
           5130      2.37574e+7 
           5150      2.35348e+7 
           5170      2.29979e+7 
           5190      2.28322e+7 
           5210      2.28974e+7 
           5230      2.25835e+7 
           5250      2.26277e+7 
           5270      2.21673e+7 
           5290      2.22424e+7 
           5310      2.19816e+7 
           5330      2.17294e+7 
           5350      2.17134e+7 
           5370      2.14827e+7 
           5390      2.13093e+7 
           5410      2.11173e+7 
           5430      2.09467e+7 
           5450       2.0811e+7 
           5470      2.06691e+7 
           5490      2.05076e+7 
           5510      2.03478e+7 
           5530      2.01417e+7 
           5550      2.00421e+7 
           5570      1.98632e+7 
           5590      1.96791e+7 
           5610      1.95451e+7 
           5630      1.94136e+7 
           5650       1.9248e+7 
           5670      1.90914e+7 
           5690      1.89551e+7 
           5710      1.88041e+7 
           5730      1.86696e+7 
           5750      1.85183e+7 
           5770      1.83788e+7 
           5790      1.82341e+7 
           5810      1.80965e+7 
           5830       1.7957e+7 
           5850      1.78124e+7 
           5870      1.76792e+7 
           5890       1.7428e+7 
           5910      1.74105e+7 
           5930      1.72783e+7 
           5950      1.71464e+7 
           5970      1.70179e+7 
           5990      1.68856e+7 
           6010      1.67588e+7 
           6030      1.66312e+7 
           6050      1.65081e+7 
           6070      1.63882e+7 
           6090      1.62645e+7 
           6110       1.6139e+7 
           6130      1.60018e+7 
           6150       1.5864e+7 
           6170      1.57524e+7 
           6190      1.56695e+7 
           6210       1.5555e+7 
           6230       1.5432e+7 
           6250      1.52881e+7 
           6270      1.52156e+7 
           6290      1.51038e+7 
           6310      1.49864e+7 
           6330      1.48815e+7 
           6350      1.47571e+7 
           6370      1.46553e+7 
           6390       1.4561e+7 
           6410      1.44455e+7 
           6430      1.43476e+7 
           6450      1.42053e+7 
           6470      1.41329e+7 
           6490      1.39896e+7 
           6510      1.38789e+7 
           6530      1.36782e+7 
           6550      1.26755e+7 
           6570      1.03231e+7 
           6590      1.32282e+7 
           6610      1.33698e+7 
           6630       1.3327e+7 
           6650       1.3264e+7 
           6670      1.31727e+7 
           6690      1.30831e+7 
           6710      1.29902e+7 
           6730      1.28998e+7 
           6750      1.28045e+7 
           6770      1.27215e+7 
           6790       1.2632e+7 
           6810      1.25449e+7 
           6830      1.24562e+7 
           6850      1.23699e+7 
           6870       1.2286e+7 
           6890      1.22013e+7 
           6910      1.21174e+7 
           6930      1.20334e+7 
           6950      1.19518e+7 
           6970      1.18693e+7 
           6990      1.17892e+7 
           7010       1.1702e+7 
           7030      1.16272e+7 
           7050      1.15492e+7 
           7070      1.14704e+7 
           7090      1.13937e+7 
           7110      1.13044e+7 
           7130      1.12374e+7 
           7150      1.11598e+7 
           7170      1.10859e+7 
           7190      1.10105e+7 
           7210       1.0935e+7 
           7230      1.08631e+7 
           7250      1.07918e+7 
           7270      1.07211e+7 
           7290       1.0646e+7 
           7310      1.05758e+7 
           7330      1.05049e+7 
           7350       1.0438e+7 
           7370      1.03704e+7 
           7390      1.02998e+7 
           7410      1.02271e+7 
           7430      1.01619e+7 
           7450      1.00959e+7 
           7470      1.00271e+7 
           7490      9.96216e+6 
           7510      9.89915e+6 
           7530        9.836e+6 
           7550      9.77339e+6 
           7570      9.70801e+6 
           7590      9.64579e+6 
           7610       9.5828e+6 
           7630      9.52098e+6 
           7650      9.45774e+6 
           7670      9.39504e+6 
           7690       9.3354e+6 
           7710      9.27372e+6 
           7730      9.21697e+6 
           7750      9.15692e+6 
           7770      9.02872e+6 
           7790      9.04139e+6 
           7810      8.98341e+6 
           7830      8.92529e+6 
           7850      8.86642e+6 
           7870      8.80864e+6 
           7890      8.75012e+6 
           7910       8.6993e+6 
           7930       8.6405e+6 
           7950      8.58695e+6 
           7970      8.53679e+6 
           7990      8.47817e+6 
           8010      8.42884e+6 
           8030      8.37522e+6 
           8050      8.32319e+6 
           8070        8.271e+6 
           8090      8.21921e+6 
           8110      8.16784e+6 
           8130      8.11745e+6 
           8150      8.06688e+6 
           8170      8.01614e+6 
           8190      7.95458e+6 
           8210      7.92537e+6 
           8230      7.87744e+6 
           8250      7.82213e+6 
           8270      7.79206e+6 
           8290      7.74025e+6 
           8310      7.67576e+6 
           8330      7.59497e+6 
           8350      7.57754e+6 
           8370      7.43866e+6 
           8390      7.42572e+6 
           8410      7.36168e+6 
           8430      7.46303e+6 
           8450      7.39292e+6 
           8470       7.1354e+6 
           8490      7.61454e+6 
           8510      6.97224e+6 
           8530      7.66911e+6 
           8550      6.72524e+6 
           8570      7.74593e+6 
           8590      7.34792e+6 
           8610      7.12528e+6 
           8630      7.83284e+6 
           8650      7.68236e+6 
           8670      6.51781e+6 
           8690      7.73552e+6 
           8710      7.82667e+6 
           8730      7.67815e+6 
           8750       6.4902e+6 
           8770      7.45544e+6 
           8790       7.6634e+6 
           8810      7.62039e+6 
           8830      7.55499e+6 
           8850      7.19476e+6 
           8870      6.31243e+6 
           8890      7.34801e+6 
           8910      7.38624e+6 
           8930      7.35177e+6 
           8950       7.3387e+6 
           8970      7.27933e+6 
           8990      7.15468e+6 
           9010      6.17811e+6 
           9030       6.6784e+6 
           9050      7.06519e+6 
           9070      7.02719e+6 
           9090      6.96256e+6 
           9110      6.98332e+6 
           9130      6.96587e+6 
           9150      6.92465e+6 
           9170      6.86804e+6 
           9190      6.80116e+6 
           9210      6.59711e+6 
           9230      5.59525e+6 
           9250      6.45212e+6 
           9270      6.60142e+6 
           9290      6.62541e+6 
           9310      6.60089e+6 
           9330       6.5618e+6 
           9350      6.52384e+6 
           9370      6.48572e+6 
           9390      6.44616e+6 
           9410      6.35795e+6 
           9430      6.36448e+6 
           9450      6.33208e+6 
