# Kurucz ODFNEW /NOVER (2003)
# teff = 8750 K (value for the effective temperature for the model. Temperatures are given in K)
# logg = 3 log(cm/s2) (value for Log(G) for the model.)
# meta = -2.5  (value for the Metallicity for the model.)
# lh = 1.25  (l/Hp where l is the  mixing length of the convective element and Hp is the pressure scale height)
# vtur = 2 km/s (Microturbulence velocity)
# alpha = 0  (Alpha)
#
# column 1: WAVELENGTH (ANGSTROM), Wavelength in Angstrom
# column 2: FLUX (ERG/CM2/S/A), Flux in erg/cm2/s/A
          273.5     4.59349e-23 
          278.5     2.25953e-22 
            284     1.06051e-21 
            290     5.26615e-21 
            296     2.43965e-20 
            301      8.3495e-20 
            308     4.36004e-19 
            318     4.05847e-18 
            328     3.28388e-17 
            338     2.33799e-16 
            348     1.48235e-15 
            357     7.12525e-15 
            366     3.16585e-14 
            375     1.30503e-13 
            385     5.81062e-13 
            395     2.39127e-12 
            405      9.1552e-12 
            414     2.89433e-11 
            422     7.71191e-11 
            430     1.97853e-10 
            441     6.82034e-10 
            451      1.98847e-9 
            460      4.99825e-9 
            470      1.33312e-8 
            480       3.4061e-8 
            490      8.36587e-8 
            500      1.97828e-7 
            506      4.37062e-7 
            512      7.93859e-7 
            520      1.48546e-6 
            530      3.18725e-6 
            540       6.5354e-6 
            550      1.32036e-5 
            560      2.58113e-5 
            570      4.92102e-5 
            580      9.07723e-5 
            590     0.000166763 
            600     0.000297198 
            610     0.000518988 
            620      0.00088897 
            630      0.00149515 
            640      0.00247137 
            650      0.00401767 
            658      0.00585937 
            665      0.00808662 
            675       0.0126531 
            685       0.0195211 
            695       0.0297133 
            705       0.0446519 
            716       0.0689062 
            726        0.100966 
            735        0.141026 
            745        0.202352 
            755        0.287339 
            765        0.403982 
            775        0.562549 
            785        0.776171 
            795         1.06148 
            805         1.43942 
            815         1.93615 
            825         2.58398 
            835         3.42254 
            845         4.50049 
            855         5.87595 
            865         7.62043 
            875         9.81748 
            885         12.5685 
            895         15.9924 
            905         20.2292 
            915          51.045 
            925         222.046 
            935         372.944 
            945         688.809 
            955         1131.11 
            965         1453.96 
            975         969.777 
            985         3360.35 
            995         9255.89 
           1005         5800.74 
           1015         2920.77 
           1025         1867.72 
           1035         4197.31 
           1045         13429.8 
           1055          256055 
           1065      1.26701e+6 
           1075      2.72565e+6 
           1085      3.97202e+6 
           1095      4.00412e+6 
           1105      6.77605e+6 
           1115      1.08744e+7 
           1125      9.56688e+6 
           1135      8.79574e+6 
           1145      5.76635e+6 
           1155       2.6934e+6 
           1165          798717 
           1175          109202 
           1185          405134 
           1195         19731.3 
           1205         14242.8 
           1215         7051.12 
           1225         16017.1 
           1235         28918.7 
           1245         29070.9 
           1255         69400.8 
           1265          422560 
           1275      1.72789e+6 
           1285      5.40263e+6 
           1295      8.57928e+6 
           1305      1.18048e+7 
           1315      1.57191e+7 
           1325      1.99681e+7 
           1335      2.29708e+7 
           1345       2.6985e+7 
           1355       2.7885e+7 
           1365       2.9795e+7 
           1375      2.99012e+7 
           1385      2.88956e+7 
           1395      2.82931e+7 
           1405      3.46152e+7 
           1415      4.08937e+7 
           1425       4.2895e+7 
           1435        4.184e+7 
           1442      4.54623e+7 
           1447      4.51073e+7 
           1455      4.65612e+7 
           1465      4.54643e+7 
           1475      4.65452e+7 
           1485      4.67814e+7 
           1495        4.755e+7 
           1505      4.83522e+7 
           1512      4.83159e+7 
           1517      4.82451e+7 
           1525        4.798e+7 
           1535      4.74097e+7 
           1545      4.78254e+7 
           1555      4.60281e+7 
           1565      4.24085e+7 
           1575      4.41528e+7 
           1585      4.49096e+7 
           1595      4.57639e+7 
           1605       4.4002e+7 
           1615      4.54954e+7 
           1625      4.44749e+7 
           1635      4.63072e+7 
           1645      4.75989e+7 
           1655      4.42086e+7 
           1665      4.85034e+7 
           1672       4.5791e+7 
           1677      4.66677e+7 
           1685      4.82213e+7 
           1695      4.67269e+7 
           1705      4.64059e+7 
           1715      4.75019e+7 
           1725      4.67768e+7 
           1735      4.78436e+7 
           1745       4.6865e+7 
           1755      4.76167e+7 
           1765      4.58682e+7 
           1775      4.71129e+7 
           1785      4.63997e+7 
           1795      4.71493e+7 
           1805      4.63438e+7 
           1815      4.59901e+7 
           1825      4.53031e+7 
           1835       4.5388e+7 
           1845      4.43373e+7 
           1855      4.48547e+7 
           1865      4.47876e+7 
           1875      4.48491e+7 
           1885      4.47297e+7 
           1895      4.46134e+7 
           1905      4.39812e+7 
           1915      4.39217e+7 
           1925      4.41182e+7 
           1935      4.32599e+7 
           1945      4.40799e+7 
           1955      4.38253e+7 
           1967      4.37041e+7 
           1976      4.30985e+7 
           1984       4.3011e+7 
           1995      4.28532e+7 
           2005      4.21485e+7 
           2015      4.13442e+7 
           2025      4.13393e+7 
           2035      4.18155e+7 
           2045       4.1612e+7 
           2055      4.06853e+7 
           2065        4.068e+7 
           2074      4.13717e+7 
           2078      4.13565e+7 
           2085      4.11963e+7 
           2095      4.08821e+7 
           2105      4.08032e+7 
           2115      4.05353e+7 
           2125       4.0294e+7 
           2135      3.95042e+7 
           2145      4.01782e+7 
           2155      3.98143e+7 
           2165      3.89772e+7 
           2175      3.89724e+7 
           2185      3.90229e+7 
           2195      3.96893e+7 
           2205      3.88683e+7 
           2215       3.7844e+7 
           2225      3.77161e+7 
           2235      3.88968e+7 
           2245      3.81661e+7 
           2255      3.73179e+7 
           2265      3.69113e+7 
           2275      3.78809e+7 
           2285      3.79419e+7 
           2295      3.73302e+7 
           2305      3.74352e+7 
           2315      3.71526e+7 
           2325      3.72023e+7 
           2335      3.66536e+7 
           2345      3.51078e+7 
           2355      3.64766e+7 
           2365      3.52096e+7 
           2375      3.59763e+7 
           2385       3.4148e+7 
           2395      3.55711e+7 
           2405      3.52928e+7 
           2415      3.53286e+7 
           2425      3.60219e+7 
           2435      3.53803e+7 
           2445      3.56745e+7 
           2455      3.56801e+7 
           2465      3.49913e+7 
           2475      3.47767e+7 
           2485      3.51172e+7 
           2495      3.46408e+7 
           2505      3.54635e+7 
           2513      3.47691e+7 
           2518      3.48118e+7 
           2525      3.40435e+7 
           2535      3.37579e+7 
           2545      3.39055e+7 
           2555      3.47994e+7 
           2565      3.44502e+7 
           2575      3.49234e+7 
           2585      3.50377e+7 
           2595      3.47229e+7 
           2605       3.4328e+7 
           2615      3.41232e+7 
           2625      3.41415e+7 
           2635      3.43234e+7 
           2645      3.54908e+7 
           2655      3.53293e+7 
           2665      3.46716e+7 
           2675      3.48935e+7 
           2685      3.50997e+7 
           2695      3.47723e+7 
           2705      3.47757e+7 
           2715      3.42552e+7 
           2725      3.42483e+7 
           2735      3.45176e+7 
           2745      3.31601e+7 
           2755      3.32489e+7 
           2765      3.37933e+7 
           2775      3.44391e+7 
           2785      3.43054e+7 
           2795      3.25659e+7 
           2805      3.35594e+7 
           2815       3.4479e+7 
           2825       3.4342e+7 
           2835      3.39408e+7 
           2845      3.38395e+7 
           2855      3.34332e+7 
           2865      3.35899e+7 
           2875      3.36392e+7 
           2885      3.37526e+7 
           2895      3.38858e+7 
           2910      3.40031e+7 
           2930      3.35458e+7 
           2950      3.34033e+7 
           2970      3.34704e+7 
           2990       3.3325e+7 
           3010      3.34404e+7 
           3030      3.33627e+7 
           3050      3.32344e+7 
           3070      3.30354e+7 
           3090      3.30313e+7 
           3110      3.29027e+7 
           3130      3.27239e+7 
           3150       3.2643e+7 
           3170      3.25826e+7 
           3190       3.2249e+7 
           3210      3.23054e+7 
           3230       3.2086e+7 
           3250      3.21257e+7 
           3270      3.21028e+7 
           3290      3.20214e+7 
           3310       3.1933e+7 
           3330      3.17632e+7 
           3350      3.15489e+7 
           3370      3.14698e+7 
           3390      3.13946e+7 
           3410      3.13812e+7 
           3430      3.12626e+7 
           3450      3.11718e+7 
           3470      3.10497e+7 
           3490      3.09485e+7 
           3510      3.08598e+7 
           3530       3.0762e+7 
           3550      3.06525e+7 
           3570      3.05258e+7 
           3590      3.04176e+7 
           3610      3.03098e+7 
           3630      3.01998e+7 
           3640      3.01393e+7 
           3650      3.02967e+7 
           3670      2.99982e+7 
           3690      2.92063e+7 
           3710      3.36136e+7 
           3730      3.84801e+7 
           3750      5.41981e+7 
           3770       5.8735e+7 
           3790      7.26728e+7 
           3810      8.52722e+7 
           3830      6.72796e+7 
           3850      9.38513e+7 
           3870      1.04819e+8 
           3890      5.72659e+7 
           3910      1.03179e+8 
           3930      1.06895e+8 
           3950      1.01522e+8 
           3970      5.47685e+7 
           3990       9.6586e+7 
           4010      1.03722e+8 
           4030      1.03015e+8 
           4050      1.01658e+8 
           4070      9.86075e+7 
           4090      7.83272e+7 
           4110      5.91541e+7 
           4130      9.34574e+7 
           4150      9.51158e+7 
           4170      9.43811e+7 
           4190      9.33385e+7 
           4210      9.22816e+7 
           4230      9.10278e+7 
           4250      8.97518e+7 
           4270      8.84564e+7 
           4290      8.69417e+7 
           4310      8.39606e+7 
           4330      6.40699e+7 
           4350      5.40093e+7 
           4370      8.01775e+7 
           4390      8.14366e+7 
           4410      8.09282e+7 
           4430      8.01608e+7 
           4450      7.92687e+7 
           4470      7.82065e+7 
           4490      7.71936e+7 
           4510      7.63698e+7 
           4530      7.54362e+7 
           4550      7.44651e+7 
           4570      7.36326e+7 
           4590      7.27312e+7 
           4610      7.18995e+7 
           4630       7.1009e+7 
           4650      7.01904e+7 
           4670      6.93538e+7 
           4690      6.85221e+7 
           4710      6.76527e+7 
           4730      6.69252e+7 
           4750      6.61407e+7 
           4770      6.52296e+7 
           4790      6.43297e+7 
           4810      6.32358e+7 
           4830      6.10805e+7 
           4850      4.87342e+7 
           4870      3.91059e+7 
           4890      5.79917e+7 
           4910      5.95314e+7 
           4930      5.92446e+7 
           4950      5.87592e+7 
           4970       5.8246e+7 
           4990      5.75894e+7 
           5010      5.69129e+7 
           5030      5.63079e+7 
           5050      5.56751e+7 
           5070      5.50653e+7 
           5090       5.4456e+7 
           5110      5.38546e+7 
           5130      5.32608e+7 
           5150      5.26761e+7 
           5170      5.20297e+7 
           5190      5.15008e+7 
           5210      5.09729e+7 
           5230      5.04075e+7 
           5250      4.98807e+7 
           5270      4.93278e+7 
           5290      4.88128e+7 
           5310      4.82828e+7 
           5330       4.7774e+7 
           5350      4.72726e+7 
           5370       4.6767e+7 
           5390      4.62754e+7 
           5410      4.57871e+7 
           5430      4.53073e+7 
           5450      4.48359e+7 
           5470      4.43689e+7 
           5490      4.39087e+7 
           5510       4.3454e+7 
           5530      4.30023e+7 
           5550      4.25621e+7 
           5570      4.21246e+7 
           5590      4.16923e+7 
           5610      4.12675e+7 
           5630      4.08476e+7 
           5650      4.04327e+7 
           5670      4.00237e+7 
           5690      3.96207e+7 
           5710      3.92212e+7 
           5730      3.88285e+7 
           5750      3.84404e+7 
           5770      3.80567e+7 
           5790      3.76784e+7 
           5810      3.73045e+7 
           5830       3.6936e+7 
           5850      3.65727e+7 
           5870      3.61949e+7 
           5890      3.58496e+7 
           5910       3.5507e+7 
           5930      3.51619e+7 
           5950      3.48195e+7 
           5970      3.44819e+7 
           5990      3.41481e+7 
           6010       3.3819e+7 
           6030      3.34945e+7 
           6050      3.31736e+7 
           6070      3.28572e+7 
           6090      3.25442e+7 
           6110      3.22356e+7 
           6130      3.19304e+7 
           6150      3.16264e+7 
           6170      3.13307e+7 
           6190      3.10361e+7 
           6210      3.07457e+7 
           6230      3.04584e+7 
           6250      3.01721e+7 
           6270      2.98937e+7 
           6290      2.96172e+7 
           6310      2.93427e+7 
           6330       2.9072e+7 
           6350      2.88004e+7 
           6370      2.85373e+7 
           6390      2.82786e+7 
           6410       2.8019e+7 
           6430      2.77648e+7 
           6450      2.75068e+7 
           6470      2.71985e+7 
           6490      2.69032e+7 
           6510       2.6539e+7 
           6530      2.58669e+7 
           6550      2.27772e+7 
           6570      1.82208e+7 
           6590      2.45722e+7 
           6610      2.52635e+7 
           6630      2.52313e+7 
           6650       2.5073e+7 
           6670      2.49076e+7 
           6690      2.47017e+7 
           6710      2.44869e+7 
           6730      2.42725e+7 
           6750      2.40602e+7 
           6770      2.38501e+7 
           6790      2.36428e+7 
           6810      2.34375e+7 
           6830      2.32342e+7 
           6850      2.30329e+7 
           6870      2.28343e+7 
           6890      2.26377e+7 
           6910      2.24437e+7 
           6930      2.22516e+7 
           6950      2.20613e+7 
           6970      2.18736e+7 
           6990      2.16877e+7 
           7010      2.15044e+7 
           7030      2.13219e+7 
           7050       2.1142e+7 
           7070      2.09638e+7 
           7090       2.0788e+7 
           7110      2.06123e+7 
           7130      2.04413e+7 
           7150      2.02711e+7 
           7170      2.01017e+7 
           7190      1.99346e+7 
           7210      1.97698e+7 
           7230      1.96059e+7 
           7250      1.94441e+7 
           7270      1.92845e+7 
           7290      1.91257e+7 
           7310       1.8969e+7 
           7330      1.88137e+7 
           7350      1.86606e+7 
           7370      1.85081e+7 
           7390      1.83577e+7 
           7410      1.82093e+7 
           7430      1.80616e+7 
           7450      1.79159e+7 
           7470      1.77715e+7 
           7490      1.76284e+7 
           7510      1.74872e+7 
           7530      1.73472e+7 
           7550      1.72092e+7 
           7570      1.70717e+7 
           7590      1.69361e+7 
           7610      1.68016e+7 
           7630       1.6669e+7 
           7650      1.65375e+7 
           7670      1.64072e+7 
           7690       1.6278e+7 
           7710        1.615e+7 
           7730      1.60236e+7 
           7750      1.58984e+7 
           7770      1.57536e+7 
           7790      1.56517e+7 
           7810      1.55303e+7 
           7830      1.54099e+7 
           7850      1.52905e+7 
           7870      1.51715e+7 
           7890      1.50541e+7 
           7910      1.49396e+7 
           7930      1.48254e+7 
           7950      1.47115e+7 
           7970      1.45992e+7 
           7990      1.44867e+7 
           8010      1.43775e+7 
           8030      1.42685e+7 
           8050      1.41605e+7 
           8070      1.40534e+7 
           8090      1.39472e+7 
           8110      1.38424e+7 
           8130      1.37379e+7 
           8150      1.36348e+7 
           8170      1.35326e+7 
           8190      1.34306e+7 
           8210      1.33792e+7 
           8230      1.32876e+7 
           8250      1.31983e+7 
           8270      1.31114e+7 
           8290      1.30219e+7 
           8310      1.29277e+7 
           8330      1.28228e+7 
           8350      1.27166e+7 
           8370      1.25704e+7 
           8390      1.24463e+7 
           8410      1.22945e+7 
           8430      1.22728e+7 
           8450      1.22222e+7 
           8470       1.1683e+7 
           8490      1.23388e+7 
           8510      1.13476e+7 
           8530      1.24331e+7 
           8550      1.07717e+7 
           8570      1.26209e+7 
           8590      1.15222e+7 
           8610      1.11461e+7 
           8630      1.28507e+7 
           8650      1.23045e+7 
           8670      9.92181e+6 
           8690      1.26853e+7 
           8710      1.31113e+7 
           8730      1.25758e+7 
           8750      9.60392e+6 
           8770      1.19025e+7 
           8790      1.29274e+7 
           8810      1.29882e+7 
           8830      1.27018e+7 
           8850       1.1301e+7 
           8870      9.34056e+6 
           8890      1.20447e+7 
           8910       1.2516e+7 
           8930      1.25337e+7 
           8950      1.24491e+7 
           8970      1.22667e+7 
           8990      1.17382e+7 
           9010      9.21914e+6 
           9030      1.02017e+7 
           9050      1.16819e+7 
           9070      1.18732e+7 
           9090      1.18488e+7 
           9110      1.17991e+7 
           9130      1.17199e+7 
           9150      1.16219e+7 
           9170      1.14947e+7 
           9190      1.12658e+7 
           9210      1.05201e+7 
