# Kurucz ODFNEW /NOVER (2003)
# teff = 30000 K (value for the effective temperature for the model. Temperatures are given in K)
# logg = 4.5 log(cm/s2) (value for Log(G) for the model.)
# meta = 0  (value for the Metallicity for the model.)
# lh = 1.25  (l/Hp where l is the  mixing length of the convective element and Hp is the pressure scale height)
# vtur = 2 km/s (Microturbulence velocity)
# alpha = 0.4  (Alpha)
#
# column 1: WAVELENGTH (ANGSTROM), Wavelength in Angstrom
# column 2: FLUX (ERG/CM2/S/A), Flux in erg/cm2/s/A
          147.2      3.99961e-9 
            151      1.25771e-8 
          155.2      4.20303e-8 
          158.8      1.12899e-7 
            162      2.62938e-7 
            166      7.25815e-7 
          170.3      2.05303e-6 
          173.4      4.23758e-6 
          176.8      9.09902e-6 
          180.2      1.90221e-5 
          181.7      2.61047e-5 
          186.1      6.44286e-5 
            191      0.00016845 
          193.9     0.000291015 
          198.4     0.000659626 
          201.8      0.00119615 
            205       0.0020585 
          210.5       0.0050476 
          216.2       0.0121927 
          219.8       0.0208241 
            223       0.0330283 
          226.8       0.0577425 
            230         5.28076 
            234         11.2085 
            240         21.2564 
          246.5         41.8584 
          252.4         75.9068 
          256.8         110.906 
            260         167.611 
            264         233.894 
          268.5         361.574 
          273.5         553.292 
          278.5         807.691 
            284         1551.41 
            290         2414.97 
            296          3643.2 
            301         5039.64 
            308         9510.77 
            318         19616.9 
            328         33285.6 
            338         60540.4 
            348          101508 
            357          386280 
            366          836698 
            375      1.12672e+6 
            385        1.782e+6 
            395      3.92581e+6 
            405      5.20427e+6 
            414      7.81699e+6 
            422      9.29702e+6 
            430      1.18064e+7 
            441      1.56055e+7 
            451      1.93476e+7 
            460      2.25753e+7 
            470      2.87621e+7 
            480      3.53086e+7 
            490      4.30611e+7 
            500       5.2721e+7 
            506      1.37137e+8 
            512      9.79418e+8 
            520      9.43384e+8 
            530      9.40979e+8 
            540      8.92846e+8 
            550      1.18961e+9 
            560      1.40661e+9 
            570      1.49926e+9 
            580      1.36223e+9 
            590      1.59664e+9 
            600      1.44737e+9 
            610      1.73674e+9 
            620      1.93089e+9 
            630      1.94126e+9 
            640      1.81292e+9 
            650      1.85494e+9 
            658       1.8329e+9 
            665      2.06942e+9 
            675      2.15218e+9 
            685      1.95332e+9 
            695      2.54221e+9 
            705      2.22001e+9 
            716      2.75858e+9 
            726      2.69355e+9 
            735      2.77304e+9 
            745      2.93001e+9 
            755      2.96704e+9 
            765      3.12424e+9 
            775      3.25149e+9 
            785       3.4007e+9 
            795      3.39913e+9 
            805      3.38392e+9 
            815      3.38692e+9 
            825       3.6166e+9 
            835      2.96169e+9 
            845      3.55633e+9 
            855      3.56062e+9 
            865      3.70504e+9 
            875      3.80206e+9 
            885      3.96963e+9 
            895      4.05764e+9 
            905      3.97256e+9 
            915      4.51864e+9 
            925     1.90605e+10 
            935     3.63386e+10 
            945     5.98363e+10 
            955     6.89578e+10 
            965      8.2201e+10 
            975      2.3714e+10 
            985     6.85644e+10 
            995      6.1881e+10 
           1005     6.65601e+10 
           1015     6.92555e+10 
           1025     4.30686e+10 
           1035     6.21455e+10 
           1045     7.89216e+10 
           1055     7.36451e+10 
           1065     5.90657e+10 
           1075     6.50265e+10 
           1085      5.9926e+10 
           1095     6.52995e+10 
           1105     6.03248e+10 
           1115     5.84779e+10 
           1125     4.34647e+10 
           1135     5.73622e+10 
           1145     5.25543e+10 
           1155     5.16426e+10 
           1165     5.14926e+10 
           1175     3.24878e+10 
           1185     4.71158e+10 
           1195      4.4534e+10 
           1205     3.73013e+10 
           1215     2.75333e+10 
           1225     4.10991e+10 
           1235     4.49909e+10 
           1245     4.33037e+10 
           1255     4.29441e+10 
           1265     4.36191e+10 
           1275     4.46386e+10 
           1285     4.41929e+10 
           1295     3.59247e+10 
           1305     3.77852e+10 
           1315     4.27725e+10 
           1325     4.03676e+10 
           1335     3.93275e+10 
           1345     3.84305e+10 
           1355     3.84727e+10 
           1365     3.58487e+10 
           1375     3.46277e+10 
           1385     3.31436e+10 
           1395      2.1682e+10 
           1405     2.42276e+10 
           1415       3.069e+10 
           1425      2.8528e+10 
           1435     3.00399e+10 
           1442     3.04628e+10 
           1447     3.00529e+10 
           1455     2.87037e+10 
           1465     2.72477e+10 
           1475     2.75531e+10 
           1485     2.71815e+10 
           1495      2.6391e+10 
           1505     2.44547e+10 
           1512     2.30934e+10 
           1517     2.34866e+10 
           1525     2.33412e+10 
           1535     1.99123e+10 
           1545     1.84433e+10 
           1555     1.79669e+10 
           1565     1.95992e+10 
           1575     2.06906e+10 
           1585     2.05158e+10 
           1595     2.05289e+10 
           1605     1.99375e+10 
           1615     1.90515e+10 
           1625     1.91773e+10 
           1635     1.97086e+10 
           1645     1.96159e+10 
           1655     1.95061e+10 
           1665     1.92766e+10 
           1672      1.8183e+10 
           1677     2.05476e+10 
           1685     1.96032e+10 
           1695      1.8696e+10 
           1705     1.82454e+10 
           1715     1.74568e+10 
           1725     1.67321e+10 
           1735     1.72945e+10 
           1745     1.71018e+10 
           1755     1.69368e+10 
           1765     1.66753e+10 
           1775     1.58243e+10 
           1785     1.60164e+10 
           1795     1.59892e+10 
           1805     1.60172e+10 
           1815     1.49904e+10 
           1825      1.5124e+10 
           1835     1.48142e+10 
           1845     1.35717e+10 
           1855      1.3867e+10 
           1865     1.40035e+10 
           1875     1.39242e+10 
           1885      1.2794e+10 
           1895     1.20897e+10 
           1905     1.27718e+10 
           1915     1.21908e+10 
           1925      1.1483e+10 
           1935     1.21876e+10 
           1945      1.2457e+10 
           1955     1.11934e+10 
           1967     1.18664e+10 
           1976     1.24127e+10 
           1984     1.15509e+10 
           1995     1.13567e+10 
           2005     1.15492e+10 
           2015     1.15165e+10 
           2025     1.16015e+10 
           2035     1.08282e+10 
           2045     1.08307e+10 
           2055      9.73442e+9 
           2065      9.60238e+9 
           2074      9.90984e+9 
           2078      9.43463e+9 
           2085      9.75009e+9 
           2095      9.63406e+9 
           2105     1.00648e+10 
           2115      1.0086e+10 
           2125     1.00322e+10 
           2135      9.86077e+9 
           2145       9.5234e+9 
           2155      9.69643e+9 
           2165      9.47605e+9 
           2175      9.41221e+9 
           2185       9.1929e+9 
           2195      9.24616e+9 
           2205      9.13924e+9 
           2215      8.93021e+9 
           2225      8.79609e+9 
           2235       8.6361e+9 
           2245      8.60718e+9 
           2255      8.35987e+9 
           2265      8.37213e+9 
           2275      8.25793e+9 
           2285      8.08119e+9 
           2295      7.33142e+9 
           2305      7.79407e+9 
           2315      7.67627e+9 
           2325      7.61038e+9 
           2335       7.4562e+9 
           2345      7.46605e+9 
           2355      7.35047e+9 
           2365       7.2588e+9 
           2375      7.09362e+9 
           2385      6.94948e+9 
           2395      6.87843e+9 
           2405      6.82982e+9 
           2415      6.69715e+9 
           2425      6.65677e+9 
           2435      6.49991e+9 
           2445      6.45378e+9 
           2455      6.38881e+9 
           2465      6.31042e+9 
           2475      6.19741e+9 
           2485      6.03087e+9 
           2495      4.61781e+9 
           2505      5.74716e+9 
           2513      5.61512e+9 
           2518      5.69973e+9 
           2525      5.79427e+9 
           2535      5.75773e+9 
           2545         5.54e+9 
           2555      5.55039e+9 
           2565      5.46133e+9 
           2575      5.44576e+9 
           2585      5.38628e+9 
           2595      5.31598e+9 
           2605      5.27397e+9 
           2615      5.18385e+9 
           2625      5.13667e+9 
           2635      5.06867e+9 
           2645      4.99412e+9 
           2655      4.93263e+9 
           2665      4.78217e+9 
           2675      4.74374e+9 
           2685      4.74568e+9 
           2695      4.59481e+9 
           2705      4.53376e+9 
           2715      4.50799e+9 
           2725      4.45904e+9 
           2735      4.40015e+9 
           2745       4.3641e+9 
           2755      4.32289e+9 
           2765      4.24645e+9 
           2775      4.26022e+9 
           2785      4.18038e+9 
           2795       4.0221e+9 
           2805       4.0584e+9 
           2815      4.05686e+9 
           2825      3.98627e+9 
           2835       3.8795e+9 
           2845      3.91106e+9 
           2855      3.83439e+9 
           2865      3.80189e+9 
           2875      3.75092e+9 
           2885      3.71152e+9 
           2895      3.65958e+9 
           2910      3.56252e+9 
           2930      3.52427e+9 
           2950        3.415e+9 
           2970      3.35797e+9 
           2990      3.26676e+9 
           3010      3.14349e+9 
           3030      3.09631e+9 
           3050      3.05607e+9 
           3070      3.01311e+9 
           3090      2.88206e+9 
           3110      2.87471e+9 
           3130      2.78837e+9 
           3150      2.74377e+9 
           3170      2.67593e+9 
           3190      2.61742e+9 
           3210      2.57346e+9 
           3230      2.50562e+9 
           3250      2.47038e+9 
           3270      2.40562e+9 
           3290      2.35924e+9 
           3310      2.31142e+9 
           3330       2.2554e+9 
           3350      2.21308e+9 
           3370      2.16383e+9 
           3390      2.13457e+9 
           3410      2.09072e+9 
           3430      2.05107e+9 
           3450       1.9996e+9 
           3470      1.96138e+9 
           3490       1.9205e+9 
           3510      1.88745e+9 
           3530      1.86096e+9 
           3550      1.82089e+9 
           3570      1.79091e+9 
           3590      1.74066e+9 
           3610      1.71652e+9 
           3630      1.67973e+9 
           3640      1.67421e+9 
           3650      1.64319e+9 
           3670      1.62267e+9 
           3690      1.59251e+9 
           3710      1.52812e+9 
           3730      1.47936e+9 
           3750      1.48034e+9 
           3770      1.44167e+9 
           3790      1.49602e+9 
           3810      1.53901e+9 
           3830      1.36627e+9 
           3850      1.54682e+9 
           3870      1.51943e+9 
           3890      1.28551e+9 
           3910      1.52573e+9 
           3930      1.48163e+9 
           3950      1.44607e+9 
           3970      1.18904e+9 
           3990      1.40842e+9 
           4010      1.39951e+9 
           4030      1.32954e+9 
           4050       1.3551e+9 
           4070      1.28414e+9 
           4090      1.19642e+9 
           4110      1.08279e+9 
           4130        1.231e+9 
           4150      1.22233e+9 
           4170      1.22093e+9 
           4190      1.19962e+9 
           4210      1.18678e+9 
           4230      1.16209e+9 
           4250      1.12461e+9 
           4270      1.09585e+9 
           4290        1.075e+9 
           4310      1.04231e+9 
           4330      9.68241e+8 
           4350      8.92683e+8 
           4370      9.96404e+8 
           4390      9.84414e+8 
           4410      9.78527e+8 
           4430      9.73397e+8 
           4450      9.52967e+8 
           4470      9.10615e+8 
           4490      9.24627e+8 
           4510      9.15592e+8 
           4530      9.04038e+8 
           4550      8.88046e+8 
           4570      8.73706e+8 
           4590      8.56757e+8 
           4610      8.36948e+8 
           4630      8.23635e+8 
           4650      7.89768e+8 
           4670       7.9834e+8 
           4690      7.89063e+8 
           4710      7.59892e+8 
           4730      7.70335e+8 
           4750       7.5588e+8 
           4770      7.52949e+8 
           4790      7.40304e+8 
           4810      7.24162e+8 
           4830      7.07229e+8 
           4850      6.62522e+8 
           4870       5.9781e+8 
           4890      6.76856e+8 
           4910      6.70056e+8 
           4930      6.47983e+8 
           4950      6.47724e+8 
           4970      6.45923e+8 
           4990      6.35656e+8 
           5010       6.1114e+8 
           5030      6.14211e+8 
           5050      6.02782e+8 
           5070      5.99443e+8 
           5090      5.88721e+8 
           5110      5.79721e+8 
           5130      5.69999e+8 
           5150      5.62399e+8 
           5170      5.54786e+8 
           5190      5.48099e+8 
           5210      5.39902e+8 
           5230       5.3304e+8 
           5250      5.25296e+8 
           5270      5.16976e+8 
           5290      5.10866e+8 
           5310      5.03458e+8 
           5330       4.9665e+8 
           5350      4.89376e+8 
           5370      4.83073e+8 
           5390      4.75488e+8 
           5410      4.68864e+8 
           5430       4.6327e+8 
           5450      4.56375e+8 
           5470      4.50274e+8 
           5490      4.44387e+8 
           5510      4.38834e+8 
           5530      4.32401e+8 
           5550      4.27162e+8 
           5570      4.21319e+8 
           5590      4.15525e+8 
           5610      4.10137e+8 
           5630      4.04982e+8 
           5650      3.98745e+8 
           5670      3.92351e+8 
           5690      3.85141e+8 
           5710      3.81731e+8 
           5730      3.77603e+8 
           5750      3.71209e+8 
           5770      3.68334e+8 
           5790      3.63322e+8 
           5810      3.58738e+8 
           5830       3.5351e+8 
           5850      3.49644e+8 
           5870      3.35752e+8 
           5890      3.38602e+8 
           5910      3.35764e+8 
           5930      3.31628e+8 
           5950       3.2737e+8 
           5970       3.2462e+8 
           5990      3.19568e+8 
           6010      3.16287e+8 
           6030      3.11913e+8 
           6050      3.08352e+8 
           6070       3.0483e+8 
           6090      3.01135e+8 
           6110      2.97391e+8 
           6130      2.93889e+8 
           6150      2.89282e+8 
           6170      2.86034e+8 
           6190      2.83107e+8 
           6210      2.79889e+8 
           6230      2.76561e+8 
           6250      2.72836e+8 
           6270      2.69747e+8 
           6290      2.66683e+8 
           6310      2.63216e+8 
           6330      2.60399e+8 
           6350      2.56837e+8 
           6370      2.54307e+8 
           6390      2.51242e+8 
           6410      2.48255e+8 
           6430      2.45519e+8 
           6450      2.42605e+8 
           6470      2.38911e+8 
           6490      2.36341e+8 
           6510      2.33495e+8 
           6530       2.2985e+8 
           6550      2.21142e+8 
           6570      1.97246e+8 
           6590      2.20591e+8 
           6610      2.20414e+8 
           6630      2.18469e+8 
           6650      2.15691e+8 
           6670      2.11411e+8 
           6690      2.09113e+8 
           6710      2.08722e+8 
           6730      2.05853e+8 
           6750      2.04312e+8 
           6770       2.0208e+8 
           6790      1.98799e+8 
           6810      1.97422e+8 
           6830      1.94983e+8 
           6850      1.93188e+8 
           6870      1.91003e+8 
           6890      1.88547e+8 
           6910      1.86045e+8 
           6930      1.84917e+8 
           6950       1.8295e+8 
           6970      1.80971e+8 
           6990      1.78981e+8 
           7010      1.76995e+8 
           7030      1.75021e+8 
           7050      1.73211e+8 
           7070      1.68803e+8 
           7090      1.69576e+8 
           7110      1.67215e+8 
           7130      1.65544e+8 
           7150      1.64236e+8 
           7170      1.62508e+8 
           7190      1.60833e+8 
           7210      1.59144e+8 
           7230      1.55815e+8 
           7250      1.55393e+8 
           7270      1.54198e+8 
           7290      1.51417e+8 
           7310      1.50978e+8 
           7330      1.49405e+8 
           7350      1.47881e+8 
           7370        1.464e+8 
           7390      1.44898e+8 
           7410      1.43417e+8 
           7430      1.41923e+8 
           7450      1.40476e+8 
           7470      1.38193e+8 
           7490      1.37496e+8 
           7510      1.36217e+8 
           7530       1.3475e+8 
           7550      1.33555e+8 
           7570      1.32219e+8 
           7590      1.30843e+8 
           7610      1.29258e+8 
           7630      1.28264e+8 
           7650      1.26957e+8 
           7670      1.25765e+8 
           7690      1.24468e+8 
           7710      1.23252e+8 
           7730      1.21909e+8 
           7750      1.20873e+8 
           7770      1.19491e+8 
           7790      1.18543e+8 
           7810      1.17343e+8 
           7830      1.16253e+8 
           7850      1.15178e+8 
           7870      1.13773e+8 
           7890      1.12537e+8 
           7910      1.11794e+8 
           7930      1.10698e+8 
           7950      1.09653e+8 
           7970      1.08551e+8 
           7990      1.07525e+8 
           8010      1.06525e+8 
           8030      1.05463e+8 
           8050      1.04509e+8 
           8070      1.03547e+8 
           8090      1.02448e+8 
           8110      1.00763e+8 
           8130      1.00667e+8 
           8150       9.9652e+7 
           8170       9.8843e+7 
           8190      9.72488e+7 
           8210      9.65241e+7 
           8230      9.55883e+7 
           8250      9.51199e+7 
           8270      9.32172e+7 
           8290      9.32284e+7 
           8310      9.25347e+7 
           8330      9.16674e+7 
           8350      9.04183e+7 
           8370      8.97662e+7 
           8390      8.91943e+7 
           8410      8.83018e+7 
           8430        8.756e+7 
           8450      8.61804e+7 
           8470      8.59682e+7 
           8490      8.49992e+7 
           8510      8.41944e+7 
           8530      8.34738e+7 
           8550      8.23726e+7 
           8570      8.24913e+7 
