# Kurucz ODFNEW /NOVER (2003)
# teff = 7750 K (value for the effective temperature for the model. Temperatures are given in K)
# logg = 2.5 log(cm/s2) (value for Log(G) for the model.)
# meta = -1  (value for the Metallicity for the model.)
# lh = 1.25  (l/Hp where l is the  mixing length of the convective element and Hp is the pressure scale height)
# vtur = 2 km/s (Microturbulence velocity)
# alpha = 0.4  (Alpha)
#
# column 1: WAVELENGTH (ANGSTROM), Wavelength in Angstrom
# column 2: FLUX (ERG/CM2/S/A), Flux in erg/cm2/s/A
            357     3.59795e-23 
            366     2.87421e-22 
            375     1.90375e-21 
            385     1.38988e-20 
            395     9.13736e-20 
            405     5.45623e-19 
            414     2.52463e-18 
            422     9.30865e-18 
            430     3.26383e-17 
            441     1.69603e-16 
            451     5.28196e-17 
            460     1.67846e-16 
            470     5.73877e-16 
            480     1.85667e-15 
            490     5.70805e-15 
            500     1.67057e-14 
            506     4.50202e-13 
            512     1.18876e-12 
            520      2.6711e-12 
            530      4.8315e-13 
            540     1.18207e-12 
            550      2.8279e-12 
            560     6.49978e-12 
            570     1.44697e-11 
            580     3.08954e-11 
            590     6.55786e-11 
            600     1.33927e-10 
            610     2.66606e-10 
            620     5.17748e-10 
            630     9.82306e-10 
            640      1.82386e-9 
            650      3.31611e-9 
            658      5.27221e-9 
            665      7.82713e-9 
            675      1.35561e-8 
            685      2.30602e-8 
            695      3.85617e-8 
            705      6.33639e-8 
            716      1.07701e-7 
            726      1.71562e-7 
            735      2.57736e-7 
            745      3.99892e-7 
            755      6.12423e-7 
            765      9.26076e-7 
            775       1.3836e-6 
            785       2.0435e-6 
            795      2.97295e-6 
            805      4.30583e-6 
            815      6.16175e-6 
            825      8.72435e-6 
            835      1.22346e-5 
            845      1.70018e-5 
            855      2.34152e-5 
            865      3.19746e-5 
            875      4.32639e-5 
            885      5.81815e-5 
            895      7.75775e-5 
            905     0.000102579 
            915        0.187279 
            925        0.815167 
            935         1.09874 
            945         1.50375 
            955         2.11409 
            965         2.70201 
            975         2.92193 
            985         4.24829 
            995         5.08191 
           1005          6.6616 
           1015         7.80501 
           1025            8.13 
           1035         12.0943 
           1045         15.2796 
           1055         18.6946 
           1065         22.1545 
           1075         27.2546 
           1085         32.9615 
           1095         38.4765 
           1105         112.628 
           1115         320.086 
           1125         428.158 
           1135          555.52 
           1145         642.439 
           1155         638.197 
           1165         739.539 
           1175         721.983 
           1185         916.749 
           1195         244.416 
           1205         158.896 
           1215         38.9611 
           1225         180.983 
           1235         498.469 
           1245         1102.17 
           1255         1968.03 
           1265         2475.47 
           1275          3801.3 
           1285         5611.39 
           1295         7336.12 
           1305          7038.3 
           1315         10771.4 
           1325         13611.5 
           1335           16150 
           1345         20720.9 
           1355         22851.7 
           1365         26606.5 
           1375         30184.2 
           1385         33412.6 
           1395         38553.3 
           1405         46153.5 
           1415         53917.8 
           1425         61920.4 
           1435         62516.7 
           1442         75637.1 
           1447         79253.5 
           1455         94307.6 
           1465         94109.3 
           1475          101956 
           1485          112801 
           1495          127937 
           1505          140935 
           1512          140136 
           1517          153181 
           1525          174318 
           1535          844906 
           1545      1.97027e+6 
           1555      1.88425e+6 
           1565      1.54708e+6 
           1575      2.26209e+6 
           1585      2.41748e+6 
           1595      2.65544e+6 
           1605      2.55518e+6 
           1615      3.05691e+6 
           1625      3.45838e+6 
           1635      4.48613e+6 
           1645      6.39125e+6 
           1655      4.33379e+6 
           1665       7.2365e+6 
           1672       4.2011e+6 
           1677      7.90691e+6 
           1685      9.58003e+6 
           1695      9.18776e+6 
           1705      9.57159e+6 
           1715       1.1135e+7 
           1725      1.11496e+7 
           1735      1.26414e+7 
           1745      1.20189e+7 
           1755      1.37848e+7 
           1765      1.10532e+7 
           1775      1.30693e+7 
           1785      1.30202e+7 
           1795      1.50387e+7 
           1805       1.3071e+7 
           1815      1.39062e+7 
           1825      1.22431e+7 
           1835       1.2562e+7 
           1845      1.13295e+7 
           1855      1.22828e+7 
           1865      1.27926e+7 
           1875      1.29255e+7 
           1885      1.32064e+7 
           1895      1.36024e+7 
           1905      1.24655e+7 
           1915      1.37595e+7 
           1925      1.40978e+7 
           1935      1.24653e+7 
           1945      1.45841e+7 
           1955       1.4527e+7 
           1967      1.51828e+7 
           1976      1.46463e+7 
           1984      1.43389e+7 
           1995      1.40052e+7 
           2005      1.35097e+7 
           2015      1.33249e+7 
           2025      1.24495e+7 
           2035      1.38075e+7 
           2045      1.46853e+7 
           2055      1.38095e+7 
           2065       1.3623e+7 
           2074      1.51612e+7 
           2078      1.56046e+7 
           2085      1.51421e+7 
           2095      1.46013e+7 
           2105       1.3923e+7 
           2115      1.41033e+7 
           2125      1.43688e+7 
           2135      1.17377e+7 
           2145      1.37582e+7 
           2155      1.37687e+7 
           2165      1.29586e+7 
           2175      1.29274e+7 
           2185      1.34177e+7 
           2195       1.4467e+7 
           2205      1.39037e+7 
           2215      1.25484e+7 
           2225      1.26162e+7 
           2235      1.44938e+7 
           2245      1.29515e+7 
           2255      1.24316e+7 
           2265      1.23118e+7 
           2275      1.34383e+7 
           2285      1.39105e+7 
           2295      1.28282e+7 
           2305      1.32574e+7 
           2315      1.31073e+7 
           2325      1.28979e+7 
           2335      1.18134e+7 
           2345      1.02537e+7 
           2355      1.28954e+7 
           2365      1.07269e+7 
           2375       1.2235e+7 
           2385       9.5543e+6 
           2395      1.09669e+7 
           2405      1.05626e+7 
           2415      1.10437e+7 
           2425      1.27485e+7 
           2435      1.23479e+7 
           2445      1.30859e+7 
           2455      1.27745e+7 
           2465      1.28075e+7 
           2475       1.2032e+7 
           2485      1.26003e+7 
           2495      1.22084e+7 
           2505      1.39867e+7 
           2513      1.21803e+7 
           2518      1.23964e+7 
           2525      1.13238e+7 
           2535      1.08137e+7 
           2545      1.09907e+7 
           2555      1.21906e+7 
           2565      1.20991e+7 
           2575      1.32178e+7 
           2585      1.32556e+7 
           2595      1.28985e+7 
           2605      1.22406e+7 
           2615       1.1907e+7 
           2625      1.33877e+7 
           2635      1.36585e+7 
           2645      1.58623e+7 
           2655      1.58633e+7 
           2665      1.43399e+7 
           2675      1.50321e+7 
           2685      1.51821e+7 
           2695      1.42325e+7 
           2705      1.46155e+7 
           2715      1.36832e+7 
           2725      1.38762e+7 
           2735      1.50289e+7 
           2745      1.21338e+7 
           2755      1.28271e+7 
           2765      1.34209e+7 
           2775      1.46683e+7 
           2785      1.36038e+7 
           2795      6.97082e+6 
           2805       8.5846e+6 
           2815      1.49722e+7 
           2825      1.55755e+7 
           2835      1.51962e+7 
           2845      1.46786e+7 
           2855      1.37843e+7 
           2865      1.51353e+7 
           2875      1.48123e+7 
           2885         1.52e+7 
           2895      1.46866e+7 
           2910      1.63538e+7 
           2930      1.58197e+7 
           2950      1.57722e+7 
           2970      1.61986e+7 
           2990      1.63433e+7 
           3010      1.65788e+7 
           3030      1.65572e+7 
           3050      1.64996e+7 
           3070      1.63996e+7 
           3090      1.67625e+7 
           3110      1.64027e+7 
           3130      1.64418e+7 
           3150      1.68138e+7 
           3170      1.68516e+7 
           3190      1.60771e+7 
           3210      1.65439e+7 
           3230      1.61031e+7 
           3250      1.65604e+7 
           3270       1.6721e+7 
           3290      1.70219e+7 
           3310      1.71872e+7 
           3330      1.68196e+7 
           3350      1.65909e+7 
           3370      1.66529e+7 
           3390      1.67035e+7 
           3410      1.70602e+7 
           3430      1.72237e+7 
           3450      1.70797e+7 
           3470       1.6909e+7 
           3490      1.69026e+7 
           3510       1.7197e+7 
           3530      1.72935e+7 
           3550      1.74735e+7 
           3570      1.70415e+7 
           3590      1.70199e+7 
           3610      1.71128e+7 
           3630      1.72033e+7 
           3640      1.70329e+7 
           3650      1.74425e+7 
           3670      1.72168e+7 
           3690      1.72136e+7 
           3710      2.08092e+7 
           3730      2.46399e+7 
           3750      3.40496e+7 
           3770      3.65812e+7 
           3790      4.53913e+7 
           3810      5.29068e+7 
           3830      4.13535e+7 
           3850      5.76589e+7 
           3870      6.39189e+7 
           3890      3.70652e+7 
           3910      6.28667e+7 
           3930        5.585e+7 
           3950      6.26116e+7 
           3970      3.40567e+7 
           3990       6.0972e+7 
           4010      6.58031e+7 
           4030      6.52165e+7 
           4050      6.45051e+7 
           4070      6.21647e+7 
           4090      5.09735e+7 
           4110      3.89038e+7 
           4130      5.94219e+7 
           4150      6.11779e+7 
           4170      6.00899e+7 
           4190      5.95841e+7 
           4210      5.91958e+7 
           4230      5.79193e+7 
           4250      5.75736e+7 
           4270      5.65314e+7 
           4290      5.55511e+7 
           4310      5.21407e+7 
           4330      4.21359e+7 
           4350       3.5918e+7 
           4370      5.22536e+7 
           4390      5.23806e+7 
           4410      5.16489e+7 
           4430      5.18325e+7 
           4450      5.13904e+7 
           4470      5.09637e+7 
           4490      5.03443e+7 
           4510      5.02933e+7 
           4530      4.91324e+7 
           4550      4.80736e+7 
           4570      4.86549e+7 
           4590      4.76828e+7 
           4610      4.81439e+7 
           4630      4.69855e+7 
           4650      4.70108e+7 
           4670      4.65399e+7 
           4690      4.56797e+7 
           4710       4.4272e+7 
           4730      4.50164e+7 
           4750      4.46816e+7 
           4770      4.40063e+7 
           4790      4.34294e+7 
           4810      4.27092e+7 
           4830      4.13421e+7 
           4850      3.37563e+7 
           4870      2.72084e+7 
           4890      3.92861e+7 
           4910      4.04215e+7 
           4930       3.9854e+7 
           4950      3.99308e+7 
           4970       3.9848e+7 
           4990       3.9151e+7 
           5010      3.81741e+7 
           5030      3.84131e+7 
           5050      3.79071e+7 
           5070      3.77991e+7 
           5090      3.74198e+7 
           5110       3.7087e+7 
           5130      3.65279e+7 
           5150      3.60799e+7 
           5170      3.50839e+7 
           5190      3.47819e+7 
           5210      3.49151e+7 
           5230      3.43235e+7 
           5250      3.45559e+7 
           5270      3.33731e+7 
           5290      3.38293e+7 
           5310      3.32784e+7 
           5330      3.26803e+7 
           5350      3.29261e+7 
           5370      3.24579e+7 
           5390      3.21474e+7 
           5410      3.17132e+7 
           5430      3.14954e+7 
           5450      3.13319e+7 
           5470      3.10767e+7 
           5490       3.0797e+7 
           5510      3.05304e+7 
           5530      3.01202e+7 
           5550      3.00319e+7 
           5570      2.96831e+7 
           5590      2.93119e+7 
           5610      2.91261e+7 
           5630      2.89468e+7 
           5650      2.86349e+7 
           5670      2.83383e+7 
           5690      2.81371e+7 
           5710      2.78698e+7 
           5730      2.76837e+7 
           5750      2.73911e+7 
           5770      2.71676e+7 
           5790       2.6914e+7 
           5810      2.66855e+7 
           5830      2.64517e+7 
           5850      2.61941e+7 
           5870      2.59689e+7 
           5890      2.55018e+7 
           5910      2.55172e+7 
           5930      2.52939e+7 
           5950      2.50571e+7 
           5970      2.48557e+7 
           5990      2.46081e+7 
           6010      2.43903e+7 
           6030      2.41884e+7 
           6050      2.39804e+7 
           6070      2.38011e+7 
           6090      2.35821e+7 
           6110      2.33644e+7 
           6130      2.31009e+7 
           6150      2.27845e+7 
           6170      2.26539e+7 
           6190      2.25962e+7 
           6210      2.24031e+7 
           6230      2.21818e+7 
           6250      2.18607e+7 
           6270      2.18479e+7 
           6290      2.16654e+7 
           6310      2.14469e+7 
           6330      2.12843e+7 
           6350      2.10001e+7 
           6370      2.08563e+7 
           6390       2.0761e+7 
           6410        2.054e+7 
           6430      2.04051e+7 
           6450      2.00877e+7 
           6470      2.00096e+7 
           6490      1.97496e+7 
           6510      1.95796e+7 
           6530      1.91674e+7 
           6550      1.71705e+7 
           6570      1.37147e+7 
           6590      1.83203e+7 
           6610      1.87502e+7 
           6630       1.8735e+7 
           6650      1.86258e+7 
           6670      1.85058e+7 
           6690      1.83735e+7 
           6710      1.82239e+7 
           6730      1.80734e+7 
           6750      1.79052e+7 
           6770      1.78037e+7 
           6790      1.76573e+7 
           6810      1.75213e+7 
           6830      1.73711e+7 
           6850      1.72394e+7 
           6870       1.7112e+7 
           6890      1.69779e+7 
           6910       1.6845e+7 
           6930      1.67111e+7 
           6950       1.6583e+7 
           6970      1.64523e+7 
           6990      1.63282e+7 
           7010      1.61608e+7 
           7030      1.60667e+7 
           7050      1.59507e+7 
           7070      1.58297e+7 
           7090      1.57105e+7 
           7110       1.5509e+7 
           7130       1.5454e+7 
           7150      1.53271e+7 
           7170      1.52197e+7 
           7190      1.51009e+7 
           7210      1.49868e+7 
           7230      1.48752e+7 
           7250      1.47581e+7 
           7270      1.46642e+7 
           7290      1.45335e+7 
           7310      1.44322e+7 
           7330      1.43213e+7 
           7350      1.42289e+7 
           7370      1.41289e+7 
           7390      1.40139e+7 
           7410      1.38862e+7 
           7430      1.37835e+7 
           7450       1.3692e+7 
           7470      1.35735e+7 
           7490      1.34837e+7 
           7510      1.33986e+7 
           7530      1.33089e+7 
           7550        1.322e+7 
           7570      1.31134e+7 
           7590      1.30254e+7 
           7610      1.29297e+7 
           7630      1.28368e+7 
           7650      1.27356e+7 
           7670      1.26347e+7 
           7690      1.25455e+7 
           7710      1.24539e+7 
           7730      1.23782e+7 
           7750      1.22849e+7 
           7770      1.19927e+7 
           7790      1.21175e+7 
           7810      1.20277e+7 
           7830       1.1935e+7 
           7850      1.18419e+7 
           7870      1.17428e+7 
           7890      1.16452e+7 
           7910      1.15949e+7 
           7930      1.14957e+7 
           7950      1.14123e+7 
           7970       1.1364e+7 
           7990      1.12322e+7 
           8010      1.12015e+7 
           8030      1.11189e+7 
           8050      1.10439e+7 
           8070      1.09673e+7 
           8090      1.08912e+7 
           8110      1.08187e+7 
           8130      1.07461e+7 
           8150      1.06713e+7 
           8170      1.05971e+7 
           8190      1.04713e+7 
           8210      1.04338e+7 
           8230      1.03592e+7 
           8250       1.0278e+7 
           8270      1.02752e+7 
           8290      1.02049e+7 
           8310      1.01236e+7 
           8330      9.99307e+6 
           8350      9.97119e+6 
           8370      9.84186e+6 
           8390      9.75539e+6 
           8410      9.65365e+6 
           8430      9.68212e+6 
           8450      9.54084e+6 
           8470      9.21437e+6 
           8490      9.78826e+6 
           8510      8.87669e+6 
           8530      9.85977e+6 
           8550      8.35682e+6 
           8570      9.99826e+6 
           8590       9.2528e+6 
           8610      8.94205e+6 
           8630      1.01334e+7 
           8650      9.80159e+6 
           8670      7.92261e+6 
           8690      9.92857e+6 
           8710       1.0245e+7 
           8730      9.91738e+6 
           8750      7.87534e+6 
           8770       9.5107e+6 
           8790      1.00901e+7 
           8810      1.00584e+7 
           8830      9.88971e+6 
           8850      9.07402e+6 
           8870      7.65794e+6 
           8890      9.50593e+6 
           8910      9.71481e+6 
           8930      9.70489e+6 
           8950      9.71518e+6 
           8970       9.5909e+6 
           8990      9.27419e+6 
           9010      7.54247e+6 
           9030      8.30653e+6 
           9050      9.20682e+6 
           9070      9.18458e+6 
           9090      9.08676e+6 
           9110      9.17855e+6 
           9130      9.17951e+6 
           9150      9.11827e+6 
           9170      9.02747e+6 
           9190      8.87581e+6 
           9210       8.3874e+6 
           9230       6.6707e+6 
           9250      8.10675e+6 
           9270      8.48259e+6 
           9290      8.67528e+6 
           9310      8.65065e+6 
           9330      8.60278e+6 
           9350      8.56602e+6 
           9370      8.51361e+6 
           9390      8.44406e+6 
           9410      8.25334e+6 
