# Kurucz ODFNEW /NOVER (2003)
# teff = 24000 K (value for the effective temperature for the model. Temperatures are given in K)
# logg = 3 log(cm/s2) (value for Log(G) for the model.)
# meta = 0.5  (value for the Metallicity for the model.)
# lh = 1.25  (l/Hp where l is the  mixing length of the convective element and Hp is the pressure scale height)
# vtur = 2 km/s (Microturbulence velocity)
# alpha = 0.4  (Alpha)
#
# column 1: WAVELENGTH (ANGSTROM), Wavelength in Angstrom
# column 2: FLUX (ERG/CM2/S/A), Flux in erg/cm2/s/A
          147.2     1.29916e-15 
            151     5.93901e-15 
          155.2     2.93475e-14 
          158.8     1.08348e-13 
            162     3.30665e-13 
            166     1.25989e-12 
          170.3     4.93454e-12 
          173.4     1.28414e-11 
          176.8      3.5114e-11 
          180.2     9.25638e-11 
          181.7     1.40171e-10 
          186.1      4.5893e-10 
            191      1.62408e-9 
          193.9       3.3312e-9 
          198.4        9.766e-9 
          201.8      2.13568e-8 
            205      4.36011e-8 
          210.5      1.41908e-7 
          216.2       4.5347e-7 
          219.8      9.17104e-7 
            223      1.68407e-6 
          226.8      3.49322e-6 
            230      4.81459e-5 
            234     0.000113405 
            240     0.000287956 
          246.5     0.000758701 
          252.4       0.0017658 
          256.8      0.00313929 
            260       0.0051588 
            264      0.00842474 
          268.5       0.0151084 
          273.5       0.0276903 
          278.5       0.0491152 
            284        0.101833 
            290         0.19193 
            296        0.354517 
            301        0.576065 
            308          1.2137 
            318         3.12488 
            328         7.01991 
            338         16.1509 
            348         34.1503 
            357         330.738 
            366          988.79 
            375         1530.01 
            385         2847.11 
            395         12200.7 
            405         18618.9 
            414         36900.1 
            422         57265.5 
            430         84858.9 
            441          129019 
            451          167846 
            460          213130 
            470          316886 
            480          439812 
            490          595581 
            500          765891 
            506       2.5664e+6 
            512       3.5179e+7 
            520      3.71547e+7 
            530      3.83703e+7 
            540      3.83396e+7 
            550      7.34629e+7 
            560      9.98669e+7 
            570      1.15508e+8 
            580      9.79821e+7 
            590      1.37943e+8 
            600      1.22625e+8 
            610      1.78382e+8 
            620      2.02301e+8 
            630      2.14467e+8 
            640      1.71874e+8 
            650      1.18128e+8 
            658      1.74981e+8 
            665      2.35021e+8 
            675      2.40371e+8 
            685      1.95219e+8 
            695       3.4297e+8 
            705      2.67267e+8 
            716      3.85183e+8 
            726      3.42203e+8 
            735      4.17298e+8 
            745      4.58598e+8 
            755      4.77242e+8 
            765      5.22146e+8 
            775      5.83637e+8 
            785      6.29202e+8 
            795      6.18837e+8 
            805      6.25823e+8 
            815      6.22868e+8 
            825      7.09428e+8 
            835      4.21563e+8 
            845      6.86637e+8 
            855      6.81646e+8 
            865      7.31229e+8 
            875      7.76856e+8 
            885       8.4569e+8 
            895      8.81124e+8 
            905      8.32827e+8 
            915      1.72277e+9 
            925     1.06028e+10 
            935     1.58979e+10 
            945     1.78863e+10 
            955     1.84216e+10 
            965     1.57007e+10 
            975      2.73655e+9 
            985      8.26826e+9 
            995     1.24124e+10 
           1005     1.68882e+10 
           1015     1.82484e+10 
           1025     1.61306e+10 
           1035       1.506e+10 
           1045     2.27337e+10 
           1055     2.05541e+10 
           1065     1.48835e+10 
           1075     1.81639e+10 
           1085     1.70145e+10 
           1095      1.9231e+10 
           1105     1.66097e+10 
           1115     1.46622e+10 
           1125      9.06919e+9 
           1135     1.67881e+10 
           1145     1.61856e+10 
           1155     1.61214e+10 
           1165     1.57079e+10 
           1175      6.86592e+9 
           1185     1.42571e+10 
           1195     1.36063e+10 
           1205      6.80047e+9 
           1215     1.12491e+10 
           1225     1.40906e+10 
           1235     1.60142e+10 
           1245     1.48857e+10 
           1255     1.51263e+10 
           1265     1.56954e+10 
           1275     1.65171e+10 
           1285     1.63897e+10 
           1295      9.49268e+9 
           1305     1.14884e+10 
           1315     1.63663e+10 
           1325     1.53005e+10 
           1335     1.48379e+10 
           1345     1.50883e+10 
           1355     1.49007e+10 
           1365     1.35174e+10 
           1375     1.25089e+10 
           1385     1.02842e+10 
           1395      4.28258e+9 
           1405      6.00775e+9 
           1415     1.01478e+10 
           1425     1.05591e+10 
           1435     1.15145e+10 
           1442     1.18219e+10 
           1447     1.16512e+10 
           1455     1.10444e+10 
           1465      9.99949e+9 
           1475     1.06943e+10 
           1485     1.05998e+10 
           1495     1.02909e+10 
           1505      9.23484e+9 
           1512      8.29906e+9 
           1517      8.68628e+9 
           1525      8.85813e+9 
           1535      7.14774e+9 
           1545      6.45957e+9 
           1555       6.4196e+9 
           1565      7.40146e+9 
           1575      8.14821e+9 
           1585      8.29345e+9 
           1595      8.15247e+9 
           1605       8.2944e+9 
           1615      8.04453e+9 
           1625      7.95253e+9 
           1635      8.65052e+9 
           1645      8.86183e+9 
           1655      8.57722e+9 
           1665      8.74765e+9 
           1672      8.04415e+9 
           1677      9.63012e+9 
           1685      9.10103e+9 
           1695      8.46657e+9 
           1705      8.46694e+9 
           1715      7.74394e+9 
           1725      7.68721e+9 
           1735      8.09407e+9 
           1745      7.96495e+9 
           1755      7.97498e+9 
           1765      8.10158e+9 
           1775      7.33927e+9 
           1785      7.60346e+9 
           1795      7.82415e+9 
           1805      7.96815e+9 
           1815      6.95529e+9 
           1825      7.32833e+9 
           1835      7.16063e+9 
           1845       6.4608e+9 
           1855      6.73543e+9 
           1865      6.80159e+9 
           1875      7.05479e+9 
           1885      6.24379e+9 
           1895      5.82211e+9 
           1905      6.48419e+9 
           1915       5.9672e+9 
           1925      5.59692e+9 
           1935      6.13909e+9 
           1945      6.25189e+9 
           1955      5.48294e+9 
           1967      6.17972e+9 
           1976      6.46221e+9 
           1984      6.03522e+9 
           1995      5.93213e+9 
           2005      6.30765e+9 
           2015      6.23527e+9 
           2025      6.37623e+9 
           2035      5.75907e+9 
           2045      5.94278e+9 
           2055      5.47499e+9 
           2065      5.40053e+9 
           2074       5.8909e+9 
           2078      5.22438e+9 
           2085      5.78047e+9 
           2095      5.39718e+9 
           2105      5.62217e+9 
           2115      5.75197e+9 
           2125      5.74952e+9 
           2135      5.69538e+9 
           2145      5.33584e+9 
           2155       5.6475e+9 
           2165      5.63508e+9 
           2175      5.58664e+9 
           2185       5.3524e+9 
           2195      5.48929e+9 
           2205       5.5312e+9 
           2215       5.4237e+9 
           2225      5.26616e+9 
           2235      5.16733e+9 
           2245      5.24212e+9 
           2255      5.06808e+9 
           2265      5.15098e+9 
           2275      5.07806e+9 
           2285      5.03487e+9 
           2295      4.12569e+9 
           2305      4.83109e+9 
           2315      4.69736e+9 
           2325      4.68554e+9 
           2335      4.53169e+9 
           2345      4.63021e+9 
           2355      4.57378e+9 
           2365      4.55048e+9 
           2375      4.43042e+9 
           2385      4.38805e+9 
           2395      4.32626e+9 
           2405      4.28085e+9 
           2415      4.22228e+9 
           2425      4.21726e+9 
           2435      4.10752e+9 
           2445      4.12271e+9 
           2455      4.10263e+9 
           2465      3.99507e+9 
           2475      3.85117e+9 
           2485      3.46432e+9 
           2495      2.14084e+9 
           2505      3.13516e+9 
           2513      3.42233e+9 
           2518      3.59717e+9 
           2525      3.66381e+9 
           2535      3.69294e+9 
           2545      3.48169e+9 
           2555      3.60766e+9 
           2565      3.53045e+9 
           2575      3.58194e+9 
           2585      3.51544e+9 
           2595      3.49444e+9 
           2605      3.47877e+9 
           2615      3.38979e+9 
           2625      3.38534e+9 
           2635       3.3604e+9 
           2645      3.31468e+9 
           2655      3.29922e+9 
           2665      3.11739e+9 
           2675      3.14119e+9 
           2685      3.15818e+9 
           2695      3.03032e+9 
           2705      2.93155e+9 
           2715      2.96376e+9 
           2725      2.98776e+9 
           2735      2.95411e+9 
           2745      2.90648e+9 
           2755      2.89326e+9 
           2765      2.86276e+9 
           2775      2.89246e+9 
           2785      2.82694e+9 
           2795      2.70509e+9 
           2805      2.76077e+9 
           2815      2.76729e+9 
           2825      2.75331e+9 
           2835      2.63525e+9 
           2845       2.6634e+9 
           2855      2.59462e+9 
           2865      2.60853e+9 
           2875      2.57187e+9 
           2885      2.54909e+9 
           2895      2.49676e+9 
           2910      2.42625e+9 
           2930      2.43633e+9 
           2950      2.36592e+9 
           2970      2.32583e+9 
           2990      2.26322e+9 
           3010      2.13906e+9 
           3030      2.14477e+9 
           3050      2.13747e+9 
           3070       2.1223e+9 
           3090      2.00626e+9 
           3110      2.03394e+9 
           3130      1.96611e+9 
           3150      1.94943e+9 
           3170      1.89034e+9 
           3190      1.87063e+9 
           3210        1.838e+9 
           3230      1.78115e+9 
           3250      1.77046e+9 
           3270      1.71755e+9 
           3290      1.68883e+9 
           3310       1.6548e+9 
           3330      1.61439e+9 
           3350      1.59044e+9 
           3370      1.55188e+9 
           3390       1.5428e+9 
           3410      1.51484e+9 
           3430      1.49255e+9 
           3450      1.45561e+9 
           3470      1.42981e+9 
           3490       1.3993e+9 
           3510      1.37395e+9 
           3530      1.36559e+9 
           3550      1.33509e+9 
           3570      1.30986e+9 
           3590      1.27391e+9 
           3610      1.25321e+9 
           3630      1.23558e+9 
           3640      1.23062e+9 
           3650      1.20618e+9 
           3670      1.19291e+9 
           3690      1.15951e+9 
           3710      1.12706e+9 
           3730       1.1133e+9 
           3750      1.16342e+9 
           3770      1.13955e+9 
           3790      1.14972e+9 
           3810      1.17121e+9 
           3830      1.07588e+9 
           3850      1.13739e+9 
           3870       1.0908e+9 
           3890      1.03224e+9 
           3910       1.0996e+9 
           3930      1.05509e+9 
           3950      1.03944e+9 
           3970      9.51618e+8 
           3990      1.01965e+9 
           4010      1.00756e+9 
           4030      9.75684e+8 
           4050      9.67565e+8 
           4070      9.17461e+8 
           4090      8.81327e+8 
           4110      8.36084e+8 
           4130      8.83046e+8 
           4150      8.76414e+8 
           4170      8.77018e+8 
           4190      8.66541e+8 
           4210      8.59114e+8 
           4230      8.37682e+8 
           4250      8.11441e+8 
           4270      7.90489e+8 
           4290      7.72103e+8 
           4310      7.48527e+8 
           4330      7.26819e+8 
           4350      6.87122e+8 
           4370       7.1894e+8 
           4390      7.28199e+8 
           4410      7.10471e+8 
           4430      7.07852e+8 
           4450      6.93247e+8 
           4470      6.82381e+8 
           4490      6.79866e+8 
           4510      6.69293e+8 
           4530       6.6336e+8 
           4550      6.54921e+8 
           4570      6.43663e+8 
           4590       6.3195e+8 
           4610      6.15081e+8 
           4630      6.08671e+8 
           4650      5.79943e+8 
           4670      5.89082e+8 
           4690      5.86535e+8 
           4710      5.64276e+8 
           4730      5.71958e+8 
           4750      5.61341e+8 
           4770      5.64178e+8 
           4790      5.54189e+8 
           4810      5.42084e+8 
           4830      5.33163e+8 
           4850      5.21359e+8 
           4870      4.82664e+8 
           4890      5.12266e+8 
           4910       5.0532e+8 
           4930      4.93432e+8 
           4950        4.867e+8 
           4970      4.88037e+8 
           4990      4.79957e+8 
           5010      4.58407e+8 
           5030      4.63271e+8 
           5050      4.55384e+8 
           5070       4.5366e+8 
           5090      4.45449e+8 
           5110      4.37943e+8 
           5130      4.28652e+8 
           5150      4.25343e+8 
           5170      4.20945e+8 
           5190      4.16336e+8 
           5210      4.09607e+8 
           5230      4.05034e+8 
           5250      3.99603e+8 
           5270      3.92384e+8 
           5290      3.89423e+8 
           5310      3.83422e+8 
           5330      3.79184e+8 
           5350      3.73827e+8 
           5370      3.69376e+8 
           5390      3.63398e+8 
           5410      3.59429e+8 
           5430      3.54703e+8 
           5450      3.49492e+8 
           5470      3.45102e+8 
           5490      3.40743e+8 
           5510       3.3743e+8 
           5530      3.31803e+8 
           5550      3.29098e+8 
           5570      3.24286e+8 
           5590      3.20306e+8 
           5610      3.16254e+8 
           5630      3.12823e+8 
           5650      3.07025e+8 
           5670      3.01546e+8 
           5690      2.95509e+8 
           5710      2.93985e+8 
           5730       2.9142e+8 
           5750      2.86081e+8 
           5770      2.85199e+8 
           5790      2.81085e+8 
           5810      2.77747e+8 
           5830      2.73329e+8 
           5850      2.70979e+8 
           5870      2.63002e+8 
           5890      2.62326e+8 
           5910      2.60112e+8 
           5930      2.56571e+8 
           5950      2.53338e+8 
           5970      2.53028e+8 
           5990      2.47729e+8 
           6010      2.46281e+8 
           6030       2.4233e+8 
           6050      2.39824e+8 
           6070      2.37817e+8 
           6090      2.35161e+8 
           6110      2.32251e+8 
           6130      2.29776e+8 
           6150      2.25355e+8 
           6170      2.23036e+8 
           6190      2.21459e+8 
           6210      2.19341e+8 
           6230      2.16839e+8 
           6250      2.13486e+8 
           6270      2.11455e+8 
           6290      2.09341e+8 
           6310      2.06219e+8 
           6330      2.04729e+8 
           6350       2.0148e+8 
           6370      2.00105e+8 
           6390      1.97692e+8 
           6410      1.95424e+8 
           6430      1.93563e+8 
           6450      1.91269e+8 
           6470      1.87821e+8 
           6490      1.85842e+8 
           6510      1.83822e+8 
           6530      1.81593e+8 
           6550       1.7916e+8 
           6570      1.63443e+8 
           6590      1.75101e+8 
           6610      1.74284e+8 
           6630      1.72763e+8 
           6650      1.70413e+8 
           6670      1.67725e+8 
           6690      1.66092e+8 
           6710      1.65329e+8 
           6730      1.62684e+8 
           6750      1.62003e+8 
           6770      1.60332e+8 
           6790      1.56954e+8 
           6810      1.56529e+8 
           6830      1.54531e+8 
           6850      1.53414e+8 
           6870      1.51675e+8 
           6890      1.49661e+8 
           6910      1.47431e+8 
           6930      1.47107e+8 
           6950      1.45653e+8 
           6970      1.44144e+8 
           6990      1.42526e+8 
           7010      1.40947e+8 
           7030      1.39369e+8 
           7050      1.38064e+8 
           7070      1.34759e+8 
           7090      1.35304e+8 
           7110      1.31958e+8 
           7130      1.30856e+8 
           7150      1.31149e+8 
           7170      1.29825e+8 
           7190      1.28586e+8 
           7210      1.27265e+8 
           7230      1.23845e+8 
           7250      1.24101e+8 
           7270      1.23384e+8 
           7290      1.21262e+8 
           7310      1.20874e+8 
           7330      1.19549e+8 
           7350      1.18453e+8 
           7370      1.17353e+8 
           7390      1.16188e+8 
           7410      1.15026e+8 
           7430      1.13821e+8 
           7450      1.12654e+8 
           7470      1.10262e+8 
           7490      1.10185e+8 
           7510      1.09338e+8 
           7530      1.08001e+8 
           7550      1.07297e+8 
           7570      1.06258e+8 
           7590       1.0509e+8 
           7610      1.03732e+8 
           7630      1.03092e+8 
           7650      1.02038e+8 
           7670      1.01206e+8 
           7690      1.00132e+8 
           7710      9.91572e+7 
           7730      9.80016e+7 
           7750      9.73459e+7 
           7770      9.59406e+7 
           7790       9.5548e+7 
           7810      9.46084e+7 
           7830      9.37631e+7 
           7850      9.28274e+7 
           7870      9.15716e+7 
           7890      9.04907e+7 
           7910      9.00276e+7 
           7930      8.90888e+7 
           7950      8.83431e+7 
           7970      8.75267e+7 
           7990      8.67232e+7 
           8010      8.59266e+7 
           8030      8.51602e+7 
           8050      8.44992e+7 
           8070      8.37396e+7 
           8090      8.29059e+7 
           8110      8.13462e+7 
           8130      8.14651e+7 
           8150      8.06518e+7 
           8170      8.00598e+7 
           8190      7.84842e+7 
           8210      7.78899e+7 
           8230      7.69167e+7 
           8250      7.69538e+7 
           8270      7.50232e+7 
           8290      7.53852e+7 
           8310      7.48701e+7 
           8330      7.42612e+7 
           8350      7.32575e+7 
           8370      7.25637e+7 
           8390      7.21914e+7 
           8410      7.13477e+7 
           8430       7.0893e+7 
           8450      6.98086e+7 
           8470      6.92797e+7 
           8490      6.92516e+7 
           8510      6.75792e+7 
           8530      6.83551e+7 
           8550      6.57888e+7 
           8570      6.77545e+7 
