# Kurucz ODFNEW /NOVER (2003)
# teff = 9750 K (value for the effective temperature for the model. Temperatures are given in K)
# logg = 5 log(cm/s2) (value for Log(G) for the model.)
# meta = 0  (value for the Metallicity for the model.)
# lh = 1.25  (l/Hp where l is the  mixing length of the convective element and Hp is the pressure scale height)
# vtur = 2 km/s (Microturbulence velocity)
# alpha = 0.4  (Alpha)
#
# column 1: WAVELENGTH (ANGSTROM), Wavelength in Angstrom
# column 2: FLUX (ERG/CM2/S/A), Flux in erg/cm2/s/A
          273.5     2.78802e-23 
          278.5     1.54636e-22 
            284     6.88759e-22 
            290       3.231e-21 
            296     1.42297e-20 
            301     4.70616e-20 
            308      2.3708e-19 
            318     2.12982e-18 
            328     1.68632e-17 
            338     1.19277e-16 
            348     7.57074e-16 
            357     3.66505e-15 
            366     1.64882e-14 
            375     6.89807e-14 
            385     3.13278e-13 
            395     1.31815e-12 
            405     5.16133e-12 
            414     1.66681e-11 
            422     4.52772e-11 
            430     1.18365e-10 
            441     4.18956e-10 
            451      1.25079e-9 
            460      3.20861e-9 
            470      8.75431e-9 
            480      2.28637e-8 
            490      5.73206e-8 
            500      1.38311e-7 
            506      2.31906e-7 
            512      3.90089e-7 
            520      7.41017e-7 
            530      1.60844e-6 
            540      3.38501e-6 
            550      6.92995e-6 
            560       1.3815e-5 
            570      2.68441e-5 
            580      5.09145e-5 
            590      9.44183e-5 
            600     0.000171276 
            610     0.000304411 
            620     0.000530381 
            630     0.000906884 
            640      0.00152338 
            650      0.00251548 
            658      0.00371331 
            665      0.00517799 
            675      0.00822078 
            685       0.0128629 
            695       0.0198479 
            705       0.0302217 
            716       0.0472969 
            726       0.0701623 
            735       0.0990665 
            745        0.143802 
            755        0.206511 
            765        0.293524 
            775        0.413087 
            785        0.575837 
            795        0.782636 
            805         1.08904 
            815          1.4785 
            825         1.99101 
            835         2.66008 
            845         3.52731 
            855          4.6433 
            865         6.06966 
            875         7.88026 
            885          10.164 
            895         13.0276 
            905         16.5963 
            915         116.498 
            925         794.076 
            935         1320.76 
            945         2098.62 
            955         2935.72 
            965         3827.59 
            975         3428.04 
            985         5223.29 
            995         5764.58 
           1005         7162.53 
           1015          8237.6 
           1025         6640.12 
           1035         10673.2 
           1045         12620.5 
           1055         14475.8 
           1065         16076.6 
           1075         18903.9 
           1085         21511.1 
           1095         23548.1 
           1105         39591.3 
           1115         95483.5 
           1125          134163 
           1135          188966 
           1145          203318 
           1155          210888 
           1165          238824 
           1175          237892 
           1185          227485 
           1195          120200 
           1205          128885 
           1215         31213.2 
           1225          134758 
           1235          268834 
           1245          416607 
           1255          902127 
           1265      1.32811e+6 
           1275       3.5487e+6 
           1285      8.35491e+6 
           1295      1.05406e+7 
           1305      4.35699e+6 
           1315      1.28718e+7 
           1325      1.63841e+7 
           1335      1.73956e+7 
           1345      2.12623e+7 
           1355      1.90673e+7 
           1365      1.81476e+7 
           1375      1.93824e+7 
           1385      1.51094e+7 
           1395      1.70568e+7 
           1405      2.04202e+7 
           1415      2.36173e+7 
           1425       2.7311e+7 
           1435       2.2347e+7 
           1442      2.89899e+7 
           1447       3.0276e+7 
           1455      3.18873e+7 
           1465      2.87731e+7 
           1475       2.7657e+7 
           1485      2.88762e+7 
           1495      3.30203e+7 
           1505      3.31917e+7 
           1512      2.96833e+7 
           1517      3.36444e+7 
           1525      3.26784e+7 
           1535      4.03874e+7 
           1545      6.41396e+7 
           1555       3.8221e+7 
           1565      3.51607e+7 
           1575       6.1522e+7 
           1585      8.57043e+7 
           1595      9.65286e+7 
           1605      1.03645e+8 
           1615      1.01126e+8 
           1625       8.0066e+7 
           1635      8.19842e+7 
           1645      1.16995e+8 
           1655      8.31906e+7 
           1665       1.1155e+8 
           1672      7.80577e+7 
           1677      1.08984e+8 
           1685      1.25295e+8 
           1695      9.20494e+7 
           1705      9.97242e+7 
           1715      1.10223e+8 
           1725      1.09302e+8 
           1735      1.21031e+8 
           1745      1.16715e+8 
           1755      1.31952e+8 
           1765      1.03274e+8 
           1775      1.26927e+8 
           1785      1.26502e+8 
           1795      1.39641e+8 
           1805      1.24361e+8 
           1815      1.25053e+8 
           1825      1.18936e+8 
           1835      1.15048e+8 
           1845      1.03457e+8 
           1855      1.13817e+8 
           1865      1.17019e+8 
           1875       1.1976e+8 
           1885      1.20179e+8 
           1895      1.19942e+8 
           1905      1.10277e+8 
           1915      1.20491e+8 
           1925      1.21438e+8 
           1935      1.12338e+8 
           1945      1.23524e+8 
           1955      1.22057e+8 
           1967      1.26132e+8 
           1976      1.22216e+8 
           1984      1.18486e+8 
           1995      1.15545e+8 
           2005      1.12147e+8 
           2015      1.07121e+8 
           2025      1.05431e+8 
           2035      1.11912e+8 
           2045      1.16099e+8 
           2055      1.09307e+8 
           2065      1.09179e+8 
           2074      1.13978e+8 
           2078      1.18339e+8 
           2085      1.15474e+8 
           2095      1.11422e+8 
           2105      1.06761e+8 
           2115       1.0684e+8 
           2125       1.0869e+8 
           2135      9.26487e+7 
           2145      1.04757e+8 
           2155      1.03884e+8 
           2165      9.78871e+7 
           2175      9.69492e+7 
           2185      9.86994e+7 
           2195      1.03549e+8 
           2205      9.88929e+7 
           2215      9.02466e+7 
           2225      8.99547e+7 
           2235      1.00404e+8 
           2245      9.03324e+7 
           2255      8.73104e+7 
           2265      8.72755e+7 
           2275      9.29008e+7 
           2285      9.61517e+7 
           2295      8.91858e+7 
           2305      8.83853e+7 
           2315      8.62877e+7 
           2325      8.54704e+7 
           2335      8.10501e+7 
           2345      7.44549e+7 
           2355      8.50456e+7 
           2365       7.5619e+7 
           2375      7.99326e+7 
           2385      7.04552e+7 
           2395       7.7178e+7 
           2405      7.35935e+7 
           2415      7.50394e+7 
           2425      7.99888e+7 
           2435      7.55463e+7 
           2445      8.07148e+7 
           2455      7.76958e+7 
           2465      7.80897e+7 
           2475      7.40897e+7 
           2485      7.76797e+7 
           2495       7.4698e+7 
           2505      8.28741e+7 
           2513      7.39718e+7 
           2518      7.40527e+7 
           2525       6.9406e+7 
           2535      6.80856e+7 
           2545      6.68653e+7 
           2555      7.08731e+7 
           2565      7.17302e+7 
           2575      7.82421e+7 
           2585      7.90756e+7 
           2595      7.81148e+7 
           2605      7.45295e+7 
           2615      7.36411e+7 
           2625      7.83296e+7 
           2635       7.8013e+7 
           2645        8.611e+7 
           2655      8.53397e+7 
           2665      7.75554e+7 
           2675      8.12043e+7 
           2685      8.14994e+7 
           2695        7.741e+7 
           2705      7.90527e+7 
           2715      7.48632e+7 
           2725        7.537e+7 
           2735      8.03951e+7 
           2745       6.9506e+7 
           2755      7.00794e+7 
           2765      7.22195e+7 
           2775      7.63084e+7 
           2785      7.17446e+7 
           2795      4.57026e+7 
           2805      5.44264e+7 
           2815      7.69649e+7 
           2825      7.88096e+7 
           2835      7.63469e+7 
           2845      7.31581e+7 
           2855      6.99427e+7 
           2865      7.55366e+7 
           2875      7.36173e+7 
           2885      7.49093e+7 
           2895      7.26307e+7 
           2910      7.91087e+7 
           2930      7.53731e+7 
           2950      7.54151e+7 
           2970       7.6312e+7 
           2990      7.62342e+7 
           3010      7.69335e+7 
           3030      7.59663e+7 
           3050      7.50219e+7 
           3070      7.39597e+7 
           3090      7.44771e+7 
           3110      7.27199e+7 
           3130      7.26164e+7 
           3150      7.29843e+7 
           3170      7.23812e+7 
           3190      6.93403e+7 
           3210      7.05593e+7 
           3230      6.86735e+7 
           3250      6.95465e+7 
           3270      6.96602e+7 
           3290      7.00375e+7 
           3310      7.00464e+7 
           3330      6.82767e+7 
           3350      6.70845e+7 
           3370       6.7037e+7 
           3390      6.64811e+7 
           3410      6.71744e+7 
           3430      6.69313e+7 
           3450      6.61322e+7 
           3470      6.53345e+7 
           3490      6.49837e+7 
           3510      6.52697e+7 
           3530      6.50008e+7 
           3550      6.49401e+7 
           3570      6.35583e+7 
           3590      6.30859e+7 
           3610      6.27964e+7 
           3630      6.24752e+7 
           3640      6.19931e+7 
           3650      6.28952e+7 
           3670      6.26535e+7 
           3690      6.13509e+7 
           3710      5.97031e+7 
           3730      5.63974e+7 
           3750       6.2811e+7 
           3770       6.4895e+7 
           3790      7.79576e+7 
           3810      9.15839e+7 
           3830      7.31608e+7 
           3850       1.0246e+8 
           3870      1.19316e+8 
           3890      6.45032e+7 
           3910       1.2065e+8 
           3930      1.25428e+8 
           3950       1.2107e+8 
           3970      6.17146e+7 
           3990      1.15089e+8 
           4010      1.42081e+8 
           4030      1.45153e+8 
           4050      1.42506e+8 
           4070      1.29949e+8 
           4090        9.011e+7 
           4110      6.83515e+7 
           4130       1.1889e+8 
           4150      1.33527e+8 
           4170      1.34749e+8 
           4190      1.34284e+8 
           4210      1.33349e+8 
           4230      1.30122e+8 
           4250      1.28842e+8 
           4270      1.24582e+8 
           4290      1.21304e+8 
           4310      1.07607e+8 
           4330      7.40282e+7 
           4350        6.306e+7 
           4370      1.03495e+8 
           4390      1.11914e+8 
           4410      1.14053e+8 
           4430      1.12914e+8 
           4450       1.1387e+8 
           4470      1.12769e+8 
           4490      1.09275e+8 
           4510      1.10718e+8 
           4530      1.08575e+8 
           4550      1.06481e+8 
           4570      1.06744e+8 
           4590      1.04728e+8 
           4610      1.04949e+8 
           4630      1.02331e+8 
           4650      1.02137e+8 
           4670      1.00805e+8 
           4690      9.79105e+7 
           4710      9.41344e+7 
           4730      9.65966e+7 
           4750       9.5294e+7 
           4770      9.36471e+7 
           4790      9.15269e+7 
           4810      8.76752e+7 
           4830      7.98242e+7 
           4850      5.77542e+7 
           4870      4.71069e+7 
           4890      7.35669e+7 
           4910      8.17416e+7 
           4930        8.287e+7 
           4950      8.36469e+7 
           4970      8.35668e+7 
           4990      8.23551e+7 
           5010      8.03526e+7 
           5030      8.03567e+7 
           5050      7.86578e+7 
           5070      7.91157e+7 
           5090      7.82669e+7 
           5110      7.74159e+7 
           5130      7.63654e+7 
           5150      7.52521e+7 
           5170      7.32545e+7 
           5190      7.26043e+7 
           5210        7.271e+7 
           5230      7.13437e+7 
           5250      7.13848e+7 
           5270      6.89803e+7 
           5290      6.97467e+7 
           5310      6.85088e+7 
           5330      6.68087e+7 
           5350      6.74171e+7 
           5370       6.6554e+7 
           5390      6.58379e+7 
           5410      6.45579e+7 
           5430      6.42851e+7 
           5450      6.38509e+7 
           5470      6.31129e+7 
           5490      6.23789e+7 
           5510      6.18139e+7 
           5530      6.09451e+7 
           5550      6.05433e+7 
           5570      5.98252e+7 
           5590      5.90615e+7 
           5610      5.85897e+7 
           5630      5.80826e+7 
           5650      5.73795e+7 
           5670      5.66695e+7 
           5690      5.61846e+7 
           5710      5.55849e+7 
           5730      5.51344e+7 
           5750      5.44029e+7 
           5770        5.392e+7 
           5790       5.3338e+7 
           5810      5.28118e+7 
           5830      5.22883e+7 
           5850      5.17222e+7 
           5870      5.11473e+7 
           5890      5.02511e+7 
           5910      5.01413e+7 
           5930      4.96429e+7 
           5950      4.90129e+7 
           5970       4.8611e+7 
           5990      4.79919e+7 
           6010      4.75333e+7 
           6030      4.71138e+7 
           6050      4.66011e+7 
           6070      4.62342e+7 
           6090      4.57533e+7 
           6110      4.52665e+7 
           6130       4.4725e+7 
           6150      4.36009e+7 
           6170      4.36928e+7 
           6190      4.35426e+7 
           6210      4.30829e+7 
           6230      4.26203e+7 
           6250       4.1942e+7 
           6270      4.18588e+7 
           6290      4.14607e+7 
           6310      4.09788e+7 
           6330      4.06018e+7 
           6350      3.96644e+7 
           6370      3.94779e+7 
           6390       3.9364e+7 
           6410       3.8873e+7 
           6430      3.85268e+7 
           6450      3.76788e+7 
           6470        3.752e+7 
           6490       3.6808e+7 
           6510      3.58772e+7 
           6530       3.3783e+7 
           6550      2.81249e+7 
           6570      2.29346e+7 
           6590      3.12127e+7 
           6610      3.37411e+7 
           6630      3.43786e+7 
           6650      3.44336e+7 
           6670      3.42757e+7 
           6690      3.40702e+7 
           6710      3.38147e+7 
           6730      3.34635e+7 
           6750      3.31538e+7 
           6770      3.30051e+7 
           6790      3.26957e+7 
           6810      3.24106e+7 
           6830      3.20862e+7 
           6850      3.18132e+7 
           6870      3.15412e+7 
           6890      3.12591e+7 
           6910      3.09751e+7 
           6930      3.06852e+7 
           6950      3.04207e+7 
           6970      3.01424e+7 
           6990      2.98862e+7 
           7010      2.94414e+7 
           7030       2.9326e+7 
           7050       2.9078e+7 
           7070      2.88345e+7 
           7090      2.85919e+7 
           7110      2.80751e+7 
           7130      2.80378e+7 
           7150      2.77412e+7 
           7170      2.75551e+7 
           7190      2.73211e+7 
           7210      2.70973e+7 
           7230      2.68568e+7 
           7250      2.65461e+7 
           7270      2.64088e+7 
           7290      2.61323e+7 
           7310      2.59486e+7 
           7330      2.57209e+7 
           7350      2.55232e+7 
           7370      2.53079e+7 
           7390      2.50718e+7 
           7410      2.48111e+7 
           7430      2.45091e+7 
           7450      2.43811e+7 
           7470       2.4113e+7 
           7490      2.39669e+7 
           7510      2.38147e+7 
           7530      2.36313e+7 
           7550      2.34527e+7 
           7570      2.32448e+7 
           7590       2.3061e+7 
           7610      2.28697e+7 
           7630      2.26749e+7 
           7650      2.24708e+7 
           7670      2.22622e+7 
           7690      2.20727e+7 
           7710      2.19203e+7 
           7730      2.17534e+7 
           7750      2.15648e+7 
           7770      2.08661e+7 
           7790      2.12309e+7 
           7810        2.105e+7 
           7830      2.08621e+7 
           7850       2.0652e+7 
           7870      2.03964e+7 
           7890       2.0163e+7 
           7910      2.01533e+7 
           7930      1.99792e+7 
           7950      1.97108e+7 
           7970      1.97312e+7 
           7990      1.92837e+7 
           8010      1.94095e+7 
           8030      1.92411e+7 
           8050      1.91014e+7 
           8070       1.8945e+7 
           8090      1.87996e+7 
           8110      1.86486e+7 
           8130       1.8517e+7 
           8150      1.83741e+7 
           8170      1.82306e+7 
           8190      1.79507e+7 
           8210       1.7827e+7 
           8230      1.76454e+7 
           8250      1.75788e+7 
           8270      1.76189e+7 
           8290      1.74759e+7 
           8310      1.73433e+7 
           8330      1.71423e+7 
           8350      1.71024e+7 
           8370      1.69977e+7 
           8390      1.68632e+7 
           8410      1.67394e+7 
           8430      1.65912e+7 
           8450      1.62115e+7 
           8470      1.62999e+7 
           8490      1.61819e+7 
           8510      1.57631e+7 
           8530      1.59414e+7 
           8550      1.49965e+7 
           8570      1.58176e+7 
           8590      1.51982e+7 
           8610      1.49935e+7 
           8630      1.56045e+7 
           8650      1.50183e+7 
           8670      1.34135e+7 
           8690      1.50086e+7 
           8710      1.54984e+7 
           8730       1.4777e+7 
           8750      1.24593e+7 
           8770      1.40826e+7 
           8790      1.52746e+7 
           8810      1.53971e+7 
           8830      1.48404e+7 
           8850      1.30663e+7 
           8870      1.14872e+7 
           8890        1.395e+7 
           8910      1.48674e+7 
           8930      1.51207e+7 
           8950      1.51792e+7 
           8970      1.46888e+7 
           8990       1.3557e+7 
           9010      1.09492e+7 
           9030      1.17397e+7 
           9050      1.36419e+7 
           9070      1.41712e+7 
           9090      1.42917e+7 
           9110      1.45604e+7 
           9130       1.4559e+7 
           9150      1.44001e+7 
           9170      1.40318e+7 
           9190      1.33369e+7 
           9210      1.19431e+7 
