# Kurucz ODFNEW /NOVER (2003)
# teff = 26000 K (value for the effective temperature for the model. Temperatures are given in K)
# logg = 4 log(cm/s2) (value for Log(G) for the model.)
# meta = 0  (value for the Metallicity for the model.)
# lh = 1.25  (l/Hp where l is the  mixing length of the convective element and Hp is the pressure scale height)
# vtur = 2 km/s (Microturbulence velocity)
# alpha = 0.4  (Alpha)
#
# column 1: WAVELENGTH (ANGSTROM), Wavelength in Angstrom
# column 2: FLUX (ERG/CM2/S/A), Flux in erg/cm2/s/A
          147.2     3.30849e-13 
            151     1.30495e-12 
          155.2     5.53136e-12 
          158.8     1.80436e-11 
            162     4.96076e-11 
            166      1.6701e-10 
          170.3     5.79446e-10 
          173.4      1.38012e-9 
          176.8      3.44571e-9 
          180.2      8.33463e-9 
          181.7        1.218e-8 
          186.1      3.59736e-8 
            191      1.13914e-7 
          193.9      2.19581e-7 
          198.4      5.86812e-7 
          201.8      1.19994e-6 
            205      2.30538e-6 
          210.5      6.78288e-6 
          216.2      1.96382e-5 
          219.8      3.74008e-5 
            223      6.52119e-5 
          226.8      0.00012447 
            230      0.00575883 
            234       0.0128239 
            240        0.028895 
          246.5       0.0671342 
          252.4        0.140519 
          256.8        0.227387 
            260        0.355391 
            264        0.538624 
          268.5        0.894476 
          273.5          1.5111 
          278.5         2.49161 
            284         4.69557 
            290         8.12992 
            296         13.8655 
            301         21.1282 
            308         39.8397 
            318         92.0291 
            328         185.108 
            338         384.103 
            348           736.2 
            357         4047.55 
            366         8839.18 
            375         13104.7 
            385         21948.5 
            395           45094 
            405         66422.9 
            414          100064 
            422          131844 
            430          182595 
            441          266410 
            451          359540 
            460          460550 
            470          634147 
            480          837585 
            490      1.11191e+6 
            500      1.43715e+6 
            506      6.72103e+6 
            512      4.33374e+7 
            520      4.63862e+7 
            530      5.25825e+7 
            540      5.27072e+7 
            550      7.75614e+7 
            560       9.2205e+7 
            570      1.06552e+8 
            580      9.99341e+7 
            590      1.30097e+8 
            600      1.37402e+8 
            610      1.61889e+8 
            620      1.76957e+8 
            630      1.85365e+8 
            640      1.70494e+8 
            650      1.39876e+8 
            658      1.93714e+8 
            665      2.31426e+8 
            675      2.40859e+8 
            685      2.40694e+8 
            695      3.15578e+8 
            705      3.07561e+8 
            716      3.55892e+8 
            726      3.59135e+8 
            735      3.77828e+8 
            745      4.26072e+8 
            755      4.46934e+8 
            765      4.77509e+8 
            775      5.07347e+8 
            785      5.39914e+8 
            795      5.51344e+8 
            805      5.69142e+8 
            815       5.8016e+8 
            825      6.29501e+8 
            835       5.2644e+8 
            845      6.40681e+8 
            855      6.51446e+8 
            865      6.89943e+8 
            875       7.2642e+8 
            885       7.8013e+8 
            895      8.11613e+8 
            905      8.01549e+8 
            915      1.09632e+9 
            925      7.12357e+9 
            935     1.58513e+10 
            945      2.8078e+10 
            955     3.34615e+10 
            965     3.83702e+10 
            975      7.63267e+9 
            985     3.09542e+10 
            995     2.96794e+10 
           1005      3.4104e+10 
           1015     3.51379e+10 
           1025     2.02295e+10 
           1035     2.89117e+10 
           1045     4.13703e+10 
           1055     3.79835e+10 
           1065     2.95784e+10 
           1075     3.42231e+10 
           1085     3.13807e+10 
           1095     3.48852e+10 
           1105     3.07119e+10 
           1115     2.88775e+10 
           1125     2.18318e+10 
           1135     3.10835e+10 
           1145     2.79013e+10 
           1155     2.84773e+10 
           1165      2.8554e+10 
           1175     1.68008e+10 
           1185     2.65855e+10 
           1195     2.41984e+10 
           1205     1.51973e+10 
           1215     1.39693e+10 
           1225     2.26506e+10 
           1235     2.57176e+10 
           1245     2.49172e+10 
           1255     2.45337e+10 
           1265     2.49336e+10 
           1275     2.57074e+10 
           1285     2.53088e+10 
           1295     1.66956e+10 
           1305     1.84309e+10 
           1315     2.45115e+10 
           1325     2.28682e+10 
           1335     2.22585e+10 
           1345     2.20495e+10 
           1355     2.20064e+10 
           1365     2.00649e+10 
           1375     1.93176e+10 
           1385     1.83928e+10 
           1395     1.12841e+10 
           1405     1.31134e+10 
           1415     1.65774e+10 
           1425     1.62085e+10 
           1435     1.69587e+10 
           1442     1.74169e+10 
           1447     1.71032e+10 
           1455     1.64321e+10 
           1465     1.51792e+10 
           1475     1.55244e+10 
           1485     1.52458e+10 
           1495     1.48774e+10 
           1505     1.34161e+10 
           1512     1.21561e+10 
           1517     1.25356e+10 
           1525     1.28603e+10 
           1535     1.08082e+10 
           1545     1.03821e+10 
           1555     1.00624e+10 
           1565     1.09812e+10 
           1575     1.17267e+10 
           1585     1.16431e+10 
           1595     1.15991e+10 
           1605     1.16424e+10 
           1615     1.12831e+10 
           1625     1.11334e+10 
           1635     1.17509e+10 
           1645     1.17414e+10 
           1655      1.1552e+10 
           1665     1.16354e+10 
           1672     1.10547e+10 
           1677     1.22637e+10 
           1685     1.17765e+10 
           1695     1.11098e+10 
           1705     1.07942e+10 
           1715     1.02006e+10 
           1725      9.97193e+9 
           1735     1.03449e+10 
           1745     1.01727e+10 
           1755     1.01494e+10 
           1765     1.00515e+10 
           1775      9.35598e+9 
           1785      9.50235e+9 
           1795      9.75221e+9 
           1805      9.81119e+9 
           1815      8.79124e+9 
           1825      9.12442e+9 
           1835      8.81982e+9 
           1845      8.01396e+9 
           1855      8.17686e+9 
           1865      8.27462e+9 
           1875      8.49843e+9 
           1885      7.60769e+9 
           1895      7.07724e+9 
           1905      7.66357e+9 
           1915      7.21423e+9 
           1925       6.8111e+9 
           1935      7.25644e+9 
           1945       7.4007e+9 
           1955       6.6352e+9 
           1967      7.21407e+9 
           1976      7.56474e+9 
           1984      6.97804e+9 
           1995      6.86609e+9 
           2005      7.09737e+9 
           2015      7.02042e+9 
           2025      7.17376e+9 
           2035      6.54751e+9 
           2045        6.662e+9 
           2055      6.30704e+9 
           2065      6.29663e+9 
           2074      6.57386e+9 
           2078      6.01255e+9 
           2085      6.34133e+9 
           2095      6.03081e+9 
           2105      6.25592e+9 
           2115      6.27868e+9 
           2125      6.31433e+9 
           2135      6.20011e+9 
           2145      5.87256e+9 
           2155      6.11703e+9 
           2165      6.07127e+9 
           2175      5.98021e+9 
           2185      5.79484e+9 
           2195      5.85382e+9 
           2205      5.83393e+9 
           2215      5.73092e+9 
           2225      5.57679e+9 
           2235      5.48228e+9 
           2245      5.52444e+9 
           2255      5.34812e+9 
           2265      5.39647e+9 
           2275      5.31361e+9 
           2285      5.27146e+9 
           2295      4.78194e+9 
           2305      5.09025e+9 
           2315      4.95759e+9 
           2325      4.90396e+9 
           2335      4.76102e+9 
           2345      4.80758e+9 
           2355      4.77023e+9 
           2365       4.7254e+9 
           2375      4.61609e+9 
           2385      4.58051e+9 
           2395      4.51725e+9 
           2405       4.4487e+9 
           2415      4.38532e+9 
           2425      4.37472e+9 
           2435      4.25061e+9 
           2445       4.2461e+9 
           2455      4.23302e+9 
           2465      4.16904e+9 
           2475      4.09569e+9 
           2485      3.99123e+9 
           2495      3.21154e+9 
           2505      3.83176e+9 
           2513      3.72913e+9 
           2518      3.83389e+9 
           2525      3.82607e+9 
           2535      3.79958e+9 
           2545      3.62303e+9 
           2555      3.68325e+9 
           2565       3.6192e+9 
           2575      3.63683e+9 
           2585      3.58653e+9 
           2595      3.55346e+9 
           2605      3.52523e+9 
           2615      3.46984e+9 
           2625      3.44455e+9 
           2635      3.40679e+9 
           2645      3.36293e+9 
           2655      3.33476e+9 
           2665      3.21064e+9 
           2675      3.21895e+9 
           2685      3.21226e+9 
           2695      3.09894e+9 
           2705      3.04775e+9 
           2715      3.04722e+9 
           2725      3.02657e+9 
           2735        3.001e+9 
           2745      2.94123e+9 
           2755      2.92672e+9 
           2765      2.88765e+9 
           2775      2.90332e+9 
           2785      2.85094e+9 
           2795      2.74102e+9 
           2805      2.77284e+9 
           2815      2.77395e+9 
           2825      2.73216e+9 
           2835      2.64247e+9 
           2845      2.67322e+9 
           2855      2.62115e+9 
           2865      2.61404e+9 
           2875      2.58203e+9 
           2885      2.55687e+9 
           2895      2.51573e+9 
           2910      2.45605e+9 
           2930      2.42808e+9 
           2950      2.35756e+9 
           2970      2.32289e+9 
           2990      2.26621e+9 
           3010      2.17877e+9 
           3030      2.16582e+9 
           3050      2.13471e+9 
           3070      2.10395e+9 
           3090      2.01123e+9 
           3110      2.00936e+9 
           3130      1.95408e+9 
           3150      1.92501e+9 
           3170      1.87677e+9 
           3190      1.83724e+9 
           3210      1.81292e+9 
           3230      1.76584e+9 
           3250      1.74157e+9 
           3270      1.70085e+9 
           3290      1.66694e+9 
           3310      1.63678e+9 
           3330      1.60053e+9 
           3350      1.57291e+9 
           3370      1.53907e+9 
           3390      1.51707e+9 
           3410      1.48886e+9 
           3430      1.45765e+9 
           3450       1.4244e+9 
           3470      1.39817e+9 
           3490      1.36976e+9 
           3510      1.34878e+9 
           3530      1.33097e+9 
           3550      1.30475e+9 
           3570      1.28529e+9 
           3590      1.24807e+9 
           3610      1.22916e+9 
           3630       1.2081e+9 
           3640      1.20657e+9 
           3650      1.18758e+9 
           3670      1.17453e+9 
           3690      1.15024e+9 
           3710      1.10557e+9 
           3730      1.06472e+9 
           3750      1.10593e+9 
           3770      1.09311e+9 
           3790      1.13731e+9 
           3810      1.17337e+9 
           3830      1.03961e+9 
           3850      1.17725e+9 
           3870       1.1597e+9 
           3890      9.85435e+8 
           3910      1.15928e+9 
           3930       1.1191e+9 
           3950      1.10603e+9 
           3970      9.14449e+8 
           3990      1.07142e+9 
           4010      1.06491e+9 
           4030      1.01173e+9 
           4050      1.02871e+9 
           4070      9.77592e+8 
           4090      9.20266e+8 
           4110      8.32181e+8 
           4130      9.34817e+8 
           4150      9.29328e+8 
           4170      9.26891e+8 
           4190      9.14566e+8 
           4210      9.07215e+8 
           4230      8.86234e+8 
           4250      8.59955e+8 
           4270      8.35615e+8 
           4290      8.23032e+8 
           4310      7.98903e+8 
           4330      7.47073e+8 
           4350      6.88217e+8 
           4370      7.62853e+8 
           4390      7.57052e+8 
           4410      7.51324e+8 
           4430      7.46149e+8 
           4450      7.32228e+8 
           4470      7.01575e+8 
           4490      7.10027e+8 
           4510      7.05559e+8 
           4530      6.94514e+8 
           4550      6.84073e+8 
           4570      6.71929e+8 
           4590      6.59953e+8 
           4610      6.44755e+8 
           4630      6.36719e+8 
           4650      6.14109e+8 
           4670      6.16392e+8 
           4690      6.11677e+8 
           4710      5.86455e+8 
           4730      5.92384e+8 
           4750      5.81912e+8 
           4770      5.81613e+8 
           4790      5.71397e+8 
           4810       5.5879e+8 
           4830      5.47503e+8 
           4850      5.17708e+8 
           4870      4.67272e+8 
           4890       5.2561e+8 
           4910      5.19868e+8 
           4930      5.02716e+8 
           4950      5.02567e+8 
           4970      5.00895e+8 
           4990      4.92666e+8 
           5010      4.72756e+8 
           5030      4.77223e+8 
           5050      4.66331e+8 
           5070      4.65311e+8 
           5090      4.57125e+8 
           5110       4.4999e+8 
           5130      4.41521e+8 
           5150      4.36408e+8 
           5170       4.3177e+8 
           5190      4.26518e+8 
           5210      4.18878e+8 
           5230      4.14909e+8 
           5250      4.09362e+8 
           5270      4.02707e+8 
           5290        3.982e+8 
           5310      3.92347e+8 
           5330      3.87127e+8 
           5350      3.81237e+8 
           5370      3.77123e+8 
           5390      3.71412e+8 
           5410      3.66894e+8 
           5430      3.61475e+8 
           5450      3.56328e+8 
           5470      3.51675e+8 
           5490       3.4743e+8 
           5510      3.43386e+8 
           5530      3.38196e+8 
           5550      3.34491e+8 
           5570      3.29859e+8 
           5590      3.25852e+8 
           5610      3.21246e+8 
           5630      3.17565e+8 
           5650      3.11792e+8 
           5670      3.06761e+8 
           5690      3.02153e+8 
           5710      3.00109e+8 
           5730      2.97008e+8 
           5750       2.9204e+8 
           5770      2.90053e+8 
           5790      2.86153e+8 
           5810      2.82557e+8 
           5830      2.78439e+8 
           5850      2.75382e+8 
           5870      2.64904e+8 
           5890      2.66551e+8 
           5910      2.64415e+8 
           5930      2.60942e+8 
           5950      2.57392e+8 
           5970      2.55882e+8 
           5990      2.51583e+8 
           6010      2.49369e+8 
           6030      2.45883e+8 
           6050      2.43149e+8 
           6070      2.40557e+8 
           6090      2.37639e+8 
           6110      2.34835e+8 
           6130      2.32172e+8 
           6150      2.28224e+8 
           6170      2.25945e+8 
           6190       2.2378e+8 
           6210      2.21315e+8 
           6230       2.1878e+8 
           6250      2.15752e+8 
           6270        2.134e+8 
           6290      2.11074e+8 
           6310        2.083e+8 
           6330      2.06253e+8 
           6350      2.03049e+8 
           6370      2.01294e+8 
           6390      1.99011e+8 
           6410      1.96726e+8 
           6430      1.94712e+8 
           6450      1.92383e+8 
           6470      1.89495e+8 
           6490      1.87515e+8 
           6510      1.85653e+8 
           6530      1.82698e+8 
           6550      1.76666e+8 
           6570      1.57587e+8 
           6590      1.75343e+8 
           6610      1.75284e+8 
           6630      1.73645e+8 
           6650      1.71504e+8 
           6670      1.68377e+8 
           6690      1.66605e+8 
           6710      1.66199e+8 
           6730      1.63907e+8 
           6750      1.62689e+8 
           6770      1.60924e+8 
           6790      1.58065e+8 
           6810      1.57211e+8 
           6830      1.55323e+8 
           6850      1.53976e+8 
           6870       1.5229e+8 
           6890      1.50415e+8 
           6910      1.48536e+8 
           6930      1.47452e+8 
           6950      1.45958e+8 
           6970      1.44415e+8 
           6990      1.42842e+8 
           7010        1.413e+8 
           7030      1.39796e+8 
           7050       1.3836e+8 
           7070      1.34774e+8 
           7090      1.35484e+8 
           7110      1.33329e+8 
           7130      1.32034e+8 
           7150      1.31237e+8 
           7170      1.29927e+8 
           7190       1.2863e+8 
           7210      1.27301e+8 
           7230      1.24328e+8 
           7250      1.24366e+8 
           7270      1.23412e+8 
           7290      1.21191e+8 
           7310      1.20881e+8 
           7330       1.1964e+8 
           7350      1.18467e+8 
           7370      1.17298e+8 
           7390      1.16112e+8 
           7410      1.14944e+8 
           7430      1.13719e+8 
           7450       1.1262e+8 
           7470      1.10776e+8 
           7490      1.10306e+8 
           7510      1.09258e+8 
           7530      1.08107e+8 
           7550      1.07178e+8 
           7570      1.06126e+8 
           7590      1.05051e+8 
           7610      1.03829e+8 
           7630      1.03008e+8 
           7650         1.02e+8 
           7670      1.01033e+8 
           7690      1.00043e+8 
           7710      9.90684e+7 
           7730      9.80395e+7 
           7750      9.71829e+7 
           7770      9.57222e+7 
           7790      9.53307e+7 
           7810      9.43737e+7 
           7830      9.35235e+7 
           7850      9.26012e+7 
           7870      9.15777e+7 
           7890      9.05088e+7 
           7910      8.99975e+7 
           7930      8.91128e+7 
           7950      8.81524e+7 
           7970       8.7331e+7 
           7990      8.63868e+7 
           8010      8.57093e+7 
           8030      8.49032e+7 
           8050      8.41679e+7 
           8070      8.34562e+7 
           8090      8.25433e+7 
           8110      8.13405e+7 
           8130      8.11745e+7 
           8150      8.03568e+7 
           8170      7.97494e+7 
           8190      7.85292e+7 
           8210      7.78843e+7 
           8230      7.71169e+7 
           8250      7.68265e+7 
           8270      7.52656e+7 
           8290      7.53195e+7 
           8310      7.47228e+7 
           8330      7.40712e+7 
           8350      7.30414e+7 
           8370      7.25207e+7 
           8390      7.20576e+7 
           8410      7.13584e+7 
           8430      7.07127e+7 
           8450      6.94445e+7 
           8470      6.93638e+7 
           8490      6.86767e+7 
           8510      6.78757e+7 
           8530      6.75837e+7 
           8550      6.60413e+7 
           8570      6.70928e+7 
           8590      6.44934e+7 
