# Kurucz ODFNEW /NOVER (2003)
# teff = 31000 K (value for the effective temperature for the model. Temperatures are given in K)
# logg = 5 log(cm/s2) (value for Log(G) for the model.)
# meta = -0.5  (value for the Metallicity for the model.)
# lh = 1.25  (l/Hp where l is the  mixing length of the convective element and Hp is the pressure scale height)
# vtur = 2 km/s (Microturbulence velocity)
# alpha = 0  (Alpha)
#
# column 1: WAVELENGTH (ANGSTROM), Wavelength in Angstrom
# column 2: FLUX (ERG/CM2/S/A), Flux in erg/cm2/s/A
          147.2      6.87969e-8 
            151      2.07721e-7 
          155.2      6.64073e-7 
          158.8      1.71816e-6 
            162      3.87223e-6 
            166       1.0259e-5 
          170.3      2.78435e-5 
          173.4      5.55856e-5 
          176.8     0.000115465 
          180.2     0.000233565 
          181.7     0.000316082 
          186.1     0.000748113 
            191      0.00186635 
          193.9      0.00313791 
          198.4      0.00682232 
          201.8        0.011993 
            205       0.0200489 
          210.5       0.0467997 
          216.2        0.107629 
          219.8        0.178134 
            223        0.274951 
          226.8        0.454237 
            230         118.524 
            234         297.993 
            240         529.148 
          246.5         978.803 
          252.4         1672.66 
          256.8         2230.46 
            260         3400.48 
            264         4665.93 
          268.5         6814.78 
          273.5          9896.4 
          278.5         13841.8 
            284         23106.5 
            290         34119.8 
            296         48888.5 
            301         64213.8 
            308         97220.4 
            318          193945 
            328          309661 
            338          519700 
            348          817050 
            357       1.5526e+6 
            366      2.44381e+6 
            375      3.23753e+6 
            385      4.68494e+6 
            395      6.82978e+6 
            405      9.00981e+6 
            414       1.1847e+7 
            422      1.41685e+7 
            430      1.75555e+7 
            441      2.29004e+7 
            451      2.86546e+7 
            460      3.40249e+7 
            470      4.24004e+7 
            480      5.14847e+7 
            490       6.2078e+7 
            500      7.50656e+7 
            506      2.58435e+8 
            512      1.32004e+9 
            520      1.30982e+9 
            530       1.3602e+9 
            540      1.26322e+9 
            550      1.54328e+9 
            560      1.70922e+9 
            570      1.82776e+9 
            580      1.70928e+9 
            590      1.92066e+9 
            600      1.90824e+9 
            610      2.06477e+9 
            620      2.23666e+9 
            630      2.27832e+9 
            640      2.22956e+9 
            650      2.39181e+9 
            658      2.40396e+9 
            665      2.51096e+9 
            675      2.52873e+9 
            685      2.42701e+9 
            695      2.83476e+9 
            705      2.74786e+9 
            716      3.01453e+9 
            726      3.02176e+9 
            735      3.07297e+9 
            745      3.23043e+9 
            755      3.28038e+9 
            765      3.37594e+9 
            775      3.46757e+9 
            785      3.61082e+9 
            795      3.63994e+9 
            805      3.66855e+9 
            815      3.69178e+9 
            825      3.84824e+9 
            835      3.57605e+9 
            845      3.87163e+9 
            855      3.90688e+9 
            865      4.02481e+9 
            875      4.12804e+9 
            885      4.24682e+9 
            895      4.32515e+9 
            905      4.29877e+9 
            915      4.52494e+9 
            925     1.50401e+10 
            935     2.97354e+10 
            945     5.87606e+10 
            955     7.19608e+10 
            965     9.30511e+10 
            975     3.31185e+10 
            985     9.02116e+10 
            995     8.14362e+10 
           1005     8.70447e+10 
           1015     8.39996e+10 
           1025      4.0867e+10 
           1035     7.56782e+10 
           1045     9.24277e+10 
           1055     8.82705e+10 
           1065     7.64935e+10 
           1075      8.0495e+10 
           1085     7.22593e+10 
           1095      7.8791e+10 
           1105     7.46594e+10 
           1115     7.32171e+10 
           1125     6.31611e+10 
           1135     7.02179e+10 
           1145     6.47066e+10 
           1155      6.4842e+10 
           1165      6.3098e+10 
           1175     4.61257e+10 
           1185     5.81879e+10 
           1195      5.5717e+10 
           1205     4.93943e+10 
           1215     2.70714e+10 
           1225     4.87335e+10 
           1235     5.35247e+10 
           1245     5.18906e+10 
           1255     5.14736e+10 
           1265     5.14422e+10 
           1275     5.13453e+10 
           1285     5.05447e+10 
           1295      4.5263e+10 
           1305      4.5886e+10 
           1315     4.76961e+10 
           1325     4.54232e+10 
           1335      4.3942e+10 
           1345      4.3468e+10 
           1355     4.31284e+10 
           1365     4.10167e+10 
           1375     4.02609e+10 
           1385     3.92181e+10 
           1395     3.30863e+10 
           1405      3.3743e+10 
           1415     3.61033e+10 
           1425      3.3834e+10 
           1435     3.45971e+10 
           1442      3.4811e+10 
           1447       3.422e+10 
           1455     3.31863e+10 
           1465     3.20678e+10 
           1475     3.16327e+10 
           1485     3.12474e+10 
           1495      3.0374e+10 
           1505     2.88473e+10 
           1512       2.763e+10 
           1517     2.77691e+10 
           1525     2.74056e+10 
           1535     2.44627e+10 
           1545     2.33721e+10 
           1555     2.26534e+10 
           1565     2.37215e+10 
           1575      2.4296e+10 
           1585     2.41718e+10 
           1595     2.38978e+10 
           1605     2.28361e+10 
           1615     2.19966e+10 
           1625      2.2139e+10 
           1635     2.22481e+10 
           1645     2.15998e+10 
           1655     2.18966e+10 
           1665     2.15827e+10 
           1672     2.07178e+10 
           1677     2.20867e+10 
           1685     2.13414e+10 
           1695     2.06485e+10 
           1705     2.00584e+10 
           1715      1.9382e+10 
           1725     1.88135e+10 
           1735     1.91204e+10 
           1745     1.87695e+10 
           1755     1.85305e+10 
           1765     1.80696e+10 
           1775     1.75581e+10 
           1785     1.75393e+10 
           1795     1.73724e+10 
           1805     1.72776e+10 
           1815     1.65171e+10 
           1825     1.64395e+10 
           1835     1.61601e+10 
           1845     1.50436e+10 
           1855     1.50198e+10 
           1865     1.50888e+10 
           1875     1.50311e+10 
           1885     1.39953e+10 
           1895     1.33454e+10 
           1905     1.38368e+10 
           1915     1.33085e+10 
           1925      1.2705e+10 
           1935     1.31616e+10 
           1945     1.33044e+10 
           1955     1.22845e+10 
           1967     1.26862e+10 
           1976     1.30186e+10 
           1984     1.23109e+10 
           1995       1.199e+10 
           2005     1.20965e+10 
           2015     1.20723e+10 
           2025     1.20893e+10 
           2035     1.14868e+10 
           2045     1.13694e+10 
           2055     1.03981e+10 
           2065     1.02332e+10 
           2074     1.04607e+10 
           2078     1.00637e+10 
           2085     1.01583e+10 
           2095     1.00263e+10 
           2105      1.0438e+10 
           2115     1.04398e+10 
           2125     1.03885e+10 
           2135     1.01963e+10 
           2145      9.92543e+9 
           2155      9.92925e+9 
           2165      9.74611e+9 
           2175      9.64634e+9 
           2185      9.46672e+9 
           2195       9.4307e+9 
           2205      9.28879e+9 
           2215      9.10221e+9 
           2225       8.9909e+9 
           2235      8.82842e+9 
           2245      8.74995e+9 
           2255       8.5399e+9 
           2265      8.50064e+9 
           2275      8.38313e+9 
           2285      8.24642e+9 
           2295      7.80564e+9 
           2305      7.95007e+9 
           2315      7.86677e+9 
           2325      7.76579e+9 
           2335      7.63032e+9 
           2345       7.5736e+9 
           2355      7.46391e+9 
           2365      7.36455e+9 
           2375      7.23521e+9 
           2385      7.08525e+9 
           2395      7.02161e+9 
           2405       6.9425e+9 
           2415      6.84185e+9 
           2425      6.76311e+9 
           2435      6.63651e+9 
           2445      6.56532e+9 
           2455      6.48757e+9 
           2465      6.40342e+9 
           2475      6.30811e+9 
           2485      6.21535e+9 
           2495      5.63888e+9 
           2505      6.01684e+9 
           2513      5.78728e+9 
           2518      5.88518e+9 
           2525      5.89513e+9 
           2535      5.82304e+9 
           2545      5.68716e+9 
           2555      5.63626e+9 
           2565      5.58118e+9 
           2575       5.5128e+9 
           2585      5.44757e+9 
           2595      5.37774e+9 
           2605      5.32954e+9 
           2615       5.2563e+9 
           2625       5.1944e+9 
           2635      5.12841e+9 
           2645      5.05352e+9 
           2655      4.99153e+9 
           2665      4.89298e+9 
           2675       4.8333e+9 
           2685      4.80713e+9 
           2695      4.68236e+9 
           2705      4.64925e+9 
           2715      4.60167e+9 
           2725      4.52808e+9 
           2735       4.4762e+9 
           2745      4.43749e+9 
           2755      4.39223e+9 
           2765      4.30341e+9 
           2775      4.29789e+9 
           2785      4.23799e+9 
           2795      4.12009e+9 
           2805      4.11365e+9 
           2815      4.09251e+9 
           2825      4.00529e+9 
           2835      3.92806e+9 
           2845      3.94662e+9 
           2855      3.88948e+9 
           2865      3.84577e+9 
           2875      3.80142e+9 
           2885      3.75723e+9 
           2895      3.71141e+9 
           2910      3.63863e+9 
           2930      3.56306e+9 
           2950       3.4489e+9 
           2970      3.39829e+9 
           2990      3.31493e+9 
           3010      3.22799e+9 
           3030      3.16688e+9 
           3050      3.10155e+9 
           3070      3.03793e+9 
           3090      2.94424e+9 
           3110      2.90221e+9 
           3130      2.83379e+9 
           3150      2.77373e+9 
           3170      2.71144e+9 
           3190      2.63538e+9 
           3210      2.59668e+9 
           3230      2.54137e+9 
           3250      2.49171e+9 
           3270      2.43782e+9 
           3290       2.3851e+9 
           3310      2.33913e+9 
           3330      2.28754e+9 
           3350      2.23896e+9 
           3370      2.19505e+9 
           3390      2.15398e+9 
           3410      2.11045e+9 
           3430      2.06122e+9 
           3450       2.0128e+9 
           3470      1.97665e+9 
           3490      1.93717e+9 
           3510      1.90143e+9 
           3530      1.86685e+9 
           3550      1.83072e+9 
           3570      1.80568e+9 
           3590      1.75396e+9 
           3610      1.72883e+9 
           3630      1.68959e+9 
           3640      1.68777e+9 
           3650       1.6517e+9 
           3670      1.62863e+9 
           3690      1.59948e+9 
           3710      1.54613e+9 
           3730      1.50349e+9 
           3750      1.47678e+9 
           3770      1.42775e+9 
           3790      1.46151e+9 
           3810      1.50517e+9 
           3830      1.33265e+9 
           3850      1.53025e+9 
           3870      1.54358e+9 
           3890      1.24627e+9 
           3910      1.51994e+9 
           3930      1.50344e+9 
           3950       1.4637e+9 
           3970      1.15415e+9 
           3990      1.40437e+9 
           4010      1.40802e+9 
           4030      1.32286e+9 
           4050      1.37368e+9 
           4070      1.32303e+9 
           4090      1.20641e+9 
           4110      1.07075e+9 
           4130      1.24898e+9 
           4150      1.24276e+9 
           4170       1.2357e+9 
           4190      1.21496e+9 
           4210      1.19852e+9 
           4230      1.17704e+9 
           4250      1.15018e+9 
           4270      1.12183e+9 
           4290      1.10662e+9 
           4310      1.07555e+9 
           4330      9.67116e+8 
           4350      8.87666e+8 
           4370      1.01976e+9 
           4390      9.91509e+8 
           4410      9.99641e+8 
           4430      9.88025e+8 
           4450      9.72182e+8 
           4470      9.11407e+8 
           4490      9.39427e+8 
           4510      9.28335e+8 
           4530      9.13547e+8 
           4550      8.96817e+8 
           4570      8.82743e+8 
           4590      8.67593e+8 
           4610      8.52618e+8 
           4630      8.38467e+8 
           4650      8.12976e+8 
           4670      8.12229e+8 
           4690       7.9862e+8 
           4710      7.75107e+8 
           4730      7.77053e+8 
           4750      7.63961e+8 
           4770      7.55813e+8 
           4790       7.4344e+8 
           4810      7.28754e+8 
           4830       7.1091e+8 
           4850      6.50894e+8 
           4870      5.85754e+8 
           4890      6.76998e+8 
           4910      6.73541e+8 
           4930      6.47875e+8 
           4950      6.55519e+8 
           4970      6.48485e+8 
           4990      6.38576e+8 
           5010      6.18074e+8 
           5030      6.19333e+8 
           5050      6.06815e+8 
           5070      6.01934e+8 
           5090      5.92778e+8 
           5110      5.83992e+8 
           5130      5.74795e+8 
           5150      5.66532e+8 
           5170         5.59e+8 
           5190      5.51316e+8 
           5210      5.43344e+8 
           5230       5.3567e+8 
           5250      5.28084e+8 
           5270      5.20435e+8 
           5290      5.13316e+8 
           5310      5.06063e+8 
           5330      4.99023e+8 
           5350      4.91956e+8 
           5370       4.8532e+8 
           5390      4.78444e+8 
           5410      4.71386e+8 
           5430      4.65493e+8 
           5450         4.59e+8 
           5470      4.52754e+8 
           5490      4.46599e+8 
           5510      4.40707e+8 
           5530      4.34581e+8 
           5550      4.28923e+8 
           5570      4.23128e+8 
           5590       4.1749e+8 
           5610      4.11945e+8 
           5630      4.06515e+8 
           5650      4.00893e+8 
           5670      3.95081e+8 
           5690      3.88888e+8 
           5710      3.85013e+8 
           5730      3.80196e+8 
           5750      3.74696e+8 
           5770      3.70586e+8 
           5790      3.65671e+8 
           5810      3.60981e+8 
           5830      3.56048e+8 
           5850      3.51658e+8 
           5870      3.35862e+8 
           5890      3.40991e+8 
           5910      3.38223e+8 
           5930      3.33835e+8 
           5950      3.29615e+8 
           5970      3.25994e+8 
           5990      3.21584e+8 
           6010      3.17799e+8 
           6030      3.13685e+8 
           6050      3.09895e+8 
           6070       3.0619e+8 
           6090      3.02415e+8 
           6110      2.98702e+8 
           6130      2.95082e+8 
           6150      2.91144e+8 
           6170      2.87726e+8 
           6190      2.84375e+8 
           6210      2.80983e+8 
           6230       2.7761e+8 
           6250      2.74148e+8 
           6270      2.70936e+8 
           6290       2.6773e+8 
           6310      2.64493e+8 
           6330      2.61405e+8 
           6350       2.5821e+8 
           6370      2.55254e+8 
           6390       2.5222e+8 
           6410      2.49264e+8 
           6430      2.46376e+8 
           6450      2.43483e+8 
           6470       2.4036e+8 
           6490      2.37638e+8 
           6510      2.34598e+8 
           6530      2.30645e+8 
           6550      2.18885e+8 
           6570      1.94819e+8 
           6590      2.20574e+8 
           6610      2.21017e+8 
           6630      2.19266e+8 
           6650      2.16901e+8 
           6670      2.12003e+8 
           6690      2.09711e+8 
           6710      2.09709e+8 
           6730        2.072e+8 
           6750      2.05081e+8 
           6770      2.02811e+8 
           6790      2.00131e+8 
           6810      1.98267e+8 
           6830      1.96065e+8 
           6850      1.93959e+8 
           6870      1.91825e+8 
           6890      1.89634e+8 
           6910      1.87489e+8 
           6930      1.85608e+8 
           6950      1.83597e+8 
           6970      1.81607e+8 
           6990      1.79636e+8 
           7010        1.777e+8 
           7030      1.75768e+8 
           7050      1.73893e+8 
           7070      1.69353e+8 
           7090      1.70205e+8 
           7110      1.68362e+8 
           7130      1.66589e+8 
           7150      1.64841e+8 
           7170      1.63087e+8 
           7190      1.61386e+8 
           7210      1.59688e+8 
           7230      1.57033e+8 
           7250      1.56268e+8 
           7270      1.54732e+8 
           7290      1.51899e+8 
           7310      1.51521e+8 
           7330      1.49959e+8 
           7350      1.48418e+8 
           7370        1.469e+8 
           7390      1.45395e+8 
           7410      1.43905e+8 
           7430      1.42435e+8 
           7450      1.40999e+8 
           7470      1.39394e+8 
           7490      1.38127e+8 
           7510      1.36718e+8 
           7530      1.35355e+8 
           7550      1.34017e+8 
           7570      1.32672e+8 
           7590      1.31346e+8 
           7610      1.29974e+8 
           7630      1.28737e+8 
           7650      1.27459e+8 
           7670        1.262e+8 
           7690      1.24952e+8 
           7710      1.23715e+8 
           7730      1.22489e+8 
           7750      1.21306e+8 
           7770      1.20071e+8 
           7790      1.18952e+8 
           7810      1.17745e+8 
           7830      1.16646e+8 
           7850        1.156e+8 
           7870       1.1443e+8 
           7890      1.13257e+8 
           7910      1.12288e+8 
           7930      1.11177e+8 
           7950      1.10135e+8 
           7970      1.09026e+8 
           7990       1.0802e+8 
           8010      1.06994e+8 
           8030      1.05936e+8 
           8050      1.04916e+8 
           8070       1.0394e+8 
           8090      1.02805e+8 
           8110      1.01726e+8 
           8130      1.01038e+8 
           8150      1.00021e+8 
           8170      9.91647e+7 
           8190      9.80239e+7 
           8210      9.69712e+7 
           8230      9.61612e+7 
           8250      9.54021e+7 
           8270      9.40765e+7 
           8290      9.36286e+7 
           8310      9.28238e+7 
           8330       9.1928e+7 
           8350      9.07587e+7 
           8370      9.01588e+7 
           8390      8.94726e+7 
           8410       8.8648e+7 
           8430      8.78197e+7 
           8450      8.65234e+7 
           8470       8.6257e+7 
           8490      8.53232e+7 
           8510      8.46522e+7 
           8530      8.37379e+7 
           8550      8.29652e+7 
           8570      8.25477e+7 
           8590      8.05657e+7 
