# Kurucz ODFNEW /NOVER (2003)
# teff = 8500 K (value for the effective temperature for the model. Temperatures are given in K)
# logg = 4.5 log(cm/s2) (value for Log(G) for the model.)
# meta = 0.5  (value for the Metallicity for the model.)
# lh = 1.25  (l/Hp where l is the  mixing length of the convective element and Hp is the pressure scale height)
# vtur = 2 km/s (Microturbulence velocity)
# alpha = 0.4  (Alpha)
#
# column 1: WAVELENGTH (ANGSTROM), Wavelength in Angstrom
# column 2: FLUX (ERG/CM2/S/A), Flux in erg/cm2/s/A
            318      1.4189e-23 
            328      2.5717e-22 
            338     2.71025e-21 
            348     2.45445e-20 
            357     1.59839e-19 
            366     9.46239e-19 
            375     5.12807e-18 
            385     3.04637e-17 
            395     1.64824e-16 
            405     8.17861e-16 
            414     3.22799e-15 
            422     6.75064e-16 
            430     1.94176e-15 
            441       7.767e-15 
            451     2.56967e-14 
            460     7.19133e-14 
            470     2.14679e-13 
            480     6.10027e-13 
            490     1.65582e-12 
            500     4.29969e-12 
            506     9.84303e-12 
            512     1.90431e-11 
            520      3.8148e-11 
            530     8.86568e-11 
            540     1.95251e-10 
            550     4.24266e-10 
            560     8.87885e-10 
            570      1.80387e-9 
            580      3.52092e-9 
            590      6.86695e-9 
            600       1.2903e-8 
            610      2.37893e-8 
            620      4.27378e-8 
            630      7.52462e-8 
            640      1.29712e-7 
            650      2.20108e-7 
            658      3.31288e-7 
            665      4.66021e-7 
            675       7.5794e-7 
            685      1.21443e-6 
            695      1.91124e-6 
            705      2.91863e-6 
            716      4.71522e-6 
            726      7.10143e-6 
            735      1.01479e-5 
            745      1.48655e-5 
            755      2.15903e-5 
            765      3.10563e-5 
            775      4.41557e-5 
            785      6.24433e-5 
            795      8.55297e-5 
            805     0.000118032 
            815     0.000163567 
            825     0.000222133 
            835      0.00029845 
            845     0.000398201 
            855     0.000526888 
            865     0.000691705 
            875     0.000890225 
            885      0.00116531 
            895      0.00149775 
            905      0.00189173 
            915        0.457668 
            925          1.3684 
            935         1.77091 
            945         2.30904 
            955         3.09393 
            965         3.98136 
            975         4.85503 
            985         6.08102 
            995          7.3605 
           1005         9.56832 
           1015         11.8454 
           1025         13.8977 
           1035         17.5784 
           1045           21.44 
           1055         26.0367 
           1065         31.0322 
           1075         37.8514 
           1085         45.6437 
           1095         53.7025 
           1105         148.011 
           1115         445.751 
           1125         628.932 
           1135         861.735 
           1145         1063.67 
           1155         1157.05 
           1165         1552.66 
           1175         1838.18 
           1185         1916.02 
           1195         1085.27 
           1205          1667.8 
           1215         461.653 
           1225         1965.56 
           1235         3400.93 
           1245          6573.7 
           1255         12934.2 
           1265         10410.6 
           1275         15942.6 
           1285         20330.1 
           1295         23257.1 
           1305         17382.6 
           1315         26659.6 
           1325         30561.1 
           1335         33138.3 
           1345         38532.5 
           1355         39299.6 
           1365         42108.5 
           1375         45443.7 
           1385         48923.9 
           1395         54843.8 
           1405         60083.2 
           1415         62123.3 
           1425         68148.5 
           1435         68510.1 
           1442         77753.2 
           1447         81885.8 
           1455         89399.7 
           1465         91067.3 
           1475           97660 
           1485          106104 
           1495          117307 
           1505          127192 
           1512          129202 
           1517          138465 
           1525          155184 
           1535          240630 
           1545          406191 
           1555          434512 
           1565          429100 
           1575          644440 
           1585          889959 
           1595      1.13348e+6 
           1605       1.2712e+6 
           1615      1.22419e+6 
           1625          974599 
           1635      1.26965e+6 
           1645      2.21762e+6 
           1655      1.24782e+6 
           1665      2.13639e+6 
           1672      1.21835e+6 
           1677      3.43263e+6 
           1685      5.84501e+6 
           1695      3.38962e+6 
           1705      6.41484e+6 
           1715      1.41932e+7 
           1725      1.53939e+7 
           1735      2.29337e+7 
           1745       2.1761e+7 
           1755      2.99877e+7 
           1765      1.57828e+7 
           1775      2.68501e+7 
           1785      2.71094e+7 
           1795      3.69629e+7 
           1805       2.6601e+7 
           1815      2.70108e+7 
           1825      2.44319e+7 
           1835      2.24456e+7 
           1845      1.82774e+7 
           1855      2.48031e+7 
           1865      3.07614e+7 
           1875      2.85278e+7 
           1885       2.9742e+7 
           1895      3.16163e+7 
           1905      2.74827e+7 
           1915      3.20627e+7 
           1925      3.01038e+7 
           1935      1.97439e+7 
           1945      3.32502e+7 
           1955      3.39882e+7 
           1967      3.83614e+7 
           1976      3.60995e+7 
           1984      3.31646e+7 
           1995      3.37218e+7 
           2005       3.0602e+7 
           2015      2.85222e+7 
           2025      2.71525e+7 
           2035      3.33616e+7 
           2045      3.62404e+7 
           2055      3.27511e+7 
           2065      3.28481e+7 
           2074      3.87811e+7 
           2078      4.27594e+7 
           2085      4.01677e+7 
           2095      3.67835e+7 
           2105      3.29668e+7 
           2115       3.3797e+7 
           2125      3.48178e+7 
           2135      2.71417e+7 
           2145       3.4242e+7 
           2155      3.43581e+7 
           2165      3.05645e+7 
           2175      3.04362e+7 
           2185      3.34622e+7 
           2195       3.5854e+7 
           2205      3.30663e+7 
           2215      2.79179e+7 
           2225      2.78014e+7 
           2235      3.41017e+7 
           2245      3.05134e+7 
           2255      2.67703e+7 
           2265      2.69236e+7 
           2275      2.97846e+7 
           2285      3.21155e+7 
           2295      2.78737e+7 
           2305      2.94923e+7 
           2315      2.79621e+7 
           2325      2.68363e+7 
           2335       2.2077e+7 
           2345      1.75895e+7 
           2355      2.60972e+7 
           2365      1.83595e+7 
           2375      2.21418e+7 
           2385      1.56143e+7 
           2395       1.9015e+7 
           2405      1.84547e+7 
           2415      1.93958e+7 
           2425      2.51607e+7 
           2435      2.36214e+7 
           2445      2.63936e+7 
           2455      2.62672e+7 
           2465      2.60396e+7 
           2475      2.35215e+7 
           2485      2.40988e+7 
           2495      2.25837e+7 
           2505      2.91428e+7 
           2513      2.14978e+7 
           2518      2.10078e+7 
           2525       1.8444e+7 
           2535      1.65231e+7 
           2545      1.49446e+7 
           2555      1.88653e+7 
           2565      1.94021e+7 
           2575      2.49419e+7 
           2585      2.56643e+7 
           2595      2.47217e+7 
           2605      2.24965e+7 
           2615      2.11045e+7 
           2625      2.70488e+7 
           2635      2.82052e+7 
           2645      3.53244e+7 
           2655      3.72586e+7 
           2665       2.8753e+7 
           2675      3.29003e+7 
           2685      3.23421e+7 
           2695      2.93561e+7 
           2705      3.18852e+7 
           2715      2.82582e+7 
           2725      2.88411e+7 
           2735      3.18266e+7 
           2745      2.18877e+7 
           2755      2.36733e+7 
           2765      2.53843e+7 
           2775         2.87e+7 
           2785      2.09983e+7 
           2795      8.24877e+6 
           2805      1.09303e+7 
           2815      2.73806e+7 
           2825      3.40031e+7 
           2835      3.29293e+7 
           2845       3.0957e+7 
           2855      2.63266e+7 
           2865      3.36078e+7 
           2875      3.26871e+7 
           2885      3.26306e+7 
           2895      3.10018e+7 
           2910      3.72414e+7 
           2930      3.42663e+7 
           2950      3.45747e+7 
           2970      3.69477e+7 
           2990      3.67884e+7 
           3010      3.78206e+7 
           3030      3.73705e+7 
           3050      3.69606e+7 
           3070      3.72349e+7 
           3090      3.81784e+7 
           3110       3.6617e+7 
           3130      3.65532e+7 
           3150      3.76038e+7 
           3170      3.70442e+7 
           3190      3.40945e+7 
           3210      3.58741e+7 
           3230      3.35626e+7 
           3250      3.56467e+7 
           3270      3.67573e+7 
           3290      3.68442e+7 
           3310      3.76623e+7 
           3330       3.6491e+7 
           3350       3.5731e+7 
           3370      3.51456e+7 
           3390      3.56795e+7 
           3410      3.60041e+7 
           3430      3.61907e+7 
           3450      3.59021e+7 
           3470      3.53705e+7 
           3490      3.52446e+7 
           3510      3.61101e+7 
           3530      3.57202e+7 
           3550      3.70377e+7 
           3570      3.47764e+7 
           3590      3.44777e+7 
           3610      3.46894e+7 
           3630      3.47713e+7 
           3640      3.40602e+7 
           3650       3.6153e+7 
           3670      3.58188e+7 
           3690      3.45462e+7 
           3710      3.42267e+7 
           3730      3.27776e+7 
           3750      3.82154e+7 
           3770      4.08062e+7 
           3790      4.98736e+7 
           3810      5.81337e+7 
           3830      4.54344e+7 
           3850      6.41857e+7 
           3870      7.34246e+7 
           3890      4.22162e+7 
           3910      7.25042e+7 
           3930      5.48402e+7 
           3950      6.96041e+7 
           3970      3.70421e+7 
           3990      7.24206e+7 
           4010      8.74414e+7 
           4030      8.82041e+7 
           4050       8.6816e+7 
           4070      8.09251e+7 
           4090      6.09524e+7 
           4110      4.65467e+7 
           4130      7.57395e+7 
           4150      8.45549e+7 
           4170      8.46557e+7 
           4190       8.4446e+7 
           4210      8.46149e+7 
           4230      8.13153e+7 
           4250      8.20827e+7 
           4270       7.6896e+7 
           4290      7.73249e+7 
           4310      6.80202e+7 
           4330      5.11377e+7 
           4350      4.34456e+7 
           4370      6.90533e+7 
           4390      7.26987e+7 
           4410      7.28989e+7 
           4430      7.05836e+7 
           4450      7.31923e+7 
           4470      7.34778e+7 
           4490      7.11466e+7 
           4510      7.47269e+7 
           4530      7.07805e+7 
           4550      7.01269e+7 
           4570      7.24457e+7 
           4590      6.91603e+7 
           4610      7.07898e+7 
           4630      6.82183e+7 
           4650      6.87304e+7 
           4670      6.85938e+7 
           4690      6.49151e+7 
           4710      6.14237e+7 
           4730      6.56051e+7 
           4750      6.51222e+7 
           4770      6.37709e+7 
           4790      6.26878e+7 
           4810      5.99856e+7 
           4830      5.62715e+7 
           4850      4.18394e+7 
           4870      3.33494e+7 
           4890      5.19592e+7 
           4910      5.64435e+7 
           4930      5.65461e+7 
           4950      5.80258e+7 
           4970      5.84611e+7 
           4990      5.58208e+7 
           5010      5.31937e+7 
           5030      5.47563e+7 
           5050      5.36174e+7 
           5070      5.50668e+7 
           5090      5.43091e+7 
           5110      5.42787e+7 
           5130      5.29044e+7 
           5150       5.1419e+7 
           5170      5.02651e+7 
           5190      4.94532e+7 
           5210      5.00125e+7 
           5230      4.94806e+7 
           5250      5.00078e+7 
           5270      4.52557e+7 
           5290      4.87859e+7 
           5310      4.79662e+7 
           5330      4.45582e+7 
           5350      4.71674e+7 
           5370      4.69826e+7 
           5390      4.62702e+7 
           5410      4.44472e+7 
           5430      4.52102e+7 
           5450      4.56743e+7 
           5470      4.49531e+7 
           5490      4.40837e+7 
           5510      4.39516e+7 
           5530      4.36047e+7 
           5550      4.35442e+7 
           5570      4.27876e+7 
           5590      4.20986e+7 
           5610      4.21593e+7 
           5630      4.21919e+7 
           5650      4.14866e+7 
           5670       4.0462e+7 
           5690      4.05911e+7 
           5710      4.01467e+7 
           5730      4.07229e+7 
           5750      3.95228e+7 
           5770      3.95503e+7 
           5790      3.90315e+7 
           5810      3.88592e+7 
           5830      3.86407e+7 
           5850      3.80819e+7 
           5870      3.77572e+7 
           5890       3.6815e+7 
           5910      3.70979e+7 
           5930      3.67485e+7 
           5950      3.62635e+7 
           5970      3.60886e+7 
           5990      3.55068e+7 
           6010      3.48839e+7 
           6030      3.46922e+7 
           6050      3.44632e+7 
           6070      3.45821e+7 
           6090      3.40455e+7 
           6110      3.35445e+7 
           6130      3.27806e+7 
           6150      3.16683e+7 
           6170      3.17879e+7 
           6190       3.2627e+7 
           6210      3.22384e+7 
           6230      3.17415e+7 
           6250      3.06379e+7 
           6270      3.15429e+7 
           6290      3.13055e+7 
           6310      3.05699e+7 
           6330      3.03658e+7 
           6350       2.9432e+7 
           6370      2.94945e+7 
           6390      2.96847e+7 
           6410      2.89854e+7 
           6430      2.90614e+7 
           6450      2.79623e+7 
           6470      2.82523e+7 
           6490      2.76241e+7 
           6510      2.72537e+7 
           6530       2.5897e+7 
           6550      2.18069e+7 
           6570       1.7403e+7 
           6590      2.41489e+7 
           6610      2.59309e+7 
           6630      2.63181e+7 
           6650      2.63244e+7 
           6670      2.60999e+7 
           6690       2.6051e+7 
           6710      2.58424e+7 
           6730      2.55551e+7 
           6750      2.49698e+7 
           6770      2.52934e+7 
           6790      2.50254e+7 
           6810      2.48217e+7 
           6830      2.45683e+7 
           6850      2.43432e+7 
           6870      2.42647e+7 
           6890      2.40479e+7 
           6910      2.38331e+7 
           6930      2.35891e+7 
           6950      2.34426e+7 
           6970      2.31904e+7 
           6990      2.30902e+7 
           7010      2.22633e+7 
           7030      2.25927e+7 
           7050      2.24526e+7 
           7070      2.22842e+7 
           7090      2.21347e+7 
           7110      2.13762e+7 
           7130      2.15736e+7 
           7150      2.13543e+7 
           7170      2.11386e+7 
           7190      2.09614e+7 
           7210      2.09359e+7 
           7230      2.07078e+7 
           7250      2.03307e+7 
           7270      2.05062e+7 
           7290      2.01096e+7 
           7310      2.01499e+7 
           7330      1.99685e+7 
           7350      1.99067e+7 
           7370      1.97538e+7 
           7390      1.94435e+7 
           7410      1.91424e+7 
           7430      1.88464e+7 
           7450       1.8818e+7 
           7470      1.86478e+7 
           7490      1.86283e+7 
           7510      1.86013e+7 
           7530      1.84893e+7 
           7550      1.84199e+7 
           7570      1.81768e+7 
           7590      1.81138e+7 
           7610      1.79257e+7 
           7630      1.78532e+7 
           7650      1.76087e+7 
           7670      1.73172e+7 
           7690       1.7161e+7 
           7710      1.72286e+7 
           7730      1.71175e+7 
           7750      1.69164e+7 
           7770      1.62803e+7 
           7790      1.68132e+7 
           7810      1.65772e+7 
           7830      1.63949e+7 
           7850      1.61617e+7 
           7870      1.60699e+7 
           7890      1.58342e+7 
           7910      1.57645e+7 
           7930      1.54604e+7 
           7950      1.53636e+7 
           7970      1.56431e+7 
           7990      1.51948e+7 
           8010      1.53704e+7 
           8030      1.51607e+7 
           8050      1.50924e+7 
           8070      1.49905e+7 
           8090      1.48883e+7 
           8110      1.48104e+7 
           8130      1.47661e+7 
           8150      1.46534e+7 
           8170      1.45457e+7 
           8190      1.41203e+7 
           8210      1.39191e+7 
           8230      1.38443e+7 
           8250      1.38553e+7 
           8270      1.40721e+7 
           8290      1.39292e+7 
           8310       1.3722e+7 
           8330      1.35704e+7 
           8350      1.35811e+7 
           8370       1.3598e+7 
           8390      1.34428e+7 
           8410      1.33832e+7 
           8430      1.31984e+7 
           8450      1.27925e+7 
           8470      1.29643e+7 
           8490      1.28129e+7 
           8510      1.22153e+7 
           8530      1.26288e+7 
           8550      1.09356e+7 
           8570      1.27138e+7 
           8590      1.20874e+7 
           8610       1.1886e+7 
           8630      1.25467e+7 
           8650      1.20472e+7 
           8670      9.98195e+6 
           8690      1.18243e+7 
           8710      1.24891e+7 
           8730      1.19006e+7 
           8750      9.84159e+6 
           8770      1.14739e+7 
           8790      1.23623e+7 
           8810      1.24276e+7 
           8830      1.18814e+7 
           8850      1.06199e+7 
           8870      9.18542e+6 
           8890      1.13326e+7 
           8910      1.19784e+7 
           8930      1.20467e+7 
           8950      1.22525e+7 
           8970      1.18524e+7 
           8990      1.11317e+7 
           9010      8.87063e+6 
           9030      9.65884e+6 
           9050      1.11819e+7 
           9070      1.13383e+7 
           9090      1.12743e+7 
           9110      1.15853e+7 
           9130      1.16724e+7 
           9150      1.16453e+7 
           9170      1.13706e+7 
           9190      1.08889e+7 
           9210      9.84415e+6 
           9230      7.70768e+6 
           9250      9.36689e+6 
           9270      1.01468e+7 
           9290      1.09251e+7 
           9310      1.10425e+7 
           9330      1.09632e+7 
