# Kurucz ODFNEW /NOVER (2003)
# teff = 7500 K (value for the effective temperature for the model. Temperatures are given in K)
# logg = 1.5 log(cm/s2) (value for Log(G) for the model.)
# meta = 0  (value for the Metallicity for the model.)
# lh = 1.25  (l/Hp where l is the  mixing length of the convective element and Hp is the pressure scale height)
# vtur = 2 km/s (Microturbulence velocity)
# alpha = 0  (Alpha)
#
# column 1: WAVELENGTH (ANGSTROM), Wavelength in Angstrom
# column 2: FLUX (ERG/CM2/S/A), Flux in erg/cm2/s/A
            375     2.30011e-25 
            385     1.80154e-24 
            395     1.26346e-23 
            405     8.00864e-23 
            414     3.89531e-22 
            422      1.4962e-21 
            430     5.45025e-21 
            441     2.97326e-20 
            451     1.28745e-19 
            460     4.54461e-19 
            470       1.738e-18 
            480     6.26051e-18 
            490      2.1336e-17 
            500     6.89339e-17 
            506     1.80599e-16 
            512     3.94673e-16 
            520     9.28309e-16 
            530      2.6182e-15 
            540     6.96239e-15 
            550     1.80892e-14 
            560     4.50021e-14 
            570     1.08092e-13 
            580     2.48312e-13 
            590       5.657e-13 
            600     1.23693e-12 
            610     2.63265e-12 
            620     5.45042e-12 
            630     1.10038e-11 
            640     2.16877e-11 
            650     4.18085e-11 
            658     6.95511e-11 
            665     1.07254e-10 
            675     1.96102e-10 
            685     3.51611e-10 
            695     6.18873e-10 
            705      1.06586e-9 
            716      1.91445e-9 
            726      3.19538e-9 
            735      5.00019e-9 
            745      8.10509e-9 
            755      1.29569e-8 
            765      2.04341e-8 
            775       3.1803e-8 
            785      4.89099e-8 
            795      7.35845e-8 
            805      1.10962e-7 
            815      1.65149e-7 
            825      2.42435e-7 
            835      3.52169e-7 
            845      5.06567e-7 
            855      7.21533e-7 
            865      1.01817e-6 
            875      1.41953e-6 
            885      1.97353e-6 
            895      2.71335e-6 
            905      3.68144e-6 
            915      0.00316876 
            925      0.00975083 
            935       0.0130425 
            945       0.0177222 
            955       0.0253249 
            965       0.0340662 
            975       0.0441593 
            985       0.0576884 
            995       0.0728059 
           1005        0.100364 
           1015        0.129757 
           1025        0.160818 
           1035        0.209721 
           1045         0.26921 
           1055        0.340944 
           1065        0.419302 
           1075        0.532221 
           1085        0.666367 
           1095        0.809244 
           1105         2.52188 
           1115         8.53685 
           1125         12.6474 
           1135         17.7035 
           1145         22.3689 
           1155         24.6804 
           1165         33.3338 
           1175         38.1498 
           1185         41.1331 
           1195         18.0758 
           1205           16.04 
           1215         4.26844 
           1225         19.2707 
           1235         50.4076 
           1245         119.881 
           1255         293.485 
           1265         300.447 
           1275          580.01 
           1285         930.926 
           1295         1237.37 
           1305         902.788 
           1315         1746.61 
           1325         2241.33 
           1335         2435.96 
           1345         3389.48 
           1355         3548.72 
           1365         3937.69 
           1375          4399.5 
           1385         5015.33 
           1395         5961.19 
           1405         6806.04 
           1415         6888.18 
           1425         8093.29 
           1435         8172.07 
           1442         9641.61 
           1447           10660 
           1455         12245.1 
           1465         12366.7 
           1475         13839.2 
           1485         15684.4 
           1495         18241.3 
           1505         20248.4 
           1512         20308.5 
           1517         22361.9 
           1525         24008.6 
           1535         60475.6 
           1545          222295 
           1555          184250 
           1565          140268 
           1575          297754 
           1585          383309 
           1595          570805 
           1605          443793 
           1615          392094 
           1625          324767 
           1635          383519 
           1645          596580 
           1655          260655 
           1665          449484 
           1672          107267 
           1677          801876 
           1685      1.62423e+6 
           1695      1.91654e+6 
           1705      1.71723e+6 
           1715      2.64958e+6 
           1725      3.04536e+6 
           1735      3.92608e+6 
           1745      3.26113e+6 
           1755      4.52732e+6 
           1765      3.27543e+6 
           1775      4.52942e+6 
           1785      3.65092e+6 
           1795      5.84978e+6 
           1805      4.50499e+6 
           1815      5.44779e+6 
           1825      4.35963e+6 
           1835      3.91506e+6 
           1845      3.68836e+6 
           1855      4.44386e+6 
           1865      5.12548e+6 
           1875      4.69815e+6 
           1885      4.98857e+6 
           1895      5.67083e+6 
           1905      4.98558e+6 
           1915      5.26023e+6 
           1925      5.05861e+6 
           1935      3.25181e+6 
           1945      5.98312e+6 
           1955      6.17893e+6 
           1967      6.95049e+6 
           1976      6.78457e+6 
           1984      6.51644e+6 
           1995      6.37634e+6 
           2005      5.88331e+6 
           2015      5.24191e+6 
           2025      4.97235e+6 
           2035      6.05509e+6 
           2045      6.85234e+6 
           2055      5.82745e+6 
           2065      5.46803e+6 
           2074      7.36385e+6 
           2078      8.08295e+6 
           2085       7.6524e+6 
           2095       7.0931e+6 
           2105      6.53028e+6 
           2115      6.68975e+6 
           2125      6.86554e+6 
           2135      5.03964e+6 
           2145      6.42606e+6 
           2155      6.73096e+6 
           2165      5.74302e+6 
           2175      5.91228e+6 
           2185       6.2507e+6 
           2195      7.14078e+6 
           2205       6.6369e+6 
           2215      5.26859e+6 
           2225      5.03437e+6 
           2235      6.87683e+6 
           2245       6.0991e+6 
           2255      4.89368e+6 
           2265      4.92304e+6 
           2275      5.99921e+6 
           2285      6.39164e+6 
           2295      5.72595e+6 
           2305      6.11011e+6 
           2315      5.58238e+6 
           2325      5.22266e+6 
           2335      3.28153e+6 
           2345      2.40554e+6 
           2355      4.46734e+6 
           2365      2.37021e+6 
           2375       3.4511e+6 
           2385      1.77383e+6 
           2395      2.48801e+6 
           2405        2.355e+6 
           2415      3.30588e+6 
           2425      5.66565e+6 
           2435      5.44791e+6 
           2445      5.98208e+6 
           2455      5.98658e+6 
           2465      5.65055e+6 
           2475      5.28327e+6 
           2485       5.4258e+6 
           2495      5.20078e+6 
           2505      7.02005e+6 
           2513      5.14665e+6 
           2518      5.71946e+6 
           2525      4.50743e+6 
           2535      4.36829e+6 
           2545      4.52481e+6 
           2555      5.55957e+6 
           2565      4.61634e+6 
           2575      5.45354e+6 
           2585      4.85763e+6 
           2595      4.23374e+6 
           2605       3.6039e+6 
           2615       3.3444e+6 
           2625      4.52991e+6 
           2635       5.9131e+6 
           2645      8.91094e+6 
           2655      9.18545e+6 
           2665      7.15933e+6 
           2675      8.02092e+6 
           2685      7.81602e+6 
           2695      7.36287e+6 
           2705      7.92071e+6 
           2715      6.65377e+6 
           2725      6.74403e+6 
           2735      7.28607e+6 
           2745      3.94612e+6 
           2755      4.86788e+6 
           2765      5.79589e+6 
           2775      7.17929e+6 
           2785      5.46232e+6 
           2795      1.91769e+6 
           2805      2.52199e+6 
           2815      6.82315e+6 
           2825      8.85434e+6 
           2835      8.42637e+6 
           2845      8.13033e+6 
           2855      7.19301e+6 
           2865      8.81903e+6 
           2875      8.50756e+6 
           2885      8.82074e+6 
           2895      8.24118e+6 
           2910       1.0182e+7 
           2930      9.53617e+6 
           2950      9.41466e+6 
           2970      1.02603e+7 
           2990       1.0408e+7 
           3010       1.0955e+7 
           3030      1.08277e+7 
           3050      1.08185e+7 
           3070      1.09039e+7 
           3090      1.14722e+7 
           3110      1.09843e+7 
           3130      1.08863e+7 
           3150      1.15561e+7 
           3170      1.14628e+7 
           3190      1.05758e+7 
           3210       1.1293e+7 
           3230      1.06412e+7 
           3250      1.14133e+7 
           3270      1.17473e+7 
           3290      1.18872e+7 
           3310      1.22821e+7 
           3330      1.19403e+7 
           3350      1.17838e+7 
           3370       1.1575e+7 
           3390       1.1883e+7 
           3410       1.2243e+7 
           3430      1.24986e+7 
           3450      1.24285e+7 
           3470      1.22015e+7 
           3490      1.20772e+7 
           3510      1.26142e+7 
           3530      1.27117e+7 
           3550      1.32203e+7 
           3570      1.24752e+7 
           3590      1.25403e+7 
           3610      1.26547e+7 
           3630      1.29004e+7 
           3640      1.26181e+7 
           3650       1.3299e+7 
           3670      1.30937e+7 
           3690      1.39654e+7 
           3710      1.79468e+7 
           3730      2.35722e+7 
           3750      3.50569e+7 
           3770      3.75566e+7 
           3790       4.6826e+7 
           3810      5.29976e+7 
           3830      4.16128e+7 
           3850      5.52215e+7 
           3870      5.95019e+7 
           3890      3.89424e+7 
           3910       5.5893e+7 
           3930       3.7139e+7 
           3950      5.32117e+7 
           3970      3.06219e+7 
           3990      5.61281e+7 
           4010      5.80413e+7 
           4030      5.68589e+7 
           4050      5.62459e+7 
           4070       5.4978e+7 
           4090      5.13721e+7 
           4110      4.02285e+7 
           4130      5.36948e+7 
           4150      5.50553e+7 
           4170      5.32351e+7 
           4190      5.30049e+7 
           4210      5.24536e+7 
           4230       5.1325e+7 
           4250      5.14897e+7 
           4270      4.96262e+7 
           4290      5.02965e+7 
           4310      4.70605e+7 
           4330      4.23991e+7 
           4350      3.64256e+7 
           4370      4.85705e+7 
           4390      4.74917e+7 
           4410      4.61495e+7 
           4430      4.61119e+7 
           4450      4.64574e+7 
           4470      4.61218e+7 
           4490       4.5824e+7 
           4510      4.67335e+7 
           4530      4.45924e+7 
           4550      4.36225e+7 
           4570      4.52583e+7 
           4590      4.31695e+7 
           4610       4.4634e+7 
           4630      4.30156e+7 
           4650      4.35088e+7 
           4670      4.32216e+7 
           4690      4.18398e+7 
           4710      4.03882e+7 
           4730      4.18121e+7 
           4750      4.19199e+7 
           4770        4.092e+7 
           4790      4.06513e+7 
           4810      4.00827e+7 
           4830      3.93622e+7 
           4850      3.38284e+7 
           4870      2.71036e+7 
           4890      3.75357e+7 
           4910        3.779e+7 
           4930      3.67384e+7 
           4950      3.73954e+7 
           4970      3.75557e+7 
           4990      3.58512e+7 
           5010      3.43333e+7 
           5030       3.5313e+7 
           5050       3.4802e+7 
           5070      3.52182e+7 
           5090      3.46715e+7 
           5110      3.44641e+7 
           5130      3.34916e+7 
           5150      3.28102e+7 
           5170      3.21861e+7 
           5190      3.18434e+7 
           5210      3.17826e+7 
           5230      3.14753e+7 
           5250      3.18851e+7 
           5270      2.99887e+7 
           5290      3.12123e+7 
           5310      3.04578e+7 
           5330      2.97085e+7 
           5350      3.05253e+7 
           5370      3.01507e+7 
           5390      2.96681e+7 
           5410      2.90732e+7 
           5430      2.89757e+7 
           5450      2.92708e+7 
           5470      2.88418e+7 
           5490      2.86908e+7 
           5510      2.83092e+7 
           5530      2.80814e+7 
           5550      2.81093e+7 
           5570      2.76577e+7 
           5590       2.7383e+7 
           5610       2.7285e+7 
           5630      2.71676e+7 
           5650      2.66983e+7 
           5670      2.63075e+7 
           5690      2.63835e+7 
           5710      2.61505e+7 
           5730      2.61794e+7 
           5750      2.57879e+7 
           5770      2.56208e+7 
           5790      2.52913e+7 
           5810      2.51219e+7 
           5830      2.49188e+7 
           5850      2.46706e+7 
           5870      2.44929e+7 
           5890      2.38729e+7 
           5910      2.40309e+7 
           5930       2.3808e+7 
           5950      2.35631e+7 
           5970      2.34298e+7 
           5990       2.3073e+7 
           6010      2.27967e+7 
           6030      2.27348e+7 
           6050      2.25271e+7 
           6070      2.24331e+7 
           6090      2.21427e+7 
           6110      2.18618e+7 
           6130      2.15118e+7 
           6150      2.10464e+7 
           6170       2.1121e+7 
           6190      2.12237e+7 
           6210      2.10803e+7 
           6230      2.07297e+7 
           6250      2.00524e+7 
           6270      2.05619e+7 
           6290      2.03818e+7 
           6310      1.99463e+7 
           6330      1.99323e+7 
           6350      1.96491e+7 
           6370      1.95045e+7 
           6390       1.9438e+7 
           6410      1.91188e+7 
           6430      1.90693e+7 
           6450      1.86778e+7 
           6470        1.881e+7 
           6490      1.83347e+7 
           6510      1.83457e+7 
           6530      1.81876e+7 
           6550      1.65707e+7 
           6570      1.30802e+7 
           6590      1.74389e+7 
           6610      1.76371e+7 
           6630      1.76431e+7 
           6650      1.75133e+7 
           6670      1.73305e+7 
           6690      1.72514e+7 
           6710      1.71052e+7 
           6730      1.69605e+7 
           6750       1.6765e+7 
           6770      1.67442e+7 
           6790      1.65722e+7 
           6810      1.64677e+7 
           6830      1.62648e+7 
           6850      1.61595e+7 
           6870      1.60775e+7 
           6890      1.59565e+7 
           6910      1.58225e+7 
           6930      1.56826e+7 
           6950      1.55699e+7 
           6970      1.54326e+7 
           6990      1.53352e+7 
           7010      1.50753e+7 
           7030      1.50506e+7 
           7050      1.49615e+7 
           7070      1.48597e+7 
           7090      1.47497e+7 
           7110      1.43278e+7 
           7130       1.4415e+7 
           7150      1.43426e+7 
           7170      1.42422e+7 
           7190      1.40858e+7 
           7210      1.40005e+7 
           7230      1.38691e+7 
           7250      1.37798e+7 
           7270      1.37354e+7 
           7290      1.35524e+7 
           7310      1.34311e+7 
           7330      1.33699e+7 
           7350      1.33007e+7 
           7370      1.32508e+7 
           7390      1.30874e+7 
           7410      1.29242e+7 
           7430       1.2792e+7 
           7450      1.27437e+7 
           7470      1.25736e+7 
           7490      1.25415e+7 
           7510      1.24768e+7 
           7530      1.24292e+7 
           7550      1.23985e+7 
           7570      1.22627e+7 
           7590      1.22034e+7 
           7610      1.21166e+7 
           7630      1.20305e+7 
           7650      1.18949e+7 
           7670      1.17702e+7 
           7690      1.17314e+7 
           7710      1.16009e+7 
           7730      1.15876e+7 
           7750      1.14883e+7 
           7770      1.11684e+7 
           7790      1.13607e+7 
           7810      1.12674e+7 
           7830      1.11319e+7 
           7850      1.10055e+7 
           7870       1.0957e+7 
           7890      1.08482e+7 
           7910      1.07862e+7 
           7930      1.07151e+7 
           7950      1.06052e+7 
           7970      1.06487e+7 
           7990      1.04492e+7 
           8010      1.04687e+7 
           8030      1.03745e+7 
           8050      1.03283e+7 
           8070      1.02447e+7 
           8090        1.017e+7 
           8110      1.01313e+7 
           8130      1.00724e+7 
           8150       9.9998e+6 
           8170      9.93058e+6 
           8190      9.70691e+6 
           8210      9.68538e+6 
           8230      9.62168e+6 
           8250      9.57121e+6 
           8270      9.62908e+6 
           8290      9.54211e+6 
           8310       9.4455e+6 
           8330      9.24546e+6 
           8350      9.30983e+6 
           8370      9.11429e+6 
           8390      9.07142e+6 
           8410      9.01288e+6 
           8430      9.16949e+6 
           8450      8.97629e+6 
           8470      8.68662e+6 
           8490      9.40777e+6 
           8510      8.34921e+6 
           8530      9.55377e+6 
           8550      7.67605e+6 
           8570      9.82181e+6 
           8590       9.1364e+6 
           8610      8.83991e+6 
           8630      1.00342e+7 
           8650      9.76634e+6 
           8670      7.54121e+6 
           8690      9.72154e+6 
           8710      1.01105e+7 
           8730      9.85757e+6 
           8750      7.86451e+6 
           8770      9.54352e+6 
           8790      9.91361e+6 
           8810        9.824e+6 
           8830       9.5568e+6 
           8850      9.01149e+6 
           8870      7.62874e+6 
           8890      9.40821e+6 
           8910      9.47849e+6 
           8930      9.40585e+6 
           8950      9.43769e+6 
           8970      9.33104e+6 
           8990      9.13715e+6 
           9010      7.51834e+6 
           9030      8.32085e+6 
           9050      9.04353e+6 
           9070      8.80357e+6 
           9090      8.65864e+6 
           9110      8.83719e+6 
           9130      8.85862e+6 
           9150      8.85369e+6 
           9170      8.74432e+6 
           9190      8.60505e+6 
           9210      8.28036e+6 
           9230      6.62206e+6 
           9250      7.97907e+6 
           9270      8.18097e+6 
           9290      8.40813e+6 
           9310      8.38465e+6 
           9330      8.30763e+6 
           9350      8.27471e+6 
           9370      8.23427e+6 
           9390      8.10865e+6 
           9410      7.82959e+6 
           9430      7.97477e+6 
           9450      7.95455e+6 
           9470      7.93569e+6 
