# Kurucz ODFNEW /NOVER (2003)
# teff = 27000 K (value for the effective temperature for the model. Temperatures are given in K)
# logg = 3.5 log(cm/s2) (value for Log(G) for the model.)
# meta = 0.2  (value for the Metallicity for the model.)
# lh = 1.25  (l/Hp where l is the  mixing length of the convective element and Hp is the pressure scale height)
# vtur = 2 km/s (Microturbulence velocity)
# alpha = 0  (Alpha)
#
# column 1: WAVELENGTH (ANGSTROM), Wavelength in Angstrom
# column 2: FLUX (ERG/CM2/S/A), Flux in erg/cm2/s/A
          147.2     4.91605e-12 
            151     1.84441e-11 
          155.2     7.41508e-11 
          158.8     2.31528e-10 
            162     6.13327e-10 
            166      1.97347e-9 
          170.3      6.52396e-9 
          173.4      1.49764e-8 
          176.8      3.60239e-8 
          180.2      8.39821e-8 
          181.7      1.20796e-7 
          186.1      3.40461e-7 
            191      1.02393e-6 
          193.9      1.91545e-6 
          198.4      4.88903e-6 
          201.8      9.66264e-6 
            205      1.79808e-5 
          210.5      5.01589e-5 
          216.2     0.000137555 
          219.8     0.000253445 
            223     0.000429191 
          226.8     0.000800577 
            230       0.0903723 
            234        0.200377 
            240        0.415056 
          246.5        0.909362 
          252.4         1.79868 
          256.8         2.78282 
            260         4.65701 
            264         7.23178 
          268.5         11.6757 
          273.5         18.8686 
          278.5         29.3968 
            284         58.7589 
            290         97.6092 
            296         156.942 
            301         227.316 
            308         437.077 
            318         1001.91 
            328         1863.83 
            338         3671.86 
            348         6679.49 
            357         34356.7 
            366         81799.6 
            375          113336 
            385          186846 
            395          456735 
            405          631408 
            414          959254 
            422      1.23063e+6 
            430       1.6823e+6 
            441      2.34602e+6 
            451      2.87287e+6 
            460      3.49632e+6 
            470      4.73001e+6 
            480      6.13346e+6 
            490      7.78783e+6 
            500      9.65964e+6 
            506      3.13848e+7 
            512      2.89304e+8 
            520      2.87465e+8 
            530      2.78235e+8 
            540      2.74162e+8 
            550      3.99856e+8 
            560      4.96115e+8 
            570      5.38622e+8 
            580      4.86053e+8 
            590      5.85094e+8 
            600      5.36191e+8 
            610      6.74286e+8 
            620      7.74353e+8 
            630      7.72196e+8 
            640      6.80918e+8 
            650       4.9517e+8 
            658      6.61976e+8 
            665      8.41553e+8 
            675      9.16719e+8 
            685      7.90736e+8 
            695      1.15283e+9 
            705      9.83692e+8 
            716      1.27762e+9 
            726      1.24181e+9 
            735      1.28439e+9 
            745      1.38338e+9 
            755      1.41968e+9 
            765      1.49211e+9 
            775      1.59373e+9 
            785      1.68983e+9 
            795      1.70875e+9 
            805      1.68958e+9 
            815      1.68484e+9 
            825      1.84981e+9 
            835      1.41863e+9 
            845      1.79668e+9 
            855      1.78309e+9 
            865      1.88217e+9 
            875      1.96679e+9 
            885      2.09056e+9 
            895      2.15152e+9 
            905      2.09265e+9 
            915      3.19405e+9 
            925     1.83014e+10 
            935     2.98845e+10 
            945     3.70572e+10 
            955     3.88496e+10 
            965     4.02514e+10 
            975       9.7489e+9 
            985     2.77181e+10 
            995     2.97864e+10 
           1005      3.4606e+10 
           1015     3.67396e+10 
           1025     3.00347e+10 
           1035     3.23715e+10 
           1045     4.25915e+10 
           1055     3.92223e+10 
           1065     3.23747e+10 
           1075     3.57455e+10 
           1085     3.27823e+10 
           1095     3.56487e+10 
           1105     3.34668e+10 
           1115      3.2642e+10 
           1125     2.44884e+10 
           1135     3.24024e+10 
           1145     3.07355e+10 
           1155     3.02027e+10 
           1165     2.93117e+10 
           1175     1.56354e+10 
           1185     2.66418e+10 
           1195     2.61712e+10 
           1205     2.17838e+10 
           1215      2.0287e+10 
           1225     2.50187e+10 
           1235     2.71576e+10 
           1245     2.56148e+10 
           1255     2.57559e+10 
           1265     2.65604e+10 
           1275     2.75822e+10 
           1285     2.75196e+10 
           1295     2.24844e+10 
           1305     2.38179e+10 
           1315      2.7141e+10 
           1325     2.56814e+10 
           1335     2.48035e+10 
           1345     2.49733e+10 
           1355     2.45302e+10 
           1365     2.32056e+10 
           1375     2.22655e+10 
           1385     2.11773e+10 
           1395     1.36118e+10 
           1405     1.53371e+10 
           1415     1.94289e+10 
           1425     1.82678e+10 
           1435     1.94455e+10 
           1442     1.96195e+10 
           1447     1.93852e+10 
           1455     1.84803e+10 
           1465     1.72626e+10 
           1475     1.78873e+10 
           1485     1.77617e+10 
           1495     1.72619e+10 
           1505     1.59469e+10 
           1512     1.46403e+10 
           1517     1.50861e+10 
           1525     1.50658e+10 
           1535     1.25396e+10 
           1545     1.13182e+10 
           1555     1.11366e+10 
           1565     1.26563e+10 
           1575     1.36655e+10 
           1585     1.37785e+10 
           1595     1.35818e+10 
           1605     1.33805e+10 
           1615     1.28188e+10 
           1625     1.29366e+10 
           1635     1.35816e+10 
           1645      1.3705e+10 
           1655     1.35235e+10 
           1665     1.35613e+10 
           1672     1.25475e+10 
           1677     1.47231e+10 
           1685     1.38512e+10 
           1695     1.30823e+10 
           1705     1.29606e+10 
           1715     1.21194e+10 
           1725     1.18504e+10 
           1735     1.23081e+10 
           1745       1.213e+10 
           1755     1.21091e+10 
           1765     1.21004e+10 
           1775     1.12978e+10 
           1785     1.15859e+10 
           1795     1.16256e+10 
           1805     1.17123e+10 
           1815     1.06902e+10 
           1825     1.09576e+10 
           1835     1.07708e+10 
           1845      9.82754e+9 
           1855     1.01839e+10 
           1865     1.02865e+10 
           1875     1.03865e+10 
           1885      9.37597e+9 
           1895      8.80855e+9 
           1905       9.4652e+9 
           1915       9.0089e+9 
           1925      8.42247e+9 
           1935      9.08272e+9 
           1945      9.32476e+9 
           1955      8.23536e+9 
           1967        8.971e+9 
           1976      9.39022e+9 
           1984       8.7493e+9 
           1995       8.5908e+9 
           2005      8.91241e+9 
           2015      8.86462e+9 
           2025      9.04206e+9 
           2035      8.26076e+9 
           2045      8.35988e+9 
           2055      7.51438e+9 
           2065      7.41298e+9 
           2074      7.94933e+9 
           2078      7.33134e+9 
           2085      7.88976e+9 
           2095      7.59369e+9 
           2105      7.88169e+9 
           2115      7.93972e+9 
           2125      7.97071e+9 
           2135       7.8444e+9 
           2145      7.46036e+9 
           2155      7.73946e+9 
           2165      7.61283e+9 
           2175      7.56561e+9 
           2185      7.34959e+9 
           2195      7.45276e+9 
           2205      7.41298e+9 
           2215      7.27194e+9 
           2225      7.11076e+9 
           2235      6.96009e+9 
           2245      6.98717e+9 
           2255      6.80199e+9 
           2265      6.82864e+9 
           2275      6.74654e+9 
           2285      6.66799e+9 
           2295      5.75835e+9 
           2305      6.40047e+9 
           2315      6.27029e+9 
           2325      6.22162e+9 
           2335      6.08747e+9 
           2345      6.13424e+9 
           2355      6.03518e+9 
           2365      5.97031e+9 
           2375      5.82296e+9 
           2385       5.7349e+9 
           2395      5.67121e+9 
           2405      5.61881e+9 
           2415      5.54602e+9 
           2425      5.52004e+9 
           2435      5.38171e+9 
           2445      5.36758e+9 
           2455      5.33907e+9 
           2465      5.25064e+9 
           2475      5.15344e+9 
           2485      4.96563e+9 
           2495      3.59329e+9 
           2505      4.70421e+9 
           2513      4.65348e+9 
           2518      4.79794e+9 
           2525      4.83661e+9 
           2535      4.80961e+9 
           2545      4.63933e+9 
           2555      4.65214e+9 
           2565      4.59744e+9 
           2575      4.57197e+9 
           2585      4.51175e+9 
           2595      4.46429e+9 
           2605      4.42958e+9 
           2615        4.342e+9 
           2625      4.31652e+9 
           2635      4.27547e+9 
           2645      4.20147e+9 
           2655      4.17062e+9 
           2665      4.01287e+9 
           2675      3.99214e+9 
           2685      4.00771e+9 
           2695      3.86407e+9 
           2705      3.78643e+9 
           2715      3.78399e+9 
           2725      3.78468e+9 
           2735      3.73132e+9 
           2745      3.69244e+9 
           2755      3.66563e+9 
           2765      3.60763e+9 
           2775      3.62277e+9 
           2785      3.55541e+9 
           2795      3.42711e+9 
           2805      3.45577e+9 
           2815      3.45726e+9 
           2825      3.41216e+9 
           2835      3.30122e+9 
           2845      3.32926e+9 
           2855      3.26368e+9 
           2865      3.24622e+9 
           2875      3.21028e+9 
           2885      3.17557e+9 
           2895       3.1302e+9 
           2910      3.05504e+9 
           2930      3.02603e+9 
           2950      2.93262e+9 
           2970      2.88173e+9 
           2990       2.8082e+9 
           3010      2.70107e+9 
           3030      2.67595e+9 
           3050      2.64053e+9 
           3070      2.60196e+9 
           3090      2.49172e+9 
           3110      2.48883e+9 
           3130       2.4191e+9 
           3150      2.38161e+9 
           3170      2.31926e+9 
           3190      2.27631e+9 
           3210      2.23509e+9 
           3230      2.17709e+9 
           3250      2.14995e+9 
           3270      2.09255e+9 
           3290      2.05369e+9 
           3310      2.01343e+9 
           3330      1.96462e+9 
           3350      1.92841e+9 
           3370      1.88814e+9 
           3390      1.86396e+9 
           3410      1.82774e+9 
           3430      1.79141e+9 
           3450      1.74921e+9 
           3470      1.71709e+9 
           3490      1.68154e+9 
           3510      1.65341e+9 
           3530      1.63161e+9 
           3550      1.59788e+9 
           3570      1.57019e+9 
           3590       1.5271e+9 
           3610      1.50003e+9 
           3630      1.47648e+9 
           3640      1.46983e+9 
           3650      1.42845e+9 
           3670      1.41054e+9 
           3690      1.37642e+9 
           3710      1.33037e+9 
           3730      1.29561e+9 
           3750        1.354e+9 
           3770      1.33633e+9 
           3790      1.36596e+9 
           3810      1.39612e+9 
           3830      1.26557e+9 
           3850       1.3824e+9 
           3870      1.33701e+9 
           3890      1.20611e+9 
           3910      1.33323e+9 
           3930      1.28508e+9 
           3950      1.26752e+9 
           3970      1.11351e+9 
           3990      1.23487e+9 
           4010      1.21663e+9 
           4030      1.17278e+9 
           4050      1.17407e+9 
           4070      1.12219e+9 
           4090      1.07516e+9 
           4110      9.96904e+8 
           4130      1.07427e+9 
           4150      1.06416e+9 
           4170      1.05783e+9 
           4190      1.04274e+9 
           4210      1.03045e+9 
           4230      1.01016e+9 
           4250      9.82135e+8 
           4270      9.57976e+8 
           4290      9.42453e+8 
           4310      9.15292e+8 
           4330      8.74807e+8 
           4350      8.17865e+8 
           4370      8.73878e+8 
           4390      8.70176e+8 
           4410      8.57477e+8 
           4430      8.51768e+8 
           4450      8.35568e+8 
           4470      8.11365e+8 
           4490      8.12935e+8 
           4510      8.00352e+8 
           4530      7.90455e+8 
           4550      7.77789e+8 
           4570      7.66306e+8 
           4590      7.52364e+8 
           4610      7.35693e+8 
           4630      7.23692e+8 
           4650      6.92583e+8 
           4670      7.02072e+8 
           4690      6.95052e+8 
           4710      6.73555e+8 
           4730      6.76442e+8 
           4750       6.6483e+8 
           4770      6.63175e+8 
           4790         6.52e+8 
           4810      6.39522e+8 
           4830      6.28343e+8 
           4850      6.06451e+8 
           4870        5.547e+8 
           4890      6.02131e+8 
           4910      5.94048e+8 
           4930      5.77675e+8 
           4950      5.73554e+8 
           4970      5.70991e+8 
           4990      5.61869e+8 
           5010      5.40327e+8 
           5030      5.43945e+8 
           5050      5.34106e+8 
           5070      5.30442e+8 
           5090      5.21774e+8 
           5110      5.13543e+8 
           5130      5.03391e+8 
           5150      4.97585e+8 
           5170       4.9215e+8 
           5190      4.86239e+8 
           5210      4.79501e+8 
           5230      4.72535e+8 
           5250      4.65634e+8 
           5270      4.58295e+8 
           5290      4.53355e+8 
           5310       4.4678e+8 
           5330      4.41259e+8 
           5350      4.35057e+8 
           5370       4.2934e+8 
           5390       4.2284e+8 
           5410       4.1721e+8 
           5430      4.12276e+8 
           5450      4.06453e+8 
           5470      4.00993e+8 
           5490      3.95527e+8 
           5510      3.90936e+8 
           5530      3.84947e+8 
           5550      3.80882e+8 
           5570      3.75504e+8 
           5590      3.70604e+8 
           5610      3.65991e+8 
           5630      3.61398e+8 
           5650      3.55882e+8 
           5670       3.4965e+8 
           5690      3.42623e+8 
           5710       3.4025e+8 
           5730      3.36422e+8 
           5750      3.30907e+8 
           5770      3.28594e+8 
           5790      3.24058e+8 
           5810      3.20023e+8 
           5830      3.15171e+8 
           5850      3.12139e+8 
           5870      3.01979e+8 
           5890       3.0256e+8 
           5910      3.00235e+8 
           5930      2.96156e+8 
           5950      2.92551e+8 
           5970      2.90837e+8 
           5990       2.8578e+8 
           6010      2.83224e+8 
           6030       2.7909e+8 
           6050      2.76013e+8 
           6070      2.73215e+8 
           6090      2.70022e+8 
           6110      2.66653e+8 
           6130      2.63642e+8 
           6150       2.5934e+8 
           6170      2.56524e+8 
           6190      2.54033e+8 
           6210      2.51296e+8 
           6230      2.48403e+8 
           6250      2.44965e+8 
           6270      2.42312e+8 
           6290      2.39659e+8 
           6310       2.3661e+8 
           6330      2.34158e+8 
           6350      2.31041e+8 
           6370      2.28785e+8 
           6390      2.25998e+8 
           6410      2.23407e+8 
           6430      2.20972e+8 
           6450      2.18336e+8 
           6470       2.1508e+8 
           6490      2.12728e+8 
           6510      2.10668e+8 
           6530      2.07948e+8 
           6550      2.03203e+8 
           6570      1.83831e+8 
           6590      1.99737e+8 
           6610      1.98909e+8 
           6630      1.96966e+8 
           6650      1.94573e+8 
           6670      1.91147e+8 
           6690      1.89071e+8 
           6710      1.88331e+8 
           6730      1.85649e+8 
           6750      1.84286e+8 
           6770      1.82352e+8 
           6790      1.79074e+8 
           6810      1.78153e+8 
           6830       1.7615e+8 
           6850      1.74457e+8 
           6870      1.72517e+8 
           6890       1.7035e+8 
           6910      1.68261e+8 
           6930      1.67087e+8 
           6950      1.65308e+8 
           6970      1.63546e+8 
           6990      1.61748e+8 
           7010      1.60006e+8 
           7030      1.58182e+8 
           7050      1.56612e+8 
           7070      1.52795e+8 
           7090       1.5338e+8 
           7110      1.50633e+8 
           7130      1.49204e+8 
           7150      1.48614e+8 
           7170      1.47024e+8 
           7190      1.45566e+8 
           7210      1.44049e+8 
           7230      1.40702e+8 
           7250      1.40701e+8 
           7270      1.39614e+8 
           7290       1.3719e+8 
           7310      1.36729e+8 
           7330       1.3529e+8 
           7350      1.33976e+8 
           7370      1.32647e+8 
           7390      1.31302e+8 
           7410       1.2997e+8 
           7430       1.2865e+8 
           7450      1.27342e+8 
           7470      1.25446e+8 
           7490      1.24663e+8 
           7510      1.23506e+8 
           7530      1.22206e+8 
           7550       1.2113e+8 
           7570      1.19925e+8 
           7590      1.18666e+8 
           7610      1.17334e+8 
           7630      1.16351e+8 
           7650      1.15222e+8 
           7670      1.14135e+8 
           7690      1.12969e+8 
           7710      1.11845e+8 
           7730      1.10693e+8 
           7750      1.09746e+8 
           7770      1.08564e+8 
           7790       1.0766e+8 
           7810      1.06566e+8 
           7830      1.05598e+8 
           7850       1.0462e+8 
           7870      1.03426e+8 
           7890      1.02291e+8 
           7910       1.0151e+8 
           7930      1.00477e+8 
           7950      9.96207e+7 
           7970      9.86054e+7 
           7990      9.77288e+7 
           8010      9.67188e+7 
           8030      9.58403e+7 
           8050      9.50333e+7 
           8070      9.41695e+7 
           8090      9.31864e+7 
           8110      9.18109e+7 
           8130      9.16048e+7 
           8150       9.0634e+7 
           8170      8.99537e+7 
           8190      8.86612e+7 
           8210      8.76877e+7 
           8230      8.67336e+7 
           8250      8.64188e+7 
           8270       8.4806e+7 
           8290      8.47207e+7 
           8310      8.40461e+7 
           8330      8.32683e+7 
           8350      8.21675e+7 
           8370      8.15548e+7 
           8390      8.10006e+7 
           8410      8.01737e+7 
           8430      7.94597e+7 
           8450      7.83243e+7 
           8470       7.7813e+7 
           8490      7.73789e+7 
           8510      7.59804e+7 
           8530      7.62252e+7 
           8550      7.39467e+7 
           8570      7.56486e+7 
