# Kurucz ODFNEW /NOVER (2003)
# teff = 24000 K (value for the effective temperature for the model. Temperatures are given in K)
# logg = 3.5 log(cm/s2) (value for Log(G) for the model.)
# meta = 0.2  (value for the Metallicity for the model.)
# lh = 1.25  (l/Hp where l is the  mixing length of the convective element and Hp is the pressure scale height)
# vtur = 2 km/s (Microturbulence velocity)
# alpha = 0.4  (Alpha)
#
# column 1: WAVELENGTH (ANGSTROM), Wavelength in Angstrom
# column 2: FLUX (ERG/CM2/S/A), Flux in erg/cm2/s/A
          147.2     1.42664e-15 
            151     6.41453e-15 
          155.2     3.11728e-14 
          158.8     1.13619e-13 
            162     3.43254e-13 
            166     1.29317e-12 
          170.3     5.02326e-12 
          173.4     1.29517e-11 
          176.8     3.51947e-11 
          180.2     9.24002e-11 
          181.7     1.39761e-10 
          186.1     4.55645e-10 
            191      1.60395e-9 
          193.9       3.2834e-9 
          198.4       9.6033e-9 
          201.8      2.09775e-8 
            205      4.28087e-8 
          210.5      1.39239e-7 
          216.2      4.45274e-7 
          219.8       9.0104e-7 
            223      1.65573e-6 
          226.8      3.34996e-6 
            230      9.45384e-5 
            234     0.000221259 
            240     0.000552635 
          246.5      0.00142248 
          252.4      0.00325537 
          256.8      0.00565966 
            260      0.00921594 
            264       0.0148365 
          268.5       0.0259569 
          273.5        0.046631 
          278.5       0.0821874 
            284        0.163773 
            290        0.303856 
            296        0.554327 
            301        0.892664 
            308         1.82241 
            318         4.57593 
            328         10.1049 
            338         22.8091 
            348         47.3929 
            357         327.457 
            366         754.466 
            375          1177.3 
            385         2069.04 
            395         4472.95 
            405         6962.23 
            414         10878.2 
            422         15431.2 
            430         22391.9 
            441         34459.1 
            451         48150.4 
            460         64229.2 
            470         92536.6 
            480          127313 
            490          175969 
            500          234733 
            506      1.22979e+6 
            512       1.2098e+7 
            520      1.32445e+7 
            530      1.54943e+7 
            540      1.57203e+7 
            550      2.55117e+7 
            560      3.11739e+7 
            570       3.7237e+7 
            580      3.43334e+7 
            590      4.77573e+7 
            600      5.22681e+7 
            610      6.36633e+7 
            620      6.98645e+7 
            630      7.39924e+7 
            640      6.62836e+7 
            650      4.71139e+7 
            658      7.65677e+7 
            665      9.56678e+7 
            675      9.86752e+7 
            685      9.78385e+7 
            695      1.36489e+8 
            705      1.33577e+8 
            716      1.55878e+8 
            726      1.55881e+8 
            735      1.68509e+8 
            745      1.94872e+8 
            755      2.06815e+8 
            765      2.23241e+8 
            775      2.39771e+8 
            785      2.57128e+8 
            795      2.63313e+8 
            805      2.73595e+8 
            815      2.80495e+8 
            825      3.08978e+8 
            835      2.41991e+8 
            845      3.14078e+8 
            855      3.19261e+8 
            865      3.41613e+8 
            875      3.63525e+8 
            885      3.96987e+8 
            895      4.16275e+8 
            905      4.05181e+8 
            915      6.62452e+8 
            925      5.85904e+9 
            935     1.18019e+10 
            945     1.80783e+10 
            955     2.10731e+10 
            965     2.14773e+10 
            975      3.68322e+9 
            985      1.4703e+10 
            995     1.64151e+10 
           1005     2.06924e+10 
           1015     2.16722e+10 
           1025     1.45478e+10 
           1035     1.69581e+10 
           1045     2.65033e+10 
           1055     2.40188e+10 
           1065     1.78446e+10 
           1075     2.16605e+10 
           1085     1.96764e+10 
           1095     2.24569e+10 
           1105     1.90141e+10 
           1115     1.69431e+10 
           1125     1.24539e+10 
           1135     2.00532e+10 
           1145     1.81424e+10 
           1155     1.86912e+10 
           1165     1.86796e+10 
           1175      9.76243e+9 
           1185     1.74676e+10 
           1195      1.5304e+10 
           1205       7.0786e+9 
           1215      9.94302e+9 
           1225     1.54161e+10 
           1235     1.78916e+10 
           1245     1.71825e+10 
           1255     1.70078e+10 
           1265     1.73558e+10 
           1275     1.80589e+10 
           1285     1.78148e+10 
           1295       9.7445e+9 
           1305     1.13028e+10 
           1315     1.73608e+10 
           1325     1.61374e+10 
           1335     1.55917e+10 
           1345     1.58514e+10 
           1355     1.56866e+10 
           1365      1.4005e+10 
           1375     1.34243e+10 
           1385     1.22984e+10 
           1395      6.66295e+9 
           1405       8.2263e+9 
           1415     1.10912e+10 
           1425     1.12904e+10 
           1435     1.19338e+10 
           1442     1.23246e+10 
           1447     1.21016e+10 
           1455     1.15886e+10 
           1465     1.04904e+10 
           1475     1.09513e+10 
           1485     1.07886e+10 
           1495     1.05191e+10 
           1505      9.34595e+9 
           1512      8.31916e+9 
           1517      8.66238e+9 
           1525      9.00959e+9 
           1535      7.41411e+9 
           1545      7.05946e+9 
           1555      6.92829e+9 
           1565      7.66126e+9 
           1575      8.28353e+9 
           1585      8.34144e+9 
           1595      8.24206e+9 
           1605       8.4598e+9 
           1615      8.27202e+9 
           1625      8.06995e+9 
           1635      8.70957e+9 
           1645      8.76758e+9 
           1655      8.56732e+9 
           1665      8.75974e+9 
           1672      8.25559e+9 
           1677      9.29242e+9 
           1685      8.94937e+9 
           1695      8.34528e+9 
           1705      8.16758e+9 
           1715      7.60305e+9 
           1725      7.51579e+9 
           1735      7.89796e+9 
           1745      7.72444e+9 
           1755      7.74124e+9 
           1765       7.7233e+9 
           1775      7.07334e+9 
           1785      7.25584e+9 
           1795      7.57206e+9 
           1805      7.67757e+9 
           1815      6.65933e+9 
           1825      7.03933e+9 
           1835      6.78605e+9 
           1845      6.13199e+9 
           1855      6.24396e+9 
           1865      6.32156e+9 
           1875      6.66066e+9 
           1885      5.86634e+9 
           1895      5.43825e+9 
           1905      6.02379e+9 
           1915      5.55136e+9 
           1925      5.23926e+9 
           1935      5.66791e+9 
           1945      5.75029e+9 
           1955      5.12041e+9 
           1967      5.70748e+9 
           1976      5.96503e+9 
           1984      5.51735e+9 
           1995      5.41938e+9 
           2005      5.71013e+9 
           2015      5.60823e+9 
           2025      5.77117e+9 
           2035      5.20652e+9 
           2045      5.37354e+9 
           2055      5.09371e+9 
           2065      5.05289e+9 
           2074      5.38179e+9 
           2078      4.77394e+9 
           2085      5.17584e+9 
           2095      4.86982e+9 
           2105      5.05228e+9 
           2115      5.11924e+9 
           2125      5.13624e+9 
           2135      5.06526e+9 
           2145      4.75294e+9 
           2155      5.01679e+9 
           2165      5.01604e+9 
           2175      4.95338e+9 
           2185       4.7388e+9 
           2195      4.83936e+9 
           2205      4.85182e+9 
           2215      4.75221e+9 
           2225      4.61302e+9 
           2235       4.5474e+9 
           2245      4.61118e+9 
           2255      4.43501e+9 
           2265      4.52166e+9 
           2275      4.44793e+9 
           2285      4.43967e+9 
           2295       3.9202e+9 
           2305      4.27674e+9 
           2315      4.13928e+9 
           2325      4.10027e+9 
           2335      3.94679e+9 
           2345      4.01137e+9 
           2355      3.99592e+9 
           2365      3.96651e+9 
           2375      3.87781e+9 
           2385      3.85199e+9 
           2395      3.80793e+9 
           2405      3.73497e+9 
           2415      3.69868e+9 
           2425      3.69777e+9 
           2435      3.57991e+9 
           2445      3.60085e+9 
           2455       3.6057e+9 
           2465      3.53292e+9 
           2475      3.46371e+9 
           2485      3.33913e+9 
           2495      2.54783e+9 
           2505      3.17808e+9 
           2513      3.13581e+9 
           2518      3.26169e+9 
           2525      3.23879e+9 
           2535      3.21657e+9 
           2545      3.04035e+9 
           2555      3.13663e+9 
           2565      3.07557e+9 
           2575       3.1177e+9 
           2585      3.06335e+9 
           2595      3.04202e+9 
           2605      3.02387e+9 
           2615      2.96834e+9 
           2625      2.95298e+9 
           2635      2.92633e+9 
           2645       2.8966e+9 
           2655      2.88347e+9 
           2665      2.74369e+9 
           2675      2.77466e+9 
           2685      2.76829e+9 
           2695      2.66101e+9 
           2705      2.59586e+9 
           2715      2.61208e+9 
           2725      2.61223e+9 
           2735       2.5918e+9 
           2745      2.52635e+9 
           2755      2.52001e+9 
           2765      2.49659e+9 
           2775      2.52016e+9 
           2785       2.4713e+9 
           2795      2.36892e+9 
           2805      2.40751e+9 
           2815      2.41145e+9 
           2825        2.386e+9 
           2835      2.28853e+9 
           2845      2.31762e+9 
           2855      2.26883e+9 
           2865      2.27785e+9 
           2875      2.24968e+9 
           2885      2.22804e+9 
           2895      2.18485e+9 
           2910      2.13436e+9 
           2930       2.1198e+9 
           2950      2.05791e+9 
           2970      2.02888e+9 
           2990      1.98105e+9 
           3010      1.89252e+9 
           3030      1.89536e+9 
           3050      1.87245e+9 
           3070      1.85081e+9 
           3090       1.7612e+9 
           3110      1.76771e+9 
           3130      1.71808e+9 
           3150      1.69649e+9 
           3170      1.65003e+9 
           3190      1.62115e+9 
           3210      1.59937e+9 
           3230      1.55687e+9 
           3250      1.53909e+9 
           3270      1.50165e+9 
           3290      1.47259e+9 
           3310      1.44645e+9 
           3330      1.41425e+9 
           3350      1.39225e+9 
           3370      1.36137e+9 
           3390       1.3449e+9 
           3410      1.32091e+9 
           3430      1.29392e+9 
           3450      1.26507e+9 
           3470      1.24205e+9 
           3490       1.2166e+9 
           3510      1.19871e+9 
           3530      1.18525e+9 
           3550      1.16195e+9 
           3570      1.14394e+9 
           3590      1.10989e+9 
           3610      1.09185e+9 
           3630      1.07685e+9 
           3640      1.07566e+9 
           3650      1.05807e+9 
           3670      1.04718e+9 
           3690       1.0205e+9 
           3710      9.86403e+8 
           3730       9.6069e+8 
           3750       1.0235e+9 
           3770      1.01269e+9 
           3790      1.04253e+9 
           3810       1.0735e+9 
           3830      9.58665e+8 
           3850      1.06369e+9 
           3870       1.0374e+9 
           3890      9.14631e+8 
           3910      1.04063e+9 
           3930      9.98724e+8 
           3950      9.90519e+8 
           3970      8.47975e+8 
           3990      9.62074e+8 
           4010      9.54047e+8 
           4030      9.11686e+8 
           4050      9.18184e+8 
           4070      8.71361e+8 
           4090      8.30948e+8 
           4110      7.61193e+8 
           4130      8.35272e+8 
           4150      8.29691e+8 
           4170      8.28641e+8 
           4190      8.19805e+8 
           4210      8.13904e+8 
           4230      7.93804e+8 
           4250      7.69769e+8 
           4270      7.47388e+8 
           4290      7.35666e+8 
           4310      7.13421e+8 
           4330       6.7759e+8 
           4350      6.28748e+8 
           4370      6.82109e+8 
           4390      6.83962e+8 
           4410      6.74131e+8 
           4430      6.69708e+8 
           4450      6.57785e+8 
           4470      6.36621e+8 
           4490      6.39689e+8 
           4510      6.35584e+8 
           4530      6.25744e+8 
           4550      6.17762e+8 
           4570      6.06486e+8 
           4590      5.95937e+8 
           4610      5.80673e+8 
           4630      5.74174e+8 
           4650      5.53146e+8 
           4670      5.56226e+8 
           4690      5.53068e+8 
           4710      5.29497e+8 
           4730       5.3493e+8 
           4750      5.25743e+8 
           4770      5.27486e+8 
           4790      5.17722e+8 
           4810       5.0587e+8 
           4830      4.97184e+8 
           4850      4.77348e+8 
           4870      4.33359e+8 
           4890      4.78141e+8 
           4910      4.72379e+8 
           4930      4.57921e+8 
           4950      4.55873e+8 
           4970      4.55338e+8 
           4990      4.47459e+8 
           5010      4.27594e+8 
           5030      4.33238e+8 
           5050      4.22989e+8 
           5070      4.22853e+8 
           5090       4.1532e+8 
           5110      4.08396e+8 
           5130      3.99678e+8 
           5150      3.96139e+8 
           5170      3.92714e+8 
           5190      3.88015e+8 
           5210      3.80378e+8 
           5230      3.77392e+8 
           5250      3.72677e+8 
           5270      3.66177e+8 
           5290        3.627e+8 
           5310      3.57194e+8 
           5330      3.52569e+8 
           5350      3.47174e+8 
           5370      3.43783e+8 
           5390      3.38578e+8 
           5410      3.34689e+8 
           5430      3.29379e+8 
           5450      3.24784e+8 
           5470      3.20525e+8 
           5490      3.16919e+8 
           5510       3.1358e+8 
           5530      3.08483e+8 
           5550      3.05603e+8 
           5570      3.01215e+8 
           5590      2.97857e+8 
           5610      2.93463e+8 
           5630      2.90419e+8 
           5650      2.84307e+8 
           5670      2.79621e+8 
           5690      2.75541e+8 
           5710      2.74146e+8 
           5730      2.71513e+8 
           5750      2.66858e+8 
           5770      2.65475e+8 
           5790      2.61824e+8 
           5810      2.58596e+8 
           5830      2.54686e+8 
           5850      2.52056e+8 
           5870      2.43169e+8 
           5890      2.43638e+8 
           5910      2.41787e+8 
           5930       2.3853e+8 
           5950      2.35163e+8 
           5970      2.34583e+8 
           5990        2.301e+8 
           6010      2.28561e+8 
           6030      2.25141e+8 
           6050       2.2276e+8 
           6070      2.20588e+8 
           6090      2.17964e+8 
           6110      2.15419e+8 
           6130      2.13083e+8 
           6150         2.09e+8 
           6170      2.07113e+8 
           6190      2.05374e+8 
           6210      2.03223e+8 
           6230      2.00998e+8 
           6250      1.97958e+8 
           6270      1.95931e+8 
           6290      1.93897e+8 
           6310       1.9126e+8 
           6330      1.89573e+8 
           6350      1.86372e+8 
           6370      1.84935e+8 
           6390      1.82912e+8 
           6410      1.80855e+8 
           6430      1.79139e+8 
           6450      1.76971e+8 
           6470      1.74141e+8 
           6490      1.72363e+8 
           6510      1.70781e+8 
           6530      1.68208e+8 
           6550      1.64004e+8 
           6570      1.46957e+8 
           6590      1.61577e+8 
           6610      1.61359e+8 
           6630      1.59856e+8 
           6650      1.57848e+8 
           6670      1.55184e+8 
           6690        1.536e+8 
           6710      1.53088e+8 
           6730      1.50873e+8 
           6750      1.49939e+8 
           6770      1.48323e+8 
           6790      1.45293e+8 
           6810      1.44815e+8 
           6830      1.43056e+8 
           6850       1.4194e+8 
           6870      1.40389e+8 
           6890      1.38646e+8 
           6910      1.36843e+8 
           6930       1.3596e+8 
           6950      1.34648e+8 
           6970      1.33241e+8 
           6990      1.31763e+8 
           7010      1.30352e+8 
           7030      1.28964e+8 
           7050       1.2768e+8 
           7070      1.24373e+8 
           7090      1.25044e+8 
           7110      1.22486e+8 
           7130      1.21385e+8 
           7150      1.21119e+8 
           7170      1.19976e+8 
           7190      1.18806e+8 
           7210       1.1759e+8 
           7230      1.14504e+8 
           7250      1.14805e+8 
           7270      1.14003e+8 
           7290      1.11975e+8 
           7310      1.11688e+8 
           7330      1.10518e+8 
           7350      1.09485e+8 
           7370       1.0842e+8 
           7390      1.07337e+8 
           7410      1.06271e+8 
           7430      1.05093e+8 
           7450      1.04108e+8 
           7470      1.02215e+8 
           7490      1.01952e+8 
           7510      1.01029e+8 
           7530      9.99081e+7 
           7550      9.91284e+7 
           7570      9.81779e+7 
           7590      9.71577e+7 
           7610      9.60102e+7 
           7630      9.52939e+7 
           7650      9.43586e+7 
           7670      9.34957e+7 
           7690      9.25832e+7 
           7710      9.16662e+7 
           7730      9.07007e+7 
           7750      8.99572e+7 
           7770      8.83902e+7 
           7790      8.82659e+7 
           7810      8.73698e+7 
           7830      8.66045e+7 
           7850       8.5693e+7 
           7870      8.47288e+7 
           7890      8.36765e+7 
           7910       8.3278e+7 
           7930      8.24331e+7 
           7950      8.14586e+7 
           7970      8.08189e+7 
           7990      7.98955e+7 
           8010      7.93855e+7 
           8030      7.86575e+7 
           8050      7.79939e+7 
           8070      7.73302e+7 
           8090      7.65166e+7 
           8110      7.53206e+7 
           8130      7.52354e+7 
           8150      7.44696e+7 
           8170      7.39474e+7 
           8190      7.27274e+7 
           8210      7.21164e+7 
           8230      7.13047e+7 
           8250      7.12029e+7 
           8270      6.96251e+7 
           8290      6.97829e+7 
           8310      6.92346e+7 
           8330        6.868e+7 
           8350      6.77246e+7 
           8370      6.71755e+7 
           8390      6.67753e+7 
           8410      6.60905e+7 
           8430      6.55017e+7 
           8450      6.42897e+7 
           8470      6.41178e+7 
           8490      6.37899e+7 
           8510      6.26425e+7 
           8530      6.29342e+7 
           8550      6.07539e+7 
           8570      6.26199e+7 
