# Kurucz ODFNEW /NOVER (2003)
# teff = 34000 K (value for the effective temperature for the model. Temperatures are given in K)
# logg = 4.5 log(cm/s2) (value for Log(G) for the model.)
# meta = -0.5  (value for the Metallicity for the model.)
# lh = 1.25  (l/Hp where l is the  mixing length of the convective element and Hp is the pressure scale height)
# vtur = 2 km/s (Microturbulence velocity)
# alpha = 0  (Alpha)
#
# column 1: WAVELENGTH (ANGSTROM), Wavelength in Angstrom
# column 2: FLUX (ERG/CM2/S/A), Flux in erg/cm2/s/A
          147.2      3.78766e-5 
            151      9.57809e-5 
          155.2     0.000253686 
          158.8     0.000562418 
            162      0.00111115 
            166      0.00251404 
          170.3      0.00580005 
          173.4       0.0103508 
          176.8       0.0191183 
          180.2       0.0345126 
          181.7       0.0445504 
          186.1       0.0918882 
            191        0.198407 
          193.9        0.307478 
          198.4        0.592918 
          201.8        0.955533 
            205         1.47725 
          210.5         3.03567 
          216.2          6.1634 
          219.8         9.49231 
            223         13.7627 
          226.8          21.068 
            230         19704.6 
            234         58740.6 
            240         91729.7 
          246.5          147698 
          252.4          229932 
          256.8          275797 
            260          475872 
            264          769448 
          268.5      1.09906e+6 
          273.5      1.42246e+6 
          278.5      1.67265e+6 
            284      3.03178e+6 
            290      4.09918e+6 
            296      5.02859e+6 
            301      7.08418e+6 
            308       1.3849e+7 
            318      3.13803e+7 
            328      4.12678e+7 
            338      6.59187e+7 
            348      9.26892e+7 
            357      1.39233e+8 
            366      2.13077e+8 
            375      2.42567e+8 
            385       3.0639e+8 
            395      4.01684e+8 
            405      4.74308e+8 
            414      5.58184e+8 
            422      6.08681e+8 
            430      6.74079e+8 
            441      8.08488e+8 
            451      9.12648e+8 
            460      9.78767e+8 
            470      1.11687e+9 
            480      1.27081e+9 
            490      1.37061e+9 
            500      1.59266e+9 
            506      3.65891e+9 
            512      1.6189e+10 
            520     1.51124e+10 
            530     1.39064e+10 
            540     1.25901e+10 
            550      1.4109e+10 
            560     1.66597e+10 
            570     1.71795e+10 
            580       1.588e+10 
            590       1.662e+10 
            600     1.47542e+10 
            610     1.62659e+10 
            620     1.82769e+10 
            630     1.78389e+10 
            640     1.78303e+10 
            650     1.78601e+10 
            658     1.63521e+10 
            665     1.76547e+10 
            675     1.85353e+10 
            685     1.61996e+10 
            695     1.87006e+10 
            705      1.6767e+10 
            716     1.93518e+10 
            726     1.90196e+10 
            735      1.9201e+10 
            745     1.86829e+10 
            755     1.85561e+10 
            765     1.85717e+10 
            775     1.87742e+10 
            785     1.91426e+10 
            795     1.90515e+10 
            805     1.86427e+10 
            815     1.86441e+10 
            825     1.90683e+10 
            835     1.70408e+10 
            845     1.85731e+10 
            855     1.84529e+10 
            865     1.87664e+10 
            875     1.87527e+10 
            885     1.87969e+10 
            895     1.88274e+10 
            905     1.84095e+10 
            915     1.85907e+10 
            925     4.78911e+10 
            935     7.31158e+10 
            945     1.01566e+11 
            955     1.11198e+11 
            965     1.28943e+11 
            975     6.99662e+10 
            985     1.14775e+11 
            995      1.0391e+11 
           1005     1.06892e+11 
           1015     1.07977e+11 
           1025     7.98586e+10 
           1035     1.03816e+11 
           1045     1.12323e+11 
           1055     1.08609e+11 
           1065     9.86443e+10 
           1075     9.96505e+10 
           1085     9.16298e+10 
           1095     9.68416e+10 
           1105     9.26131e+10 
           1115     9.08654e+10 
           1125     8.09613e+10 
           1135     8.71678e+10 
           1145     8.34335e+10 
           1155     8.05181e+10 
           1165     7.81508e+10 
           1175     6.00802e+10 
           1185     7.17576e+10 
           1195     7.00446e+10 
           1205     6.69072e+10 
           1215     4.96487e+10 
           1225     6.40449e+10 
           1235     6.68355e+10 
           1245     6.47332e+10 
           1255     6.41554e+10 
           1265     6.44776e+10 
           1275     6.42233e+10 
           1285     6.34786e+10 
           1295     5.98243e+10 
           1305     5.93202e+10 
           1315      6.0258e+10 
           1325     5.81137e+10 
           1335     5.64727e+10 
           1345     5.62192e+10 
           1355     5.46948e+10 
           1365     5.30026e+10 
           1375      5.1822e+10 
           1385     5.04833e+10 
           1395     4.49204e+10 
           1405     4.45638e+10 
           1415     4.73775e+10 
           1425     4.36593e+10 
           1435     4.50526e+10 
           1442     4.47286e+10 
           1447     4.42221e+10 
           1455     4.26801e+10 
           1465     4.19993e+10 
           1475     4.13123e+10 
           1485      4.1137e+10 
           1495     3.98284e+10 
           1505     3.91196e+10 
           1512     3.85176e+10 
           1517     3.82346e+10 
           1525     3.72173e+10 
           1535     3.38656e+10 
           1545      3.0692e+10 
           1555     3.04185e+10 
           1565     3.18676e+10 
           1575     3.25895e+10 
           1585     3.25485e+10 
           1595     3.20735e+10 
           1605     3.02097e+10 
           1615     2.91203e+10 
           1625     2.93266e+10 
           1635     2.91155e+10 
           1645     2.82405e+10 
           1655     2.90075e+10 
           1665     2.84141e+10 
           1672     2.68898e+10 
           1677     2.92306e+10 
           1685     2.82545e+10 
           1695     2.75444e+10 
           1705     2.69423e+10 
           1715     2.60847e+10 
           1725     2.53071e+10 
           1735      2.5846e+10 
           1745     2.54083e+10 
           1755     2.48248e+10 
           1765      2.4485e+10 
           1775     2.39827e+10 
           1785     2.38815e+10 
           1795     2.33192e+10 
           1805     2.31297e+10 
           1815     2.25874e+10 
           1825     2.21821e+10 
           1835     2.20652e+10 
           1845     2.12235e+10 
           1855     2.09866e+10 
           1865        2.08e+10 
           1875     2.04159e+10 
           1885     1.97227e+10 
           1895     1.94007e+10 
           1905     1.95267e+10 
           1915     1.90069e+10 
           1925     1.81552e+10 
           1935     1.85717e+10 
           1945     1.85276e+10 
           1955     1.75017e+10 
           1967     1.77387e+10 
           1976     1.77531e+10 
           1984      1.7302e+10 
           1995     1.68003e+10 
           2005     1.69087e+10 
           2015     1.67376e+10 
           2025     1.65249e+10 
           2035     1.61154e+10 
           2045     1.58546e+10 
           2055     1.30334e+10 
           2065     1.25558e+10 
           2074     1.27886e+10 
           2078     1.27621e+10 
           2085      1.3278e+10 
           2095     1.40562e+10 
           2105      1.4434e+10 
           2115     1.44081e+10 
           2125     1.41269e+10 
           2135     1.39667e+10 
           2145     1.37443e+10 
           2155     1.36787e+10 
           2165     1.31765e+10 
           2175     1.33311e+10 
           2185     1.28858e+10 
           2195     1.29931e+10 
           2205     1.28019e+10 
           2215     1.23257e+10 
           2225       1.241e+10 
           2235     1.22245e+10 
           2245     1.20306e+10 
           2255     1.16115e+10 
           2265     1.17001e+10 
           2275     1.15414e+10 
           2285     1.13129e+10 
           2295      1.0706e+10 
           2305     1.07835e+10 
           2315     1.08304e+10 
           2325     1.07082e+10 
           2335     1.05483e+10 
           2345     1.04044e+10 
           2355     1.02428e+10 
           2365     1.00958e+10 
           2375      9.92879e+9 
           2385      9.55032e+9 
           2395      9.59487e+9 
           2405      9.52436e+9 
           2415       9.3901e+9 
           2425       9.2795e+9 
           2435      9.13164e+9 
           2445      9.01487e+9 
           2455      8.88345e+9 
           2465      8.77246e+9 
           2475      8.65251e+9 
           2485      8.50432e+9 
           2495      7.48191e+9 
           2505      8.22918e+9 
           2513      7.81059e+9 
           2518      7.99885e+9 
           2525      8.07392e+9 
           2535      7.98104e+9 
           2545      7.84748e+9 
           2555      7.74635e+9 
           2565      7.65744e+9 
           2575      7.55604e+9 
           2585      7.46048e+9 
           2595      7.34771e+9 
           2605      7.28363e+9 
           2615      7.17404e+9 
           2625      7.09324e+9 
           2635      7.00207e+9 
           2645      6.90345e+9 
           2655       6.8152e+9 
           2665      6.70421e+9 
           2675      6.59311e+9 
           2685      6.55663e+9 
           2695      6.43337e+9 
           2705      6.37972e+9 
           2715      6.29345e+9 
           2725      6.19966e+9 
           2735      6.04109e+9 
           2745      6.07365e+9 
           2755      5.99936e+9 
           2765      5.89297e+9 
           2775      5.85889e+9 
           2785      5.77852e+9 
           2795       5.6461e+9 
           2805      5.62076e+9 
           2815      5.57329e+9 
           2825      5.47584e+9 
           2835      5.40447e+9 
           2845      5.37445e+9 
           2855      5.30359e+9 
           2865      5.23359e+9 
           2875      5.17445e+9 
           2885       5.1133e+9 
           2895      5.05106e+9 
           2910      4.95241e+9 
           2930      4.84685e+9 
           2950      4.70733e+9 
           2970      4.61553e+9 
           2990      4.49584e+9 
           3010      4.39014e+9 
           3030      4.28477e+9 
           3050      4.19637e+9 
           3070      4.11149e+9 
           3090      4.00123e+9 
           3110      3.92656e+9 
           3130      3.83605e+9 
           3150      3.75082e+9 
           3170      3.66731e+9 
           3190      3.57564e+9 
           3210      3.48625e+9 
           3230      3.43617e+9 
           3250      3.36644e+9 
           3270      3.28349e+9 
           3290      3.21982e+9 
           3310        3.153e+9 
           3330      3.08286e+9 
           3350      3.01246e+9 
           3370      2.95475e+9 
           3390      2.89983e+9 
           3410      2.83931e+9 
           3430      2.77661e+9 
           3450      2.71084e+9 
           3470      2.66222e+9 
           3490      2.60829e+9 
           3510      2.55813e+9 
           3530      2.51045e+9 
           3550       2.4589e+9 
           3570      2.41851e+9 
           3590      2.35843e+9 
           3610      2.31592e+9 
           3630      2.26694e+9 
           3640      2.24458e+9 
           3650      2.14831e+9 
           3670      2.11313e+9 
           3690      2.07357e+9 
           3710      2.01717e+9 
           3730       1.9722e+9 
           3750      1.96218e+9 
           3770      1.92382e+9 
           3790      1.96662e+9 
           3810      2.00538e+9 
           3830      1.82225e+9 
           3850      1.99742e+9 
           3870      1.98146e+9 
           3890      1.71434e+9 
           3910      1.93994e+9 
           3930      1.89861e+9 
           3950      1.86149e+9 
           3970      1.58413e+9 
           3990      1.79807e+9 
           4010      1.77266e+9 
           4030      1.69746e+9 
           4050      1.72277e+9 
           4070      1.67293e+9 
           4090      1.57711e+9 
           4110      1.43849e+9 
           4130      1.58255e+9 
           4150      1.56204e+9 
           4170      1.54618e+9 
           4190      1.51618e+9 
           4210      1.48604e+9 
           4230      1.47021e+9 
           4250      1.44013e+9 
           4270      1.41019e+9 
           4290      1.38941e+9 
           4310      1.35807e+9 
           4330      1.27019e+9 
           4350      1.18433e+9 
           4370      1.29141e+9 
           4390      1.25672e+9 
           4410      1.25234e+9 
           4430      1.23529e+9 
           4450      1.21579e+9 
           4470      1.16498e+9 
           4490      1.17578e+9 
           4510      1.15541e+9 
           4530      1.13801e+9 
           4550      1.11094e+9 
           4570      1.10259e+9 
           4590      1.08283e+9 
           4610      1.06532e+9 
           4630      1.04475e+9 
           4650      1.00834e+9 
           4670      1.01295e+9 
           4690      9.82907e+8 
           4710      9.73881e+8 
           4730      9.70933e+8 
           4750      9.55227e+8 
           4770      9.41753e+8 
           4790      9.27009e+8 
           4810      9.11972e+8 
           4830      8.94036e+8 
           4850       8.4635e+8 
           4870      7.76685e+8 
           4890      8.52585e+8 
           4910      8.43247e+8 
           4930      8.18268e+8 
           4950      8.17758e+8 
           4970      8.07529e+8 
           4990      7.95395e+8 
           5010      7.75234e+8 
           5030      7.71196e+8 
           5050      7.57551e+8 
           5070      7.49358e+8 
           5090      7.38232e+8 
           5110        7.274e+8 
           5130      7.16529e+8 
           5150      7.06102e+8 
           5170      6.95942e+8 
           5190      6.86141e+8 
           5210      6.76401e+8 
           5230      6.66733e+8 
           5250      6.56729e+8 
           5270      6.47372e+8 
           5290       6.3869e+8 
           5310      6.29639e+8 
           5330      6.20839e+8 
           5350      6.12112e+8 
           5370      6.03603e+8 
           5390      5.95112e+8 
           5410      5.82289e+8 
           5430      5.78838e+8 
           5450       5.7083e+8 
           5470      5.62962e+8 
           5490      5.55293e+8 
           5510      5.47695e+8 
           5530      5.40254e+8 
           5550      5.33029e+8 
           5570      5.25771e+8 
           5590      5.18291e+8 
           5610      5.11813e+8 
           5630      5.04974e+8 
           5650      4.98195e+8 
           5670      4.91335e+8 
           5690      4.81546e+8 
           5710      4.70645e+8 
           5730      4.64668e+8 
           5750      4.58445e+8 
           5770      4.52907e+8 
           5790      4.47064e+8 
           5810      4.41179e+8 
           5830      4.35475e+8 
           5850      4.30686e+8 
           5870       4.1679e+8 
           5890      4.20024e+8 
           5910      4.15903e+8 
           5930      4.11248e+8 
           5950      4.06722e+8 
           5970      4.02511e+8 
           5990      3.98022e+8 
           6010      3.94073e+8 
           6030      3.89205e+8 
           6050      3.84516e+8 
           6070      3.79849e+8 
           6090      3.75134e+8 
           6110      3.70492e+8 
           6130      3.65933e+8 
           6150      3.61236e+8 
           6170       3.5683e+8 
           6190       3.5263e+8 
           6210       3.4836e+8 
           6230      3.44108e+8 
           6250      3.39883e+8 
           6270      3.35831e+8 
           6290      3.31804e+8 
           6310      3.27745e+8 
           6330        3.239e+8 
           6350      3.19985e+8 
           6370      3.16234e+8 
           6390      3.12467e+8 
           6410       3.0865e+8 
           6430      3.05147e+8 
           6450      3.01528e+8 
           6470      2.97849e+8 
           6490      2.94424e+8 
           6510      2.90982e+8 
           6530      2.86367e+8 
           6550      2.77552e+8 
           6570      2.52806e+8 
           6590      2.75919e+8 
           6610       2.7451e+8 
           6630      2.71511e+8 
           6650      2.68441e+8 
           6670      2.63201e+8 
           6690      2.59937e+8 
           6710      2.59227e+8 
           6730      2.56291e+8 
           6750      2.53509e+8 
           6770      2.50773e+8 
           6790      2.47794e+8 
           6810      2.45195e+8 
           6830      2.42453e+8 
           6850      2.39779e+8 
           6870      2.37108e+8 
           6890      2.33979e+8 
           6910      2.31775e+8 
           6930      2.29388e+8 
           6950      2.26876e+8 
           6970      2.24397e+8 
           6990      2.21951e+8 
           7010      2.19505e+8 
           7030         2.17e+8 
           7050      2.14763e+8 
           7070      2.10015e+8 
           7090      2.10218e+8 
           7110      2.07942e+8 
           7130      2.05732e+8 
           7150      2.03551e+8 
           7170      2.01083e+8 
           7190      1.99113e+8 
           7210      1.97148e+8 
           7230      1.94574e+8 
           7250       1.9295e+8 
           7270      1.90985e+8 
           7290      1.87882e+8 
           7310      1.86997e+8 
           7330      1.85066e+8 
           7350      1.83147e+8 
           7370      1.81245e+8 
           7390      1.79376e+8 
           7410      1.77524e+8 
           7430      1.75703e+8 
           7450      1.73905e+8 
           7470      1.72057e+8 
           7490      1.70253e+8 
           7510      1.68606e+8 
           7530      1.66921e+8 
           7550      1.65245e+8 
           7570      1.63571e+8 
           7590        1.615e+8 
           7610      1.60223e+8 
           7630      1.58679e+8 
           7650      1.57097e+8 
           7670      1.55542e+8 
           7690      1.53932e+8 
           7710      1.52443e+8 
           7730      1.50867e+8 
           7750      1.49462e+8 
           7770      1.47995e+8 
           7790      1.46541e+8 
           7810      1.45062e+8 
           7830      1.43689e+8 
           7850      1.42365e+8 
           7870      1.40925e+8 
           7890      1.39521e+8 
           7910      1.38251e+8 
           7930      1.36901e+8 
           7950      1.35605e+8 
           7970      1.34238e+8 
           7990         1.33e+8 
           8010      1.31726e+8 
           8030      1.30451e+8 
           8050      1.29217e+8 
           8070      1.27987e+8 
           8090      1.26664e+8 
           8110      1.25359e+8 
           8130      1.24389e+8 
           8150      1.23099e+8 
           8170      1.22057e+8 
           8190      1.20681e+8 
           8210      1.18718e+8 
           8230      1.17464e+8 
           8250      1.16668e+8 
           8270        1.153e+8 
           8290      1.14558e+8 
           8310      1.13549e+8 
           8330      1.12423e+8 
           8350      1.11102e+8 
           8370      1.10324e+8 
           8390      1.09435e+8 
           8410      1.08436e+8 
           8430      1.07429e+8 
           8450      1.06061e+8 
           8470      1.05508e+8 
           8490      1.04447e+8 
           8510      1.03421e+8 
           8530      1.02564e+8 
           8550      1.01435e+8 
           8570      1.01188e+8 
