# Kurucz ODFNEW /NOVER (2003)
# teff = 21000 K (value for the effective temperature for the model. Temperatures are given in K)
# logg = 3.5 log(cm/s2) (value for Log(G) for the model.)
# meta = -1.5  (value for the Metallicity for the model.)
# lh = 1.25  (l/Hp where l is the  mixing length of the convective element and Hp is the pressure scale height)
# vtur = 2 km/s (Microturbulence velocity)
# alpha = 0.4  (Alpha)
#
# column 1: WAVELENGTH (ANGSTROM), Wavelength in Angstrom
# column 2: FLUX (ERG/CM2/S/A), Flux in erg/cm2/s/A
          147.2     6.08721e-19 
            151     3.74681e-18 
          155.2     2.53577e-17 
          158.8     1.21118e-16 
            162     4.60375e-16 
            166     2.28025e-15 
          170.3     1.17464e-14 
          173.4     3.64732e-14 
          176.8     1.20883e-13 
          180.2     3.83249e-13 
          181.7     6.29037e-13 
          186.1      2.5716e-12 
            191     1.14348e-11 
          193.9     2.66887e-11 
          198.4     9.46328e-11 
          201.8     2.37121e-10 
            205     5.47215e-10 
          210.5      2.16888e-9 
          216.2      8.37885e-9 
          219.8      1.89589e-8 
            223      3.82949e-8 
          226.8      8.59388e-8 
            230       6.0699e-7 
            234       1.4954e-6 
            240      4.36071e-6 
          246.5      1.30846e-5 
          252.4      3.40569e-5 
          256.8      6.56215e-5 
            260     0.000108148 
            264     0.000193267 
          268.5     0.000363058 
          273.5     0.000713095 
          278.5      0.00136937 
            284      0.00273163 
            290        0.005616 
            296       0.0111863 
            301       0.0194567 
            308       0.0402686 
            318        0.111882 
            328        0.285432 
            338        0.691174 
            348         1.58271 
            357         3.20954 
            366         6.27714 
            375         11.7915 
            385         22.9789 
            395         43.0924 
            405         78.2651 
            414         130.564 
            422         201.174 
            430         304.419 
            441         526.775 
            451         844.859 
            460         1265.92 
            470         1946.75 
            480         2933.22 
            490         4342.35 
            500         6316.09 
            506         53648.4 
            512          163514 
            520          208594 
            530          301021 
            540          335749 
            550          497183 
            560          610624 
            570          766782 
            580          780896 
            590      1.06214e+6 
            600      1.35518e+6 
            610      1.64957e+6 
            620      1.93412e+6 
            630      2.29996e+6 
            640      2.61669e+6 
            650      3.04014e+6 
            658      3.53938e+6 
            665      3.87936e+6 
            675        4.351e+6 
            685       4.9576e+6 
            695       5.8362e+6 
            705      6.54749e+6 
            716      7.52348e+6 
            726      8.37763e+6 
            735      9.33202e+6 
            745      1.05439e+7 
            755      1.17594e+7 
            765      1.30124e+7 
            775      1.44884e+7 
            785      1.60064e+7 
            795      1.74672e+7 
            805      1.91677e+7 
            815      2.08214e+7 
            825      2.28476e+7 
            835      2.42899e+7 
            845      2.66725e+7 
            855      2.87588e+7 
            865       3.1238e+7 
            875      3.38027e+7 
            885      3.65626e+7 
            895       3.9204e+7 
            905      4.12085e+7 
            915      7.37462e+7 
            925      7.02538e+8 
            935        2.577e+9 
            945      7.26228e+9 
            955      9.72861e+9 
            965     1.22794e+10 
            975       4.0236e+9 
            985     1.32644e+10 
            995     1.25927e+10 
           1005     1.32363e+10 
           1015     1.24177e+10 
           1025      4.48723e+9 
           1035     1.04059e+10 
           1045     1.39532e+10 
           1055     1.34343e+10 
           1065     1.19978e+10 
           1075      1.2989e+10 
           1085     1.20402e+10 
           1095     1.29603e+10 
           1105     1.19462e+10 
           1115     1.18695e+10 
           1125     1.10772e+10 
           1135     1.19895e+10 
           1145      1.1131e+10 
           1155      1.1553e+10 
           1165     1.15681e+10 
           1175      9.70485e+9 
           1185     1.12091e+10 
           1195     1.00628e+10 
           1205      7.43639e+9 
           1215      3.15909e+9 
           1225      8.65138e+9 
           1235      1.0039e+10 
           1245     1.01254e+10 
           1255      9.81634e+9 
           1265       9.6594e+9 
           1275      9.81924e+9 
           1285      9.60244e+9 
           1295      8.09271e+9 
           1305      8.17798e+9 
           1315      9.15906e+9 
           1325      8.81169e+9 
           1335      8.44575e+9 
           1345      8.53513e+9 
           1355      8.56596e+9 
           1365      8.20172e+9 
           1375      8.09302e+9 
           1385      8.06063e+9 
           1395      7.29773e+9 
           1405      7.44365e+9 
           1415      7.60505e+9 
           1425      7.47049e+9 
           1435      7.45821e+9 
           1442      7.47982e+9 
           1447      7.38108e+9 
           1455      7.24728e+9 
           1465      7.06794e+9 
           1475      6.96758e+9 
           1485      6.82127e+9 
           1495      6.70807e+9 
           1505      6.44059e+9 
           1512      6.24498e+9 
           1517      6.31209e+9 
           1525      6.25073e+9 
           1535       5.9051e+9 
           1545      5.96448e+9 
           1555      5.73174e+9 
           1565      5.82531e+9 
           1575      5.85333e+9 
           1585      5.75511e+9 
           1595      5.72167e+9 
           1605      5.53974e+9 
           1615      5.45575e+9 
           1625      5.41948e+9 
           1635      5.42794e+9 
           1645       5.3137e+9 
           1655      5.23758e+9 
           1665      5.22853e+9 
           1672      5.09577e+9 
           1677      5.18331e+9 
           1685      5.10873e+9 
           1695      4.97585e+9 
           1705      4.84677e+9 
           1715      4.69998e+9 
           1725      4.65363e+9 
           1735      4.64018e+9 
           1745      4.55944e+9 
           1755        4.559e+9 
           1765      4.36442e+9 
           1775      4.33607e+9 
           1785      4.30441e+9 
           1795      4.31096e+9 
           1805      4.26968e+9 
           1815      4.11641e+9 
           1825      4.11995e+9 
           1835      4.04675e+9 
           1845       3.8309e+9 
           1855      3.76059e+9 
           1865      3.77756e+9 
           1875      3.81645e+9 
           1885      3.59042e+9 
           1895      3.43104e+9 
           1905      3.56546e+9 
           1915      3.43504e+9 
           1925        3.354e+9 
           1935      3.41129e+9 
           1945       3.4253e+9 
           1955      3.23461e+9 
           1967      3.32389e+9 
           1976      3.37665e+9 
           1984      3.23003e+9 
           1995      3.14188e+9 
           2005        3.175e+9 
           2015      3.17085e+9 
           2025      3.18104e+9 
           2035      3.05688e+9 
           2045      3.02841e+9 
           2055      2.93746e+9 
           2065      2.94936e+9 
           2074      2.99581e+9 
           2078      2.89382e+9 
           2085      2.90319e+9 
           2095      2.81288e+9 
           2105      2.83723e+9 
           2115      2.81324e+9 
           2125      2.82078e+9 
           2135      2.77169e+9 
           2145      2.69948e+9 
           2155      2.70888e+9 
           2165      2.67789e+9 
           2175      2.63883e+9 
           2185      2.60905e+9 
           2195      2.58963e+9 
           2205      2.55434e+9 
           2215      2.52388e+9 
           2225      2.48123e+9 
           2235      2.45372e+9 
           2245      2.43684e+9 
           2255      2.39594e+9 
           2265      2.38071e+9 
           2275       2.3508e+9 
           2285      2.33005e+9 
           2295      2.27038e+9 
           2305      2.27121e+9 
           2315      2.23434e+9 
           2325      2.21154e+9 
           2335      2.16666e+9 
           2345      2.14027e+9 
           2355      2.13687e+9 
           2365      2.10301e+9 
           2375        2.081e+9 
           2385      2.04981e+9 
           2395      2.03174e+9 
           2405       2.0083e+9 
           2415      1.97905e+9 
           2425      1.97422e+9 
           2435      1.94349e+9 
           2445      1.92517e+9 
           2455      1.90952e+9 
           2465       1.8837e+9 
           2475      1.86384e+9 
           2485      1.84252e+9 
           2495      1.78518e+9 
           2505      1.80043e+9 
           2513      1.76113e+9 
           2518      1.76994e+9 
           2525      1.75613e+9 
           2535      1.73468e+9 
           2545      1.70194e+9 
           2555      1.70289e+9 
           2565      1.67739e+9 
           2575      1.67081e+9 
           2585      1.65227e+9 
           2595      1.63402e+9 
           2605      1.62655e+9 
           2615      1.61094e+9 
           2625      1.59464e+9 
           2635      1.57247e+9 
           2645      1.56399e+9 
           2655      1.54609e+9 
           2665      1.52427e+9 
           2675      1.51063e+9 
           2685      1.50431e+9 
           2695      1.47496e+9 
           2705      1.47144e+9 
           2715      1.45551e+9 
           2725      1.42856e+9 
           2735      1.42634e+9 
           2745      1.39867e+9 
           2755      1.38779e+9 
           2765      1.36919e+9 
           2775      1.36942e+9 
           2785      1.35397e+9 
           2795      1.31122e+9 
           2805      1.31668e+9 
           2815      1.31457e+9 
           2825      1.28885e+9 
           2835      1.27181e+9 
           2845      1.27382e+9 
           2855      1.26145e+9 
           2865      1.24995e+9 
           2875      1.23703e+9 
           2885      1.22516e+9 
           2895      1.21289e+9 
           2910      1.19446e+9 
           2930      1.16917e+9 
           2950      1.14051e+9 
           2970      1.12631e+9 
           2990      1.10333e+9 
           3010      1.08261e+9 
           3030      1.06311e+9 
           3050      1.04302e+9 
           3070      1.02336e+9 
           3090      1.00198e+9 
           3110      9.85126e+8 
           3130      9.67924e+8 
           3150      9.49901e+8 
           3170      9.31992e+8 
           3190      9.07866e+8 
           3210      8.98343e+8 
           3230      8.81836e+8 
           3250      8.66023e+8 
           3270      8.51551e+8 
           3290      8.35138e+8 
           3310      8.21673e+8 
           3330      8.07144e+8 
           3350      7.91493e+8 
           3370      7.79107e+8 
           3390      7.65614e+8 
           3410      7.52416e+8 
           3430      7.35917e+8 
           3450        7.207e+8 
           3470      7.10601e+8 
           3490      6.98799e+8 
           3510      6.90675e+8 
           3530      6.79787e+8 
           3550      6.68712e+8 
           3570      6.60353e+8 
           3590      6.46001e+8 
           3610       6.3603e+8 
           3630      6.24923e+8 
           3640      6.23456e+8 
           3650      6.12834e+8 
           3670      6.05334e+8 
           3690      5.87335e+8 
           3710      5.76339e+8 
           3730      5.68578e+8 
           3750      6.30655e+8 
           3770      6.38083e+8 
           3790      6.68556e+8 
           3810       6.9763e+8 
           3830       6.1044e+8 
           3850      7.14674e+8 
           3870      7.12639e+8 
           3890      5.81895e+8 
           3910      7.01706e+8 
           3930       6.8585e+8 
           3950      6.79091e+8 
           3970      5.40729e+8 
           3990       6.5364e+8 
           4010      6.46082e+8 
           4030      6.13497e+8 
           4050      6.31362e+8 
           4070       6.1719e+8 
           4090      5.78355e+8 
           4110      5.05946e+8 
           4130      5.80348e+8 
           4150      5.75293e+8 
           4170      5.70048e+8 
           4190      5.62773e+8 
           4210      5.54272e+8 
           4230      5.45253e+8 
           4250      5.36129e+8 
           4270      5.25188e+8 
           4290      5.19013e+8 
           4310      5.08833e+8 
           4330      4.68317e+8 
           4350      4.26472e+8 
           4370      4.84718e+8 
           4390      4.68837e+8 
           4410      4.72207e+8 
           4430      4.63404e+8 
           4450      4.58506e+8 
           4470      4.34992e+8 
           4490      4.43384e+8 
           4510      4.38182e+8 
           4530      4.31384e+8 
           4550      4.24652e+8 
           4570      4.18147e+8 
           4590      4.12187e+8 
           4610      4.06136e+8 
           4630      4.00157e+8 
           4650      3.93133e+8 
           4670      3.88305e+8 
           4690      3.82996e+8 
           4710      3.72143e+8 
           4730      3.71242e+8 
           4750      3.65484e+8 
           4770      3.61382e+8 
           4790      3.56138e+8 
           4810      3.50658e+8 
           4830      3.44272e+8 
           4850       3.2206e+8 
           4870      2.87556e+8 
           4890      3.29338e+8 
           4910      3.26363e+8 
           4930      3.15412e+8 
           4950      3.17681e+8 
           4970      3.13452e+8 
           4990      3.09053e+8 
           5010      3.00827e+8 
           5030      3.00554e+8 
           5050      2.94012e+8 
           5070      2.92445e+8 
           5090       2.8845e+8 
           5110      2.84508e+8 
           5130      2.80576e+8 
           5150      2.76796e+8 
           5170      2.73193e+8 
           5190      2.69539e+8 
           5210      2.65614e+8 
           5230      2.62429e+8 
           5250      2.58944e+8 
           5270      2.55504e+8 
           5290      2.52162e+8 
           5310       2.4885e+8 
           5330      2.45567e+8 
           5350       2.4226e+8 
           5370      2.39257e+8 
           5390      2.36149e+8 
           5410      2.33093e+8 
           5430      2.29974e+8 
           5450      2.27097e+8 
           5470      2.24193e+8 
           5490        2.214e+8 
           5510      2.18567e+8 
           5530      2.15806e+8 
           5550      2.13092e+8 
           5570      2.10398e+8 
           5590      2.07786e+8 
           5610      2.05134e+8 
           5630      2.02646e+8 
           5650      1.99915e+8 
           5670      1.97476e+8 
           5690      1.95066e+8 
           5710       1.9279e+8 
           5730      1.90425e+8 
           5750      1.88054e+8 
           5770      1.85825e+8 
           5790      1.83566e+8 
           5810      1.81333e+8 
           5830      1.79138e+8 
           5850       1.7699e+8 
           5870      1.70134e+8 
           5890      1.72553e+8 
           5910      1.70719e+8 
           5930       1.6868e+8 
           5950      1.66632e+8 
           5970      1.64725e+8 
           5990      1.62755e+8 
           6010      1.60881e+8 
           6030      1.58987e+8 
           6050      1.57135e+8 
           6070      1.55314e+8 
           6090      1.53503e+8 
           6110      1.51733e+8 
           6130      1.49982e+8 
           6150      1.48212e+8 
           6170       1.4655e+8 
           6190      1.44886e+8 
           6210      1.43232e+8 
           6230      1.41605e+8 
           6250      1.39977e+8 
           6270      1.38415e+8 
           6290       1.3685e+8 
           6310      1.35293e+8 
           6330        1.338e+8 
           6350      1.32146e+8 
           6370      1.30751e+8 
           6390      1.29371e+8 
           6410      1.27923e+8 
           6430      1.26527e+8 
           6450      1.25137e+8 
           6470      1.23744e+8 
           6490      1.22392e+8 
           6510      1.21054e+8 
           6530      1.19369e+8 
           6550      1.14847e+8 
           6570      1.02192e+8 
           6590      1.14828e+8 
           6610       1.1454e+8 
           6630      1.13421e+8 
           6650       1.1228e+8 
           6670      1.10126e+8 
           6690       1.0898e+8 
           6710      1.08733e+8 
           6730      1.07572e+8 
           6750      1.06448e+8 
           6770      1.05326e+8 
           6790      1.04176e+8 
           6810      1.03118e+8 
           6830      1.02038e+8 
           6850      1.00978e+8 
           6870      9.99277e+7 
           6890      9.88881e+7 
           6910      9.78668e+7 
           6930      9.68477e+7 
           6950      9.58621e+7 
           6970      9.48785e+7 
           6990      9.38969e+7 
           7010      9.29479e+7 
           7030      9.20005e+7 
           7050      9.10624e+7 
           7070      8.87466e+7 
           7090      8.92284e+7 
           7110      8.83321e+7 
           7130      8.74445e+7 
           7150      8.65654e+7 
           7170      8.56801e+7 
           7190       8.4847e+7 
           7210      8.40001e+7 
           7230      8.29162e+7 
           7250      8.23376e+7 
           7270      8.15288e+7 
           7290      8.00896e+7 
           7310      7.99198e+7 
           7330      7.91478e+7 
           7350      7.83759e+7 
           7370      7.76112e+7 
           7390      7.68537e+7 
           7410      7.61101e+7 
           7430      7.53665e+7 
           7450      7.46502e+7 
           7470      7.39269e+7 
           7490      7.32237e+7 
           7510      7.24869e+7 
           7530      7.18233e+7 
           7550      7.11393e+7 
           7570      7.04614e+7 
           7590      6.97963e+7 
           7610      6.91307e+7 
           7630      6.84776e+7 
           7650      6.78367e+7 
           7670      6.71952e+7 
           7690      6.65659e+7 
           7710      6.59358e+7 
           7730      6.53239e+7 
           7750      6.47112e+7 
           7770      6.40415e+7 
           7790      6.35207e+7 
           7810      6.28808e+7 
           7830       6.2351e+7 
           7850       6.1832e+7 
           7870      6.12687e+7 
           7890      6.06438e+7 
           7910      6.01635e+7 
           7930      5.95304e+7 
           7950      5.89195e+7 
           7970      5.83495e+7 
           7990        5.783e+7 
           8010      5.73014e+7 
           8030      5.67926e+7 
           8050      5.63288e+7 
           8070      5.58607e+7 
           8090      5.52412e+7 
           8110      5.48173e+7 
           8130      5.44003e+7 
           8150      5.38138e+7 
           8170      5.34547e+7 
           8190      5.29064e+7 
           8210      5.22683e+7 
           8230      5.19718e+7 
           8250      5.15385e+7 
           8270      5.08103e+7 
           8290      5.05748e+7 
           8310        5.015e+7 
           8330      4.97053e+7 
           8350      4.90271e+7 
           8370      4.87124e+7 
           8390      4.83568e+7 
           8410      4.79034e+7 
           8430      4.74097e+7 
           8450      4.67334e+7 
           8470      4.63381e+7 
           8490       4.6281e+7 
           8510      4.52949e+7 
           8530      4.57221e+7 
           8550      4.37584e+7 
           8570      4.57277e+7 
