# Kurucz ODFNEW /NOVER (2003)
# teff = 9000 K (value for the effective temperature for the model. Temperatures are given in K)
# logg = 1.5 log(cm/s2) (value for Log(G) for the model.)
# meta = -2  (value for the Metallicity for the model.)
# lh = 1.25  (l/Hp where l is the  mixing length of the convective element and Hp is the pressure scale height)
# vtur = 2 km/s (Microturbulence velocity)
# alpha = 0.4  (Alpha)
#
# column 1: WAVELENGTH (ANGSTROM), Wavelength in Angstrom
# column 2: FLUX (ERG/CM2/S/A), Flux in erg/cm2/s/A
          273.5     6.61573e-24 
          278.5     7.99968e-23 
            284     4.15908e-22 
            290     2.14767e-21 
            296     1.03006e-20 
            301     3.62272e-20 
            308     1.96029e-19 
            318     1.91513e-18 
            328     1.62298e-17 
            338     1.20669e-16 
            348     7.97234e-16 
            357     3.96744e-15 
            366     1.82068e-14 
            375     7.74114e-14 
            385     3.56155e-13 
            395     1.51257e-12 
            405     5.95739e-12 
            414     1.92996e-11 
            422     5.24993e-11 
            430     1.37395e-10 
            441     4.86193e-10 
            451      1.44925e-9 
            460       3.7105e-9 
            470      1.00975e-8 
            480      2.62958e-8 
            490      6.57245e-8 
            500         1.58e-7 
            506      3.24736e-7 
            512      5.79198e-7 
            520      1.09342e-6 
            530       2.3666e-6 
            540       4.9126e-6 
            550      1.00274e-5 
            560      1.98131e-5 
            570      3.81681e-5 
            580      7.12673e-5 
            590     0.000131947 
            600     0.000237444 
            610     0.000418584 
            620     0.000723695 
            630      0.00122824 
            640      0.00204782 
            650      0.00335766 
            658      0.00492895 
            665      0.00684046 
            675       0.0107878 
            685       0.0167721 
            695       0.0257231 
            705       0.0389353 
            716       0.0605486 
            726       0.0893299 
            735        0.125524 
            745         0.18129 
            755        0.259053 
            765        0.366426 
            775        0.513287 
            785        0.712284 
            795        0.979577 
            805         1.33559 
            815         1.80593 
            825         2.42236 
            835         3.22327 
            845         4.25953 
            855         5.58685 
            865         7.27755 
            875         9.41694 
            885         12.1082 
            895         15.4704 
            905         19.6431 
            915         148.685 
            925         828.331 
            935         1374.79 
            945         3120.19 
            955          238229 
            965          254779 
            975         6356.99 
            985       3.1483e+6 
            995      5.28397e+6 
           1005      3.30477e+6 
           1015          181858 
           1025         5942.33 
           1035          278443 
           1045      5.21406e+6 
           1055       1.1724e+7 
           1065       1.3239e+7 
           1075      1.60693e+7 
           1085      1.69144e+7 
           1095      1.64626e+7 
           1105      1.93387e+7 
           1115      2.31288e+7 
           1125      2.36856e+7 
           1135       2.3171e+7 
           1145      2.02669e+7 
           1155        1.663e+7 
           1165      1.36197e+7 
           1175      8.39617e+6 
           1185      1.43907e+7 
           1195         41162.5 
           1205         29862.8 
           1215          9821.8 
           1225         32736.7 
           1235         62169.7 
           1245      2.09728e+6 
           1255       7.2063e+6 
           1265      9.41526e+6 
           1275      1.80239e+7 
           1285      2.50738e+7 
           1295      2.70423e+7 
           1305      2.26256e+7 
           1315      3.44045e+7 
           1325      3.82217e+7 
           1335      3.90295e+7 
           1345      4.47508e+7 
           1355      4.43102e+7 
           1365      4.25938e+7 
           1375      4.57306e+7 
           1385      4.84506e+7 
           1395      4.97834e+7 
           1405      5.13311e+7 
           1415       4.9927e+7 
           1425      5.09541e+7 
           1435      4.92768e+7 
           1442      5.29557e+7 
           1447      5.45462e+7 
           1455      5.54464e+7 
           1465      5.43848e+7 
           1475       5.3901e+7 
           1485      5.49747e+7 
           1495      5.62037e+7 
           1505       5.7219e+7 
           1512      5.70431e+7 
           1517      5.83243e+7 
           1525      5.60812e+7 
           1535      5.50411e+7 
           1545      5.86189e+7 
           1555      5.59744e+7 
           1565      5.30818e+7 
           1575      5.46166e+7 
           1585      5.75586e+7 
           1595       5.9669e+7 
           1605      5.74112e+7 
           1615      5.76341e+7 
           1625      5.46628e+7 
           1635      5.59283e+7 
           1645      5.66453e+7 
           1655      5.25986e+7 
           1665      5.72142e+7 
           1672      5.16315e+7 
           1677       5.4819e+7 
           1685      5.73303e+7 
           1695      5.52029e+7 
           1705      5.45404e+7 
           1715      5.53971e+7 
           1725      5.48327e+7 
           1735      5.65653e+7 
           1745      5.58273e+7 
           1755      5.76122e+7 
           1765      5.44422e+7 
           1775      5.74715e+7 
           1785      5.64971e+7 
           1795      5.84031e+7 
           1805      5.68374e+7 
           1815      5.66405e+7 
           1825       5.5569e+7 
           1835        5.553e+7 
           1845       5.4321e+7 
           1855      5.46708e+7 
           1865      5.45432e+7 
           1875      5.58789e+7 
           1885      5.60584e+7 
           1895      5.51242e+7 
           1905      5.43041e+7 
           1915      5.44195e+7 
           1925      5.50115e+7 
           1935      5.45349e+7 
           1945      5.58996e+7 
           1955      5.54475e+7 
           1967      5.57545e+7 
           1976      5.50258e+7 
           1984       5.4917e+7 
           1995      5.41673e+7 
           2005       5.3723e+7 
           2015      5.19561e+7 
           2025      5.25944e+7 
           2035      5.31441e+7 
           2045      5.32138e+7 
           2055      5.14296e+7 
           2065      5.16103e+7 
           2074      5.24429e+7 
           2078      5.29103e+7 
           2085      5.31285e+7 
           2095      5.21856e+7 
           2105      5.23142e+7 
           2115      5.19108e+7 
           2125      5.18296e+7 
           2135      4.92022e+7 
           2145      5.13376e+7 
           2155      5.09929e+7 
           2165      4.96918e+7 
           2175      4.94732e+7 
           2185        4.933e+7 
           2195      5.10787e+7 
           2205      4.97122e+7 
           2215      4.78446e+7 
           2225      4.72207e+7 
           2235      4.97449e+7 
           2245      4.77711e+7 
           2255      4.68009e+7 
           2265      4.65171e+7 
           2275      4.84485e+7 
           2285      4.86733e+7 
           2295      4.72458e+7 
           2305      4.71636e+7 
           2315      4.67086e+7 
           2325      4.70491e+7 
           2335      4.60314e+7 
           2345       4.3533e+7 
           2355      4.58418e+7 
           2365      4.38243e+7 
           2375      4.51411e+7 
           2385      4.20347e+7 
           2395      4.43699e+7 
           2405      4.34787e+7 
           2415      4.38409e+7 
           2425      4.47889e+7 
           2435      4.36059e+7 
           2445      4.46767e+7 
           2455      4.41466e+7 
           2465       4.3548e+7 
           2475      4.27687e+7 
           2485      4.42719e+7 
           2495      4.33295e+7 
           2505      4.46946e+7 
           2513      4.35103e+7 
           2518      4.37067e+7 
           2525      4.19656e+7 
           2535      4.15308e+7 
           2545      4.16815e+7 
           2555      4.29988e+7 
           2565       4.2623e+7 
           2575      4.37408e+7 
           2585       4.3849e+7 
           2595      4.35978e+7 
           2605      4.27125e+7 
           2615      4.24465e+7 
           2625      4.26737e+7 
           2635      4.29874e+7 
           2645      4.48988e+7 
           2655      4.45537e+7 
           2665      4.33119e+7 
           2675      4.38853e+7 
           2685      4.41187e+7 
           2695      4.33224e+7 
           2705      4.33708e+7 
           2715      4.25833e+7 
           2725      4.25914e+7 
           2735      4.35029e+7 
           2745      4.08966e+7 
           2755       4.0973e+7 
           2765      4.18352e+7 
           2775      4.29383e+7 
           2785      4.27806e+7 
           2795      3.80957e+7 
           2805      4.01995e+7 
           2815      4.30574e+7 
           2825      4.27408e+7 
           2835      4.20517e+7 
           2845      4.15523e+7 
           2855      4.10385e+7 
           2865      4.14221e+7 
           2875      4.12156e+7 
           2885      4.17243e+7 
           2895       4.1717e+7 
           2910      4.23509e+7 
           2930      4.14807e+7 
           2950      4.13344e+7 
           2970      4.13651e+7 
           2990      4.12131e+7 
           3010      4.14169e+7 
           3030      4.13172e+7 
           3050      4.09877e+7 
           3070      4.04953e+7 
           3090      4.06317e+7 
           3110       4.0329e+7 
           3130      4.00267e+7 
           3150      3.99453e+7 
           3170      3.97652e+7 
           3190      3.92126e+7 
           3210      3.93215e+7 
           3230       3.8883e+7 
           3250      3.89373e+7 
           3270      3.89769e+7 
           3290      3.89082e+7 
           3310       3.8797e+7 
           3330      3.83935e+7 
           3350       3.8007e+7 
           3370      3.79751e+7 
           3390      3.77742e+7 
           3410      3.78864e+7 
           3430      3.76957e+7 
           3450      3.75669e+7 
           3470      3.73385e+7 
           3490      3.71963e+7 
           3510      3.70855e+7 
           3530      3.69628e+7 
           3550      3.67986e+7 
           3570      3.66061e+7 
           3590      3.64333e+7 
           3610      3.62735e+7 
           3630      3.60922e+7 
           3640      3.59965e+7 
           3650      3.66224e+7 
           3670      3.60398e+7 
           3690       3.8724e+7 
           3710      5.20942e+7 
           3730      7.52679e+7 
           3750      9.61534e+7 
           3770        9.534e+7 
           3790      1.00432e+8 
           3810      1.07929e+8 
           3830      9.37913e+7 
           3850      1.09248e+8 
           3870      1.09619e+8 
           3890      8.97403e+7 
           3910      1.07257e+8 
           3930      1.05078e+8 
           3950      1.05173e+8 
           3970       8.4984e+7 
           3990      1.02646e+8 
           4010      1.01817e+8 
           4030      1.00405e+8 
           4050       9.9616e+7 
           4070      9.84165e+7 
           4090      9.48912e+7 
           4110      8.05864e+7 
           4130      9.47516e+7 
           4150      9.40834e+7 
           4170      9.29707e+7 
           4190      9.20295e+7 
           4210      9.10297e+7 
           4230      8.99646e+7 
           4250      8.89634e+7 
           4270      8.79894e+7 
           4290      8.69539e+7 
           4310      8.57696e+7 
           4330      8.09925e+7 
           4350      7.15811e+7 
           4370      8.31366e+7 
           4390      8.20641e+7 
           4410       8.1335e+7 
           4430      8.04967e+7 
           4450      7.95921e+7 
           4470      7.85119e+7 
           4490      7.72871e+7 
           4510      7.69013e+7 
           4530      7.60641e+7 
           4550      7.50402e+7 
           4570      7.44533e+7 
           4590      7.35967e+7 
           4610      7.29595e+7 
           4630      7.20529e+7 
           4650      7.13839e+7 
           4670      7.06062e+7 
           4690      6.98546e+7 
           4710       6.9013e+7 
           4730      6.83565e+7 
           4750      6.76251e+7 
           4770      6.69052e+7 
           4790      6.61901e+7 
           4810      6.54763e+7 
           4830      6.46946e+7 
           4850      6.14475e+7 
           4870        5.256e+7 
           4890      6.25732e+7 
           4910      6.20817e+7 
           4930      6.13108e+7 
           4950      6.07841e+7 
           4970       6.0151e+7 
           4990      5.95139e+7 
           5010      5.87515e+7 
           5030      5.82674e+7 
           5050      5.75261e+7 
           5070      5.70688e+7 
           5090      5.64772e+7 
           5110      5.58874e+7 
           5130      5.53107e+7 
           5150      5.47385e+7 
           5170      5.40579e+7 
           5190      5.35567e+7 
           5210      5.30631e+7 
           5230      5.24762e+7 
           5250       5.1987e+7 
           5270      5.14113e+7 
           5290      5.09345e+7 
           5310      5.03752e+7 
           5330      4.98957e+7 
           5350      4.94062e+7 
           5370      4.89043e+7 
           5390      4.84124e+7 
           5410      4.79225e+7 
           5430       4.7436e+7 
           5450      4.69718e+7 
           5470      4.64993e+7 
           5490      4.60373e+7 
           5510      4.55772e+7 
           5530      4.51237e+7 
           5550      4.46816e+7 
           5570      4.42399e+7 
           5590      4.38033e+7 
           5610      4.33719e+7 
           5630      4.29454e+7 
           5650      4.25204e+7 
           5670      4.21049e+7 
           5690      4.16966e+7 
           5710      4.12906e+7 
           5730      4.08893e+7 
           5750      4.04914e+7 
           5770      4.01003e+7 
           5790      3.97113e+7 
           5810       3.9329e+7 
           5830      3.89499e+7 
           5850      3.85762e+7 
           5870      3.81202e+7 
           5890      3.78368e+7 
           5910      3.74798e+7 
           5930      3.71235e+7 
           5950      3.67647e+7 
           5970      3.64215e+7 
           5990      3.60685e+7 
           6010       3.5737e+7 
           6030      3.53999e+7 
           6050      3.50674e+7 
           6070      3.47385e+7 
           6090      3.44132e+7 
           6110      3.40924e+7 
           6130      3.37751e+7 
           6150      3.34452e+7 
           6170      3.31506e+7 
           6190      3.28443e+7 
           6210      3.25412e+7 
           6230      3.22404e+7 
           6250      3.19332e+7 
           6270      3.16512e+7 
           6290      3.13617e+7 
           6310      3.10723e+7 
           6330      3.07907e+7 
           6350      3.04467e+7 
           6370      3.01982e+7 
           6390      2.99597e+7 
           6410      2.96868e+7 
           6430      2.94204e+7 
           6450      2.91468e+7 
           6470       2.8894e+7 
           6490      2.86321e+7 
           6510      2.83524e+7 
           6530      2.79908e+7 
           6550      2.66637e+7 
           6570      2.21255e+7 
           6590       2.7113e+7 
           6610      2.70786e+7 
           6630      2.68966e+7 
           6650      2.66618e+7 
           6670      2.64183e+7 
           6690      2.61873e+7 
           6710      2.59654e+7 
           6730      2.57372e+7 
           6750      2.55138e+7 
           6770      2.52918e+7 
           6790      2.50711e+7 
           6810      2.48542e+7 
           6830      2.46386e+7 
           6850      2.44259e+7 
           6870       2.4216e+7 
           6890      2.40074e+7 
           6910      2.38016e+7 
           6930      2.35977e+7 
           6950      2.33966e+7 
           6970      2.31966e+7 
           6990      2.29993e+7 
           7010      2.28023e+7 
           7030       2.2611e+7 
           7050      2.24184e+7 
           7070      2.22224e+7 
           7090      2.20433e+7 
           7110      2.18576e+7 
           7130      2.16751e+7 
           7150      2.14929e+7 
           7170      2.13138e+7 
           7190      2.11363e+7 
           7210      2.09605e+7 
           7230      2.07856e+7 
           7250      2.06138e+7 
           7270      2.04435e+7 
           7290      2.02733e+7 
           7310      2.01069e+7 
           7330      1.99426e+7 
           7350      1.97791e+7 
           7370      1.96171e+7 
           7390      1.94573e+7 
           7410      1.92982e+7 
           7430      1.91405e+7 
           7450      1.89856e+7 
           7470      1.88308e+7 
           7490      1.86793e+7 
           7510      1.85278e+7 
           7530      1.83797e+7 
           7550      1.82316e+7 
           7570      1.80854e+7 
           7590      1.79405e+7 
           7610      1.77976e+7 
           7630      1.76552e+7 
           7650      1.75147e+7 
           7670      1.73755e+7 
           7690      1.72381e+7 
           7710      1.71006e+7 
           7730      1.69662e+7 
           7750      1.68329e+7 
           7770      1.66079e+7 
           7790      1.65693e+7 
           7810      1.64394e+7 
           7830      1.63107e+7 
           7850      1.61824e+7 
           7870       1.6051e+7 
           7890      1.59171e+7 
           7910       1.5809e+7 
           7930      1.56868e+7 
           7950      1.55639e+7 
           7970      1.54456e+7 
           7990      1.53176e+7 
           8010      1.52089e+7 
           8030      1.50923e+7 
           8050      1.49767e+7 
           8070      1.48627e+7 
           8090       1.4749e+7 
           8110      1.46368e+7 
           8130      1.45256e+7 
           8150      1.44158e+7 
           8170      1.43069e+7 
           8190      1.41973e+7 
           8210      1.41746e+7 
           8230      1.40735e+7 
           8250      1.39804e+7 
           8270       1.3882e+7 
           8290      1.37598e+7 
           8310      1.36085e+7 
           8330      1.34482e+7 
           8350      1.33958e+7 
           8370       1.3063e+7 
           8390      1.31287e+7 
           8410      1.30312e+7 
           8430      1.33558e+7 
           8450      1.32531e+7 
           8470      1.27212e+7 
           8490      1.38226e+7 
           8510      1.26096e+7 
           8530      1.39599e+7 
           8550      1.23842e+7 
           8570      1.41059e+7 
           8590       1.3399e+7 
           8610      1.30147e+7 
           8630      1.43176e+7 
           8650      1.41337e+7 
           8670      1.20202e+7 
           8690      1.40562e+7 
           8710       1.4028e+7 
           8730      1.38496e+7 
           8750      1.17276e+7 
           8770      1.35277e+7 
           8790      1.36193e+7 
           8810      1.35264e+7 
           8830      1.34106e+7 
           8850      1.30297e+7 
           8870      1.13129e+7 
           8890      1.30758e+7 
           8910      1.30333e+7 
           8930      1.29362e+7 
           8950      1.28484e+7 
           8970      1.27546e+7 
           8990      1.26192e+7 
           9010      1.09947e+7 
           9030      1.19513e+7 
           9050      1.23678e+7 
           9070      1.22931e+7 
           9090      1.22017e+7 
           9110      1.21209e+7 
           9130       1.2034e+7 
           9150      1.19491e+7 
           9170      1.18625e+7 
           9190       1.1773e+7 
