# Kurucz ODFNEW /NOVER (2003)
# teff = 8750 K (value for the effective temperature for the model. Temperatures are given in K)
# logg = 2 log(cm/s2) (value for Log(G) for the model.)
# meta = -2.5  (value for the Metallicity for the model.)
# lh = 1.25  (l/Hp where l is the  mixing length of the convective element and Hp is the pressure scale height)
# vtur = 2 km/s (Microturbulence velocity)
# alpha = 0.4  (Alpha)
#
# column 1: WAVELENGTH (ANGSTROM), Wavelength in Angstrom
# column 2: FLUX (ERG/CM2/S/A), Flux in erg/cm2/s/A
          273.5     8.23643e-24 
          278.5     7.81608e-23 
            284     3.98206e-22 
            290     2.03559e-21 
            296     9.66633e-21 
            301     3.37103e-20 
            308     1.80557e-19 
            318     1.74037e-18 
            328     1.45602e-17 
            338     1.06964e-16 
            348     6.99275e-16 
            357      3.4537e-15 
            366     1.57392e-14 
            375     6.64464e-14 
            385     3.03569e-13 
            395     1.28017e-12 
            405     5.01801e-12 
            414     1.61914e-11 
            422     4.39021e-11 
            430     1.14602e-10 
            441     4.04292e-10 
            451      1.20184e-9 
            460      3.07134e-9 
            470      8.33836e-9 
            480      2.16767e-8 
            490      5.41197e-8 
            500      1.29988e-7 
            506      3.07124e-7 
            512      5.68147e-7 
            520      1.07191e-6 
            530      2.32328e-6 
            540      4.80705e-6 
            550      9.81576e-6 
            560      1.93662e-5 
            570      3.72532e-5 
            580       6.9294e-5 
            590     0.000128419 
            600     0.000230736 
            610      0.00040608 
            620      0.00070086 
            630      0.00118742 
            640      0.00197673 
            650      0.00323559 
            658      0.00474362 
            665      0.00657595 
            675       0.0103537 
            685       0.0160704 
            695       0.0246055 
            705       0.0371867 
            716       0.0577327 
            726       0.0850342 
            735        0.119332 
            745        0.172073 
            755        0.245538 
            765        0.346838 
            775        0.485206 
            785        0.672424 
            795        0.923606 
            805         1.25763 
            815         1.69822 
            825         2.27502 
            835         3.02405 
            845         3.99087 
            855         5.22868 
            865         6.80376 
            875           8.794 
            885         11.2943 
            895         14.4159 
            905          18.289 
            915         57.9611 
            925         279.796 
            935         457.863 
            945         846.584 
            955         1612.66 
            965          1885.7 
            975         1069.88 
            985          142759 
            995          921366 
           1005          280947 
           1015         3267.98 
           1025         2110.94 
           1035         5330.78 
           1045          601373 
           1055      4.35446e+6 
           1065      7.96688e+6 
           1075      1.12671e+7 
           1085      1.26217e+7 
           1095      1.18996e+7 
           1105      1.49766e+7 
           1115      1.81779e+7 
           1125      1.64962e+7 
           1135      1.48855e+7 
           1145      1.13129e+7 
           1155      7.02217e+6 
           1165      3.75834e+6 
           1175      1.13131e+6 
           1185      7.39441e+6 
           1195         18599.2 
           1205         13344.9 
           1215         6208.45 
           1225         14937.9 
           1235         27570.1 
           1245         33107.9 
           1255          552839 
           1265       2.1577e+6 
           1275      5.35237e+6 
           1285      9.99737e+6 
           1295      1.31438e+7 
           1305      1.38348e+7 
           1315      1.97035e+7 
           1325      2.32459e+7 
           1335      2.57399e+7 
           1345      2.94674e+7 
           1355      3.01359e+7 
           1365      3.09961e+7 
           1375      3.26909e+7 
           1385      3.40882e+7 
           1395      3.47686e+7 
           1405      3.75732e+7 
           1415      3.89933e+7 
           1425      4.03069e+7 
           1435      3.92696e+7 
           1442      4.21776e+7 
           1447      4.25919e+7 
           1455      4.35271e+7 
           1465       4.3128e+7 
           1475       4.3463e+7 
           1485      4.39285e+7 
           1495      4.47553e+7 
           1505      4.54715e+7 
           1512      4.54552e+7 
           1517      4.60564e+7 
           1525       4.5082e+7 
           1535      4.47427e+7 
           1545      4.62013e+7 
           1555      4.42878e+7 
           1565      4.17794e+7 
           1575      4.34451e+7 
           1585      4.50355e+7 
           1595      4.62392e+7 
           1605      4.47859e+7 
           1615       4.4974e+7 
           1625      4.28257e+7 
           1635      4.37973e+7 
           1645      4.42423e+7 
           1655      4.12872e+7 
           1665      4.45665e+7 
           1672      4.18642e+7 
           1677      4.28808e+7 
           1685      4.42075e+7 
           1695      4.27957e+7 
           1705      4.24948e+7 
           1715      4.34096e+7 
           1725       4.2866e+7 
           1735      4.38613e+7 
           1745      4.31559e+7 
           1755      4.39608e+7 
           1765      4.22233e+7 
           1775      4.36764e+7 
           1785      4.30122e+7 
           1795      4.38123e+7 
           1805      4.29258e+7 
           1815      4.26794e+7 
           1825      4.20659e+7 
           1835      4.21412e+7 
           1845      4.11976e+7 
           1855      4.16939e+7 
           1865      4.15719e+7 
           1875      4.18497e+7 
           1885       4.1831e+7 
           1895      4.15092e+7 
           1905      4.06936e+7 
           1915      4.08655e+7 
           1925      4.11862e+7 
           1935      4.05483e+7 
           1945      4.13095e+7 
           1955      4.10684e+7 
           1967      4.09943e+7 
           1976       4.0422e+7 
           1984      4.03618e+7 
           1995      4.01877e+7 
           2005      3.95976e+7 
           2015       3.8685e+7 
           2025      3.88092e+7 
           2035      3.92365e+7 
           2045      3.90582e+7 
           2055      3.79965e+7 
           2065      3.81613e+7 
           2074      3.87294e+7 
           2078      3.88422e+7 
           2085      3.87542e+7 
           2095      3.84238e+7 
           2105      3.83852e+7 
           2115      3.80804e+7 
           2125       3.7918e+7 
           2135          3.7e+7 
           2145      3.77915e+7 
           2155      3.74067e+7 
           2165      3.66512e+7 
           2175      3.66422e+7 
           2185      3.66461e+7 
           2195      3.74014e+7 
           2205      3.65771e+7 
           2215      3.55512e+7 
           2225      3.53579e+7 
           2235      3.65913e+7 
           2245      3.58295e+7 
           2255      3.50234e+7 
           2265      3.46554e+7 
           2275      3.57286e+7 
           2285      3.57672e+7 
           2295      3.51329e+7 
           2305      3.52123e+7 
           2315      3.49551e+7 
           2325      3.50663e+7 
           2335      3.44404e+7 
           2345      3.29382e+7 
           2355      3.42927e+7 
           2365      3.30799e+7 
           2375      3.38571e+7 
           2385      3.20585e+7 
           2395       3.3474e+7 
           2405      3.31545e+7 
           2415      3.32384e+7 
           2425      3.38835e+7 
           2435      3.32467e+7 
           2445      3.35973e+7 
           2455      3.35605e+7 
           2465      3.29545e+7 
           2475      3.27355e+7 
           2485      3.32364e+7 
           2495      3.27375e+7 
           2505      3.34739e+7 
           2513      3.28286e+7 
           2518      3.28588e+7 
           2525      3.20629e+7 
           2535      3.17207e+7 
           2545      3.19489e+7 
           2555      3.27756e+7 
           2565      3.24724e+7 
           2575      3.29553e+7 
           2585      3.30944e+7 
           2595       3.2804e+7 
           2605      3.24122e+7 
           2615      3.22342e+7 
           2625        3.227e+7 
           2635      3.24542e+7 
           2645      3.36045e+7 
           2655      3.34438e+7 
           2665       3.2788e+7 
           2675      3.30361e+7 
           2685      3.32357e+7 
           2695      3.29039e+7 
           2705      3.29175e+7 
           2715      3.24485e+7 
           2725      3.24503e+7 
           2735      3.27634e+7 
           2745      3.13992e+7 
           2755      3.14839e+7 
           2765      3.19952e+7 
           2775       3.2651e+7 
           2785      3.25379e+7 
           2795      3.00264e+7 
           2805      3.12683e+7 
           2815      3.27219e+7 
           2825      3.25827e+7 
           2835      3.21915e+7 
           2845      3.20629e+7 
           2855      3.16907e+7 
           2865       3.1843e+7 
           2875      3.18794e+7 
           2885      3.20241e+7 
           2895      3.21691e+7 
           2910      3.23281e+7 
           2930      3.18611e+7 
           2950      3.17764e+7 
           2970      3.18522e+7 
           2990      3.17284e+7 
           3010      3.18616e+7 
           3030      3.18055e+7 
           3050      3.16688e+7 
           3070      3.13738e+7 
           3090      3.14705e+7 
           3110      3.13521e+7 
           3130      3.12023e+7 
           3150      3.11115e+7 
           3170      3.10519e+7 
           3190       3.0753e+7 
           3210      3.08207e+7 
           3230      3.05452e+7 
           3250      3.06199e+7 
           3270      3.06625e+7 
           3290      3.06219e+7 
           3310      3.05538e+7 
           3330       3.0337e+7 
           3350      3.01169e+7 
           3370      3.00938e+7 
           3390      3.00135e+7 
           3410      3.00798e+7 
           3430      2.99772e+7 
           3450      2.98965e+7 
           3470      2.97791e+7 
           3490      2.97001e+7 
           3510      2.96247e+7 
           3530       2.9546e+7 
           3550      2.94523e+7 
           3570      2.93423e+7 
           3590      2.92454e+7 
           3610      2.91506e+7 
           3630      2.90476e+7 
           3640      2.89906e+7 
           3650      2.92731e+7 
           3670      2.88206e+7 
           3690      2.96379e+7 
           3710      3.78752e+7 
           3730      5.08005e+7 
           3750      7.82794e+7 
           3770      7.98392e+7 
           3790      9.10895e+7 
           3810      1.00833e+8 
           3830      8.24912e+7 
           3850      1.06018e+8 
           3870      1.10079e+8 
           3890      7.52508e+7 
           3910      1.07508e+8 
           3930      1.06075e+8 
           3950      1.05231e+8 
           3970      7.11251e+7 
           3990      1.01922e+8 
           4010      1.02562e+8 
           4030      1.01266e+8 
           4050       1.0022e+8 
           4070      9.85052e+7 
           4090      8.92475e+7 
           4110       7.0662e+7 
           4130      9.44579e+7 
           4150      9.40265e+7 
           4170      9.29101e+7 
           4190      9.18106e+7 
           4210      9.06875e+7 
           4230      8.95266e+7 
           4250      8.84399e+7 
           4270      8.73634e+7 
           4290      8.61965e+7 
           4310      8.46075e+7 
           4330       7.3783e+7 
           4350      6.33447e+7 
           4370      8.15485e+7 
           4390      8.09616e+7 
           4410      8.01592e+7 
           4430      7.92489e+7 
           4450       7.8287e+7 
           4470      7.72223e+7 
           4490      7.60949e+7 
           4510      7.54844e+7 
           4530      7.45899e+7 
           4550      7.36226e+7 
           4570      7.28443e+7 
           4590      7.19892e+7 
           4610      7.12081e+7 
           4630      7.03342e+7 
           4650      6.95545e+7 
           4670      6.87441e+7 
           4690      6.79466e+7 
           4710      6.71093e+7 
           4730      6.63881e+7 
           4750      6.56265e+7 
           4770      6.48703e+7 
           4790      6.41261e+7 
           4810      6.32993e+7 
           4830      6.22093e+7 
           4850      5.52574e+7 
           4870      4.52436e+7 
           4890      5.98555e+7 
           4910      5.97361e+7 
           4930      5.91532e+7 
           4950      5.85547e+7 
           4970      5.79059e+7 
           4990      5.72596e+7 
           5010      5.65662e+7 
           5030      5.59952e+7 
           5050      5.53413e+7 
           5070      5.47722e+7 
           5090       5.4171e+7 
           5110      5.35776e+7 
           5130      5.29917e+7 
           5150      5.24147e+7 
           5170      5.17675e+7 
           5190      5.12421e+7 
           5210      5.07314e+7 
           5230      5.01651e+7 
           5250      4.96483e+7 
           5270      4.90999e+7 
           5290      4.85921e+7 
           5310      4.80624e+7 
           5330      4.75604e+7 
           5350      4.70647e+7 
           5370      4.65658e+7 
           5390      4.60757e+7 
           5410      4.55915e+7 
           5430      4.51131e+7 
           5450      4.46457e+7 
           5470        4.418e+7 
           5490      4.37225e+7 
           5510      4.32691e+7 
           5530      4.28188e+7 
           5550      4.23823e+7 
           5570      4.19461e+7 
           5590      4.15163e+7 
           5610      4.10927e+7 
           5630      4.06741e+7 
           5650      4.02604e+7 
           5670      3.98527e+7 
           5690      3.94508e+7 
           5710      3.90525e+7 
           5730       3.8661e+7 
           5750      3.82729e+7 
           5770      3.78903e+7 
           5790      3.75133e+7 
           5810      3.71405e+7 
           5830      3.67719e+7 
           5850      3.64086e+7 
           5870      3.60112e+7 
           5890      3.56899e+7 
           5910      3.53442e+7 
           5930       3.4998e+7 
           5950      3.46556e+7 
           5970      3.43191e+7 
           5990      3.39843e+7 
           6010      3.36573e+7 
           6030      3.33319e+7 
           6050       3.3011e+7 
           6070      3.26946e+7 
           6090      3.23817e+7 
           6110      3.20722e+7 
           6130       3.1767e+7 
           6150      3.14591e+7 
           6170      3.11674e+7 
           6190      3.08729e+7 
           6210      3.05816e+7 
           6230      3.02943e+7 
           6250      3.00072e+7 
           6270      2.97289e+7 
           6290      2.94516e+7 
           6310      2.91772e+7 
           6330      2.89066e+7 
           6350      2.86229e+7 
           6370      2.83664e+7 
           6390      2.81126e+7 
           6410       2.7854e+7 
           6430      2.75989e+7 
           6450      2.73429e+7 
           6470      2.70968e+7 
           6490      2.68325e+7 
           6510      2.65141e+7 
           6530      2.61037e+7 
           6550      2.40566e+7 
           6570      1.93606e+7 
           6590      2.51309e+7 
           6610       2.5298e+7 
           6630      2.51585e+7 
           6650      2.49759e+7 
           6670      2.47509e+7 
           6690      2.45316e+7 
           6710       2.4317e+7 
           6730       2.4102e+7 
           6750      2.38899e+7 
           6770      2.36799e+7 
           6790       2.3472e+7 
           6810      2.32661e+7 
           6830       2.3063e+7 
           6850      2.28619e+7 
           6870      2.26635e+7 
           6890      2.24671e+7 
           6910      2.22725e+7 
           6930      2.20806e+7 
           6950      2.18905e+7 
           6970      2.17023e+7 
           6990      2.15166e+7 
           7010      2.13319e+7 
           7030      2.11504e+7 
           7050        2.097e+7 
           7070      2.07904e+7 
           7090      2.06164e+7 
           7110      2.04417e+7 
           7130      2.02693e+7 
           7150      2.00986e+7 
           7170      1.99302e+7 
           7190      1.97634e+7 
           7210      1.95981e+7 
           7230      1.94343e+7 
           7250      1.92728e+7 
           7270      1.91127e+7 
           7290      1.89541e+7 
           7310      1.87977e+7 
           7330      1.86426e+7 
           7350       1.8489e+7 
           7370      1.83375e+7 
           7390      1.81873e+7 
           7410      1.80385e+7 
           7430      1.78917e+7 
           7450      1.77462e+7 
           7470      1.76014e+7 
           7490      1.74591e+7 
           7510      1.73182e+7 
           7530      1.71785e+7 
           7550      1.70406e+7 
           7570      1.69034e+7 
           7590       1.6768e+7 
           7610      1.66338e+7 
           7630      1.65014e+7 
           7650      1.63702e+7 
           7670      1.62401e+7 
           7690      1.61111e+7 
           7710      1.59833e+7 
           7730      1.58578e+7 
           7750      1.57328e+7 
           7770       1.5562e+7 
           7790      1.54866e+7 
           7810      1.53654e+7 
           7830      1.52452e+7 
           7850      1.51266e+7 
           7870      1.50073e+7 
           7890      1.48883e+7 
           7910       1.4777e+7 
           7930       1.4663e+7 
           7950      1.45494e+7 
           7970      1.44379e+7 
           7990      1.43238e+7 
           8010      1.42172e+7 
           8030      1.41085e+7 
           8050      1.40007e+7 
           8070      1.38937e+7 
           8090      1.37883e+7 
           8110      1.36837e+7 
           8130        1.358e+7 
           8150      1.34771e+7 
           8170      1.33757e+7 
           8190      1.32739e+7 
           8210      1.32535e+7 
           8230      1.31619e+7 
           8250      1.30732e+7 
           8270      1.29853e+7 
           8290      1.28876e+7 
           8310      1.27711e+7 
           8330      1.26349e+7 
           8350      1.25313e+7 
           8370      1.22811e+7 
           8390      1.22162e+7 
           8410      1.20735e+7 
           8430      1.22728e+7 
           8450      1.22396e+7 
           8470       1.1578e+7 
           8490      1.27282e+7 
           8510      1.14262e+7 
           8530      1.29415e+7 
           8550      1.10613e+7 
           8570      1.31882e+7 
           8590      1.21676e+7 
           8610      1.17828e+7 
           8630       1.3528e+7 
           8650      1.31992e+7 
           8670      1.06004e+7 
           8690      1.34631e+7 
           8710      1.36109e+7 
           8730      1.32876e+7 
           8750       1.0345e+7 
           8770      1.27449e+7 
           8790      1.32199e+7 
           8810       1.3158e+7 
           8830      1.30067e+7 
           8850      1.21567e+7 
           8870      1.00693e+7 
           8890      1.25781e+7 
           8910      1.26684e+7 
           8930      1.26032e+7 
           8950      1.25182e+7 
           8970      1.23964e+7 
           8990      1.21665e+7 
           9010      9.92452e+6 
           9030      1.09968e+7 
           9050      1.19685e+7 
           9070      1.19561e+7 
           9090      1.18903e+7 
           9110      1.18127e+7 
           9130       1.1728e+7 
           9150      1.16426e+7 
           9170      1.15444e+7 
           9190      1.14144e+7 
