# Kurucz ODFNEW /NOVER (2003)
# teff = 36000 K (value for the effective temperature for the model. Temperatures are given in K)
# logg = 4.5 log(cm/s2) (value for Log(G) for the model.)
# meta = 0.5  (value for the Metallicity for the model.)
# lh = 1.25  (l/Hp where l is the  mixing length of the convective element and Hp is the pressure scale height)
# vtur = 2 km/s (Microturbulence velocity)
# alpha = 0.4  (Alpha)
#
# column 1: WAVELENGTH (ANGSTROM), Wavelength in Angstrom
# column 2: FLUX (ERG/CM2/S/A), Flux in erg/cm2/s/A
          147.2      0.00027436 
            151     0.000679455 
          155.2      0.00172935 
          158.8      0.00371001 
            162      0.00705399 
            166       0.0154965 
          170.3       0.0341006 
          173.4       0.0595662 
          176.8        0.109267 
          180.2        0.191137 
          181.7        0.250526 
          186.1        0.497208 
            191         1.03129 
          193.9         1.55813 
          198.4         2.93171 
          201.8         4.55999 
            205          6.8299 
          210.5         13.3151 
          216.2         25.2212 
          219.8         38.0683 
            223         53.5485 
          226.8         90.2307 
            230         22558.2 
            234         46660.5 
            240         67268.4 
          246.5          101427 
          252.4          169578 
          256.8          241960 
            260          369005 
            264          682800 
          268.5      1.08286e+6 
          273.5      1.38474e+6 
          278.5      1.50653e+6 
            284      3.14271e+6 
            290      4.32433e+6 
            296      5.18596e+6 
            301      1.07246e+7 
            308      2.11303e+7 
            318      4.18775e+7 
            328      5.77749e+7 
            338      1.04784e+8 
            348      1.54249e+8 
            357      2.99583e+8 
            366      7.24627e+8 
            375        8.046e+8 
            385      1.18396e+9 
            395      3.28885e+9 
            405      5.39812e+9 
            414       6.4184e+9 
            422      7.02607e+9 
            430      6.62567e+9 
            441      7.80323e+9 
            451      8.11113e+9 
            460      6.47437e+9 
            470      7.62822e+9 
            480      9.14305e+9 
            490      6.32799e+9 
            500      9.44144e+9 
            506      7.23513e+9 
            512     3.52192e+10 
            520      3.2394e+10 
            530     2.97132e+10 
            540      2.7256e+10 
            550     2.44644e+10 
            560     3.60272e+10 
            570     4.72912e+10 
            580     4.46498e+10 
            590     4.49651e+10 
            600     2.54502e+10 
            610     3.30572e+10 
            620     4.73587e+10 
            630     4.48212e+10 
            640     4.85416e+10 
            650       4.294e+10 
            658     2.59217e+10 
            665     4.07146e+10 
            675     5.12964e+10 
            685     3.50905e+10 
            695     4.92071e+10 
            705     2.98708e+10 
            716     5.34021e+10 
            726      5.2648e+10 
            735     5.23945e+10 
            745     4.29337e+10 
            755     4.35447e+10 
            765     4.32931e+10 
            775      4.7406e+10 
            785     4.17351e+10 
            795     4.73838e+10 
            805     4.35786e+10 
            815     4.32871e+10 
            825     4.69544e+10 
            835     3.22867e+10 
            845     4.35688e+10 
            855      4.1462e+10 
            865     4.41099e+10 
            875     4.39986e+10 
            885     4.38348e+10 
            895     4.33507e+10 
            905     4.13562e+10 
            915     3.65986e+10 
            925     7.14382e+10 
            935     1.04319e+11 
            945     1.22469e+11 
            955     1.36862e+11 
            965     1.50328e+11 
            975      7.7258e+10 
            985     1.19757e+11 
            995     1.03552e+11 
           1005     1.03792e+11 
           1015     1.12804e+11 
           1025     9.83432e+10 
           1035     1.13382e+11 
           1045     1.27578e+11 
           1055     1.20337e+11 
           1065     1.02859e+11 
           1075     1.07161e+11 
           1085     9.74157e+10 
           1095     1.04241e+11 
           1105     9.92373e+10 
           1115     9.75107e+10 
           1125     7.69696e+10 
           1135     9.24639e+10 
           1145     9.14765e+10 
           1155     8.18707e+10 
           1165     8.04158e+10 
           1175     5.66175e+10 
           1185     7.40326e+10 
           1195     6.95961e+10 
           1205     6.78283e+10 
           1215     5.67305e+10 
           1225     6.50642e+10 
           1235     6.86855e+10 
           1245     6.60919e+10 
           1255     6.60594e+10 
           1265     6.77264e+10 
           1275     7.07539e+10 
           1285     7.06152e+10 
           1295     6.68219e+10 
           1305     6.56336e+10 
           1315     6.89266e+10 
           1325     6.69395e+10 
           1335     6.46997e+10 
           1345     6.37349e+10 
           1355     6.21144e+10 
           1365      5.9491e+10 
           1375     5.68335e+10 
           1385     5.52341e+10 
           1395     4.30988e+10 
           1405     4.35199e+10 
           1415     5.41511e+10 
           1425     4.78856e+10 
           1435     5.16405e+10 
           1442      4.9729e+10 
           1447     4.97602e+10 
           1455     4.70986e+10 
           1465     4.60822e+10 
           1475     4.67668e+10 
           1485     4.68361e+10 
           1495     4.51463e+10 
           1505     4.39346e+10 
           1512     4.36507e+10 
           1517     4.37825e+10 
           1525     4.19766e+10 
           1535     3.65325e+10 
           1545     2.85961e+10 
           1555     2.93762e+10 
           1565     3.42855e+10 
           1575     3.59974e+10 
           1585     3.55612e+10 
           1595     3.61399e+10 
           1605      3.3996e+10 
           1615     3.23428e+10 
           1625     3.32028e+10 
           1635     3.33377e+10 
           1645     3.33053e+10 
           1655     3.31227e+10 
           1665     3.20276e+10 
           1672     2.96065e+10 
           1677     3.52171e+10 
           1685     3.35275e+10 
           1695      3.2459e+10 
           1705     3.19485e+10 
           1715     3.01207e+10 
           1725     2.89115e+10 
           1735     3.00372e+10 
           1745     2.99303e+10 
           1755     2.93504e+10 
           1765     2.87297e+10 
           1775     2.75998e+10 
           1785     2.81699e+10 
           1795     2.72548e+10 
           1805     2.70068e+10 
           1815     2.64447e+10 
           1825     2.57644e+10 
           1835     2.57584e+10 
           1845     2.49963e+10 
           1855     2.52684e+10 
           1865     2.52148e+10 
           1875     2.42328e+10 
           1885     2.33975e+10 
           1895     2.33569e+10 
           1905     2.35659e+10 
           1915     2.29814e+10 
           1925     2.14837e+10 
           1935     2.27604e+10 
           1945     2.27799e+10 
           1955     2.07377e+10 
           1967     2.15926e+10 
           1976     2.17475e+10 
           1984     2.13457e+10 
           1995     2.07948e+10 
           2005      2.1123e+10 
           2015     2.09064e+10 
           2025     2.07206e+10 
           2035     2.00181e+10 
           2045     1.96255e+10 
           2055     1.49611e+10 
           2065     1.43192e+10 
           2074     1.48705e+10 
           2078     1.49223e+10 
           2085     1.60104e+10 
           2095     1.73283e+10 
           2105     1.78314e+10 
           2115     1.80742e+10 
           2125     1.75124e+10 
           2135      1.7509e+10 
           2145     1.72143e+10 
           2155      1.7119e+10 
           2165     1.60836e+10 
           2175     1.67021e+10 
           2185     1.60233e+10 
           2195     1.65063e+10 
           2205     1.62081e+10 
           2215     1.53649e+10 
           2225     1.57004e+10 
           2235     1.54667e+10 
           2245     1.51708e+10 
           2255     1.45683e+10 
           2265     1.47557e+10 
           2275     1.46772e+10 
           2285     1.39898e+10 
           2295     1.28446e+10 
           2305     1.34283e+10 
           2315      1.3359e+10 
           2325     1.34408e+10 
           2335     1.32734e+10 
           2345     1.30029e+10 
           2355     1.26454e+10 
           2365      1.2373e+10 
           2375     1.20186e+10 
           2385     1.13895e+10 
           2395     1.15974e+10 
           2405     1.16327e+10 
           2415     1.14675e+10 
           2425     1.14493e+10 
           2435     1.12513e+10 
           2445     1.11147e+10 
           2455     1.09243e+10 
           2465     1.08166e+10 
           2475     1.06906e+10 
           2485     1.01064e+10 
           2495       6.8737e+9 
           2505      9.44912e+9 
           2513      9.40217e+9 
           2518      9.55144e+9 
           2525      9.90273e+9 
           2535      9.89393e+9 
           2545      9.68604e+9 
           2555      9.59133e+9 
           2565      9.42564e+9 
           2575      9.36167e+9 
           2585       9.2516e+9 
           2595      8.97512e+9 
           2605      9.02182e+9 
           2615       8.7706e+9 
           2625      8.77115e+9 
           2635      8.70253e+9 
           2645      8.51408e+9 
           2655      8.46502e+9 
           2665      8.27378e+9 
           2675      7.98249e+9 
           2685      8.07155e+9 
           2695      7.93292e+9 
           2705       7.9135e+9 
           2715      7.77661e+9 
           2725      7.67702e+9 
           2735      7.44069e+9 
           2745      7.55556e+9 
           2755      7.41693e+9 
           2765      7.32593e+9 
           2775      7.27567e+9 
           2785        7.088e+9 
           2795      6.85074e+9 
           2805      6.94467e+9 
           2815      6.90065e+9 
           2825      6.81081e+9 
           2835      6.70191e+9 
           2845       6.6842e+9 
           2855      6.56952e+9 
           2865       6.4347e+9 
           2875      6.35902e+9 
           2885      6.31411e+9 
           2895      6.22292e+9 
           2910      6.05038e+9 
           2930      5.99922e+9 
           2950      5.84542e+9 
           2970      5.68667e+9 
           2990      5.48653e+9 
           3010      5.30243e+9 
           3030      5.14074e+9 
           3050      5.11404e+9 
           3070      5.00366e+9 
           3090      4.88267e+9 
           3110      4.83644e+9 
           3130      4.68984e+9 
           3150        4.632e+9 
           3170      4.50888e+9 
           3190      4.43512e+9 
           3210      4.26266e+9 
           3230      4.21617e+9 
           3250      4.15517e+9 
           3270       3.9988e+9 
           3290      3.95207e+9 
           3310      3.85254e+9 
           3330      3.75748e+9 
           3350      3.64057e+9 
           3370      3.58488e+9 
           3390      3.54271e+9 
           3410      3.46369e+9 
           3430       3.4263e+9 
           3450      3.30566e+9 
           3470      3.27017e+9 
           3490      3.21238e+9 
           3510      3.14958e+9 
           3530      3.08618e+9 
           3550      3.01981e+9 
           3570      2.96124e+9 
           3590      2.90005e+9 
           3610      2.83545e+9 
           3630      2.78053e+9 
           3640      2.72376e+9 
           3650      2.51423e+9 
           3670      2.47347e+9 
           3690      2.42399e+9 
           3710      2.34277e+9 
           3730      2.33859e+9 
           3750      2.34388e+9 
           3770      2.31333e+9 
           3790      2.38504e+9 
           3810       2.4132e+9 
           3830      2.22867e+9 
           3850       2.3841e+9 
           3870      2.28975e+9 
           3890      2.08328e+9 
           3910      2.30994e+9 
           3930      2.23202e+9 
           3950      2.16114e+9 
           3970      1.90677e+9 
           3990      2.13511e+9 
           4010      2.09278e+9 
           4030      2.01674e+9 
           4050      2.02606e+9 
           4070      1.93437e+9 
           4090      1.82995e+9 
           4110      1.71039e+9 
           4130      1.84898e+9 
           4150      1.82619e+9 
           4170      1.82256e+9 
           4190      1.78229e+9 
           4210      1.73589e+9 
           4230       1.7303e+9 
           4250      1.67807e+9 
           4270      1.64751e+9 
           4290      1.60774e+9 
           4310      1.56467e+9 
           4330       1.4894e+9 
           4350      1.40015e+9 
           4370      1.50144e+9 
           4390      1.46924e+9 
           4410      1.44299e+9 
           4430       1.4374e+9 
           4450      1.40824e+9 
           4470      1.37536e+9 
           4490      1.37193e+9 
           4510      1.33184e+9 
           4530      1.32072e+9 
           4550       1.2838e+9 
           4570      1.28641e+9 
           4590      1.25804e+9 
           4610      1.23667e+9 
           4630      1.20752e+9 
           4650      1.13966e+9 
           4670      1.17201e+9 
           4690      1.14234e+9 
           4710      1.13774e+9 
           4730      1.14856e+9 
           4750      1.12878e+9 
           4770      1.11519e+9 
           4790      1.09721e+9 
           4810      1.07682e+9 
           4830      1.05646e+9 
           4850      1.00982e+9 
           4870      9.25141e+8 
           4890      1.00478e+9 
           4910      9.91528e+8 
           4930      9.70107e+8 
           4950      9.59716e+8 
           4970      9.55439e+8 
           4990      9.41366e+8 
           5010       9.0892e+8 
           5030      9.03761e+8 
           5050      8.92983e+8 
           5070      8.85966e+8 
           5090      8.72139e+8 
           5110      8.58834e+8 
           5130      8.45479e+8 
           5150        8.334e+8 
           5170      8.19748e+8 
           5190      8.09232e+8 
           5210      7.98091e+8 
           5230      7.87522e+8 
           5250      7.72307e+8 
           5270      7.59905e+8 
           5290      7.54304e+8 
           5310      7.42741e+8 
           5330      7.32522e+8 
           5350      7.22791e+8 
           5370      7.12257e+8 
           5390      7.01301e+8 
           5410      6.80229e+8 
           5430      6.83086e+8 
           5450      6.73553e+8 
           5470      6.63789e+8 
           5490      6.54787e+8 
           5510      6.44669e+8 
           5530      6.36849e+8 
           5550      6.28757e+8 
           5570      6.19393e+8 
           5590      6.08108e+8 
           5610      6.03637e+8 
           5630      5.95433e+8 
           5650      5.87225e+8 
           5670      5.78613e+8 
           5690      5.60485e+8 
           5710      5.36252e+8 
           5730      5.29784e+8 
           5750      5.22026e+8 
           5770      5.16716e+8 
           5790      5.09938e+8 
           5810      5.00999e+8 
           5830      4.96248e+8 
           5850      4.93257e+8 
           5870      4.80466e+8 
           5890      4.83279e+8 
           5910      4.79507e+8 
           5930      4.75549e+8 
           5950      4.72038e+8 
           5970      4.69441e+8 
           5990      4.65577e+8 
           6010      4.61784e+8 
           6030      4.56084e+8 
           6050      4.51427e+8 
           6070      4.46136e+8 
           6090      4.41037e+8 
           6110      4.34733e+8 
           6130      4.29575e+8 
           6150      4.23439e+8 
           6170      4.17927e+8 
           6190      4.14513e+8 
           6210      4.09757e+8 
           6230      4.03481e+8 
           6250      3.98607e+8 
           6270      3.94717e+8 
           6290      3.89859e+8 
           6310      3.83191e+8 
           6330      3.80576e+8 
           6350      3.75435e+8 
           6370      3.71726e+8 
           6390      3.67262e+8 
           6410      3.61362e+8 
           6430      3.58698e+8 
           6450      3.53824e+8 
           6470      3.49021e+8 
           6490      3.44708e+8 
           6510      3.39207e+8 
           6530      3.34499e+8 
           6550      3.26787e+8 
           6570       2.9709e+8 
           6590      3.24055e+8 
           6610      3.21951e+8 
           6630      3.18768e+8 
           6650      3.14784e+8 
           6670      3.07429e+8 
           6690      3.02714e+8 
           6710      3.02887e+8 
           6730      2.99118e+8 
           6750      2.96604e+8 
           6770      2.93926e+8 
           6790      2.90505e+8 
           6810      2.87615e+8 
           6830       2.8427e+8 
           6850      2.80999e+8 
           6870      2.77545e+8 
           6890      2.71793e+8 
           6910      2.70467e+8 
           6930      2.69026e+8 
           6950      2.65951e+8 
           6970      2.63116e+8 
           6990      2.60055e+8 
           7010       2.5658e+8 
           7030      2.53499e+8 
           7050      2.50872e+8 
           7070      2.45739e+8 
           7090      2.46281e+8 
           7110      2.43243e+8 
           7130      2.40724e+8 
           7150      2.38473e+8 
           7170      2.34338e+8 
           7190       2.3246e+8 
           7210      2.30904e+8 
           7230      2.27438e+8 
           7250       2.2564e+8 
           7270      2.23623e+8 
           7290      2.20051e+8 
           7310      2.18489e+8 
           7330      2.16591e+8 
           7350      2.14305e+8 
           7370      2.11895e+8 
           7390      2.09894e+8 
           7410      2.07514e+8 
           7430      2.05579e+8 
           7450      2.03004e+8 
           7470      2.00744e+8 
           7490      1.97987e+8 
           7510      1.96934e+8 
           7530      1.94933e+8 
           7550      1.93069e+8 
           7570      1.91011e+8 
           7590      1.86847e+8 
           7610      1.86549e+8 
           7630      1.85087e+8 
           7650      1.83187e+8 
           7670      1.81593e+8 
           7690      1.78783e+8 
           7710      1.77534e+8 
           7730      1.74945e+8 
           7750      1.74194e+8 
           7770       1.7283e+8 
           7790      1.70982e+8 
           7810      1.69428e+8 
           7830      1.67728e+8 
           7850      1.65438e+8 
           7870      1.63801e+8 
           7890      1.62445e+8 
           7910      1.61221e+8 
           7930      1.59684e+8 
           7950      1.58268e+8 
           7970      1.56324e+8 
           7990      1.55076e+8 
           8010      1.53645e+8 
           8030      1.51952e+8 
           8050       1.5075e+8 
           8070      1.49321e+8 
           8090      1.47824e+8 
           8110      1.45801e+8 
           8130      1.45073e+8 
           8150      1.43591e+8 
           8170      1.42121e+8 
           8190      1.40142e+8 
           8210      1.35843e+8 
           8230      1.33805e+8 
           8250      1.33278e+8 
           8270      1.31665e+8 
           8290      1.30992e+8 
           8310      1.30008e+8 
           8330      1.28255e+8 
           8350       1.2688e+8 
           8370      1.26134e+8 
           8390      1.25389e+8 
           8410      1.24143e+8 
           8430        1.232e+8 
           8450      1.21837e+8 
           8470      1.21078e+8 
           8490      1.19975e+8 
           8510      1.18372e+8 
           8530      1.18009e+8 
           8550      1.16782e+8 
           8570      1.16274e+8 
