# Kurucz ODFNEW /NOVER (2003)
# teff = 30000 K (value for the effective temperature for the model. Temperatures are given in K)
# logg = 4 log(cm/s2) (value for Log(G) for the model.)
# meta = 0.2  (value for the Metallicity for the model.)
# lh = 1.25  (l/Hp where l is the  mixing length of the convective element and Hp is the pressure scale height)
# vtur = 2 km/s (Microturbulence velocity)
# alpha = 0.4  (Alpha)
#
# column 1: WAVELENGTH (ANGSTROM), Wavelength in Angstrom
# column 2: FLUX (ERG/CM2/S/A), Flux in erg/cm2/s/A
          147.2      4.03195e-9 
            151      1.27957e-8 
          155.2      4.30797e-8 
          158.8      1.16233e-7 
            162      2.71379e-7 
            166      7.50629e-7 
          170.3      2.11915e-6 
          173.4      4.37653e-6 
          176.8      9.38394e-6 
          180.2      1.95662e-5 
          181.7      2.68738e-5 
          186.1      6.60232e-5 
            191     0.000171734 
          193.9     0.000295564 
          198.4     0.000666211 
          201.8      0.00120244 
            205      0.00205975 
          210.5      0.00501325 
          216.2       0.0119936 
          219.8       0.0204296 
            223       0.0322791 
          226.8       0.0577447 
            230         5.71233 
            234          12.151 
            240         22.7797 
          246.5         44.6392 
          252.4         81.2881 
          256.8         120.012 
            260         190.137 
            264         272.304 
          268.5         426.435 
          273.5         651.047 
          278.5         937.668 
            284          2116.3 
            290         3310.02 
            296          4921.1 
            301          6792.7 
            308         17281.3 
            318         36633.9 
            328         60408.2 
            338          111201 
            348          185173 
            357          693400 
            366      1.63611e+6 
            375      2.14633e+6 
            385      3.46751e+6 
            395      8.86718e+6 
            405        1.155e+7 
            414      1.88272e+7 
            422      2.21214e+7 
            430      2.75283e+7 
            441       3.5726e+7 
            451      4.25032e+7 
            460      4.73529e+7 
            470      6.03978e+7 
            480      7.35375e+7 
            490      8.64987e+7 
            500      1.06872e+8 
            506      2.01684e+8 
            512      1.82312e+9 
            520      1.73792e+9 
            530      1.63889e+9 
            540      1.60575e+9 
            550      2.07195e+9 
            560      2.69104e+9 
            570      2.87179e+9 
            580      2.55782e+9 
            590      2.90594e+9 
            600      2.20554e+9 
            610      3.01434e+9 
            620      3.52816e+9 
            630      3.45036e+9 
            640       3.1311e+9 
            650       2.8413e+9 
            658      2.54309e+9 
            665       3.2867e+9 
            675      3.73344e+9 
            685      3.01994e+9 
            695      4.29083e+9 
            705      3.21909e+9 
            716      4.72301e+9 
            726      4.50809e+9 
            735      4.66392e+9 
            745      4.55367e+9 
            755      4.62478e+9 
            765      4.96783e+9 
            775      5.25066e+9 
            785      5.47556e+9 
            795      5.45664e+9 
            805      5.23866e+9 
            815      5.18673e+9 
            825      5.68118e+9 
            835      4.20569e+9 
            845      5.44972e+9 
            855      5.41008e+9 
            865      5.64219e+9 
            875      5.75606e+9 
            885      5.99564e+9 
            895      6.09756e+9 
            905      5.89409e+9 
            915      7.26618e+9 
            925       2.975e+10 
            935     4.87338e+10 
            945     6.34938e+10 
            955     6.86025e+10 
            965     7.52953e+10 
            975     2.32919e+10 
            985     5.67953e+10 
            995     5.36236e+10 
           1005     5.76979e+10 
           1015     6.19713e+10 
           1025     4.87556e+10 
           1035     5.75069e+10 
           1045     7.10422e+10 
           1055     6.61614e+10 
           1065     5.34757e+10 
           1075     5.81643e+10 
           1085     5.42553e+10 
           1095     5.82992e+10 
           1105     5.46015e+10 
           1115     5.28992e+10 
           1125      3.7184e+10 
           1135     5.12824e+10 
           1145     4.86377e+10 
           1155     4.65142e+10 
           1165     4.63714e+10 
           1175     2.73551e+10 
           1185     4.19809e+10 
           1195     4.03262e+10 
           1205     3.54125e+10 
           1215     3.04987e+10 
           1225     3.82397e+10 
           1235     4.13279e+10 
           1245     3.93202e+10 
           1255     3.93299e+10 
           1265     4.03256e+10 
           1275     4.18484e+10 
           1285     4.16787e+10 
           1295     3.51474e+10 
           1305     3.66327e+10 
           1315     4.08989e+10 
           1325     3.89385e+10 
           1335     3.77675e+10 
           1345     3.72955e+10 
           1355     3.69974e+10 
           1365     3.48802e+10 
           1375       3.346e+10 
           1385     3.14585e+10 
           1395     1.89019e+10 
           1405     2.18573e+10 
           1415     2.99111e+10 
           1425     2.74965e+10 
           1435     2.94545e+10 
           1442     2.95225e+10 
           1447     2.92757e+10 
           1455     2.77374e+10 
           1465     2.64087e+10 
           1475     2.70717e+10 
           1485     2.68074e+10 
           1495     2.59763e+10 
           1505     2.43283e+10 
           1512     2.32598e+10 
           1517     2.36994e+10 
           1525     2.31906e+10 
           1535     1.96741e+10 
           1545     1.72549e+10 
           1555     1.70633e+10 
           1565     1.92593e+10 
           1575     2.05251e+10 
           1585     2.04663e+10 
           1595     2.04593e+10 
           1605     1.97562e+10 
           1615     1.87973e+10 
           1625     1.90817e+10 
           1635     1.96494e+10 
           1645     1.97691e+10 
           1655     1.95034e+10 
           1665     1.92739e+10 
           1672     1.78124e+10 
           1677     2.10084e+10 
           1685      1.9866e+10 
           1695     1.89373e+10 
           1705     1.86886e+10 
           1715     1.76861e+10 
           1725     1.69664e+10 
           1735     1.76048e+10 
           1745     1.74544e+10 
           1755     1.72915e+10 
           1765     1.70997e+10 
           1775     1.62117e+10 
           1785     1.65153e+10 
           1795     1.63529e+10 
           1805     1.63988e+10 
           1815      1.5481e+10 
           1825     1.55414e+10 
           1835       1.534e+10 
           1845     1.41405e+10 
           1855     1.45731e+10 
           1865     1.46837e+10 
           1875     1.44675e+10 
           1885     1.34058e+10 
           1895     1.27894e+10 
           1905     1.34631e+10 
           1915     1.28904e+10 
           1925     1.20828e+10 
           1935     1.29402e+10 
           1945     1.32228e+10 
           1955     1.17868e+10 
           1967     1.25616e+10 
           1976     1.31228e+10 
           1984     1.23185e+10 
           1995     1.20979e+10 
           2005     1.23542e+10 
           2015     1.23302e+10 
           2025     1.24109e+10 
           2035     1.16124e+10 
           2045     1.15892e+10 
           2055     1.00101e+10 
           2065      9.78791e+9 
           2074     1.02698e+10 
           2078      9.87347e+9 
           2085     1.04373e+10 
           2095     1.04503e+10 
           2105      1.0784e+10 
           2115     1.08667e+10 
           2125     1.07597e+10 
           2135      1.0617e+10 
           2145     1.02857e+10 
           2155     1.04687e+10 
           2165     1.01367e+10 
           2175      1.0164e+10 
           2185      9.91571e+9 
           2195     1.00359e+10 
           2205      9.91176e+9 
           2215      9.64202e+9 
           2225      9.54717e+9 
           2235      9.37671e+9 
           2245      9.32326e+9 
           2255       9.0585e+9 
           2265      9.08003e+9 
           2275      8.97418e+9 
           2285      8.73057e+9 
           2295      7.66759e+9 
           2305      8.41096e+9 
           2315      8.28503e+9 
           2325      8.26409e+9 
           2335      8.10087e+9 
           2345      8.09975e+9 
           2355      7.94891e+9 
           2365      7.83469e+9 
           2375      7.64796e+9 
           2385      7.44223e+9 
           2395      7.39729e+9 
           2405      7.37824e+9 
           2415       7.2236e+9 
           2425       7.1949e+9 
           2435      7.04506e+9 
           2445      6.98944e+9 
           2455      6.91012e+9 
           2465      6.81386e+9 
           2475      6.67835e+9 
           2485      6.35811e+9 
           2495      4.27479e+9 
           2505      5.92432e+9 
           2513      6.00305e+9 
           2518       6.1052e+9 
           2525      6.26462e+9 
           2535      6.24519e+9 
           2545      6.01648e+9 
           2555      6.02892e+9 
           2565      5.92417e+9 
           2575      5.91176e+9 
           2585      5.84751e+9 
           2595      5.75777e+9 
           2605      5.72698e+9 
           2615      5.60503e+9 
           2625      5.56733e+9 
           2635      5.49911e+9 
           2645       5.4156e+9 
           2655      5.35457e+9 
           2665       5.1818e+9 
           2675      5.11002e+9 
           2685      5.14226e+9 
           2695      4.98704e+9 
           2705       4.9159e+9 
           2715      4.88266e+9 
           2725      4.84253e+9 
           2735      4.76533e+9 
           2745      4.74667e+9 
           2755      4.69511e+9 
           2765      4.61873e+9 
           2775      4.63291e+9 
           2785      4.53548e+9 
           2795      4.35682e+9 
           2805      4.41262e+9 
           2815      4.40866e+9 
           2825        4.348e+9 
           2835      4.22908e+9 
           2845       4.2532e+9 
           2855      4.16712e+9 
           2865      4.12702e+9 
           2875      4.06933e+9 
           2885      4.02763e+9 
           2895      3.97554e+9 
           2910      3.85832e+9 
           2930      3.83338e+9 
           2950      3.72002e+9 
           2970      3.64724e+9 
           2990      3.53696e+9 
           3010       3.3971e+9 
           3030      3.33611e+9 
           3050        3.307e+9 
           3070      3.26657e+9 
           3090      3.12329e+9 
           3110      3.12434e+9 
           3130      3.02506e+9 
           3150      2.98206e+9 
           3170      2.90485e+9 
           3190      2.85158e+9 
           3210      2.78983e+9 
           3230      2.71704e+9 
           3250      2.68495e+9 
           3270      2.60479e+9 
           3290        2.561e+9 
           3310      2.50473e+9 
           3330        2.441e+9 
           3350      2.39153e+9 
           3370      2.33941e+9 
           3390       2.3155e+9 
           3410      2.26638e+9 
           3430      2.23094e+9 
           3450      2.16998e+9 
           3470      2.13152e+9 
           3490      2.08632e+9 
           3510      2.04866e+9 
           3530      2.02355e+9 
           3550      1.97783e+9 
           3570      1.94053e+9 
           3590      1.89135e+9 
           3610      1.86158e+9 
           3630      1.82359e+9 
           3640      1.81006e+9 
           3650      1.76153e+9 
           3670      1.73799e+9 
           3690      1.70205e+9 
           3710      1.63256e+9 
           3730      1.58813e+9 
           3750      1.61753e+9 
           3770      1.58618e+9 
           3790      1.64279e+9 
           3810      1.67874e+9 
           3830      1.51237e+9 
           3850       1.6659e+9 
           3870      1.60425e+9 
           3890       1.4314e+9 
           3910      1.62157e+9 
           3930      1.56232e+9 
           3950      1.52466e+9 
           3970      1.31743e+9 
           3990      1.49799e+9 
           4010      1.47617e+9 
           4030      1.41901e+9 
           4050      1.42577e+9 
           4070      1.35253e+9 
           4090      1.28003e+9 
           4110      1.18074e+9 
           4130      1.29896e+9 
           4150      1.28592e+9 
           4170      1.28512e+9 
           4190      1.26232e+9 
           4210      1.24485e+9 
           4230      1.22136e+9 
           4250       1.1823e+9 
           4270      1.15381e+9 
           4290      1.12742e+9 
           4310      1.09496e+9 
           4330      1.04098e+9 
           4350      9.69353e+8 
           4370      1.05024e+9 
           4390      1.04218e+9 
           4410      1.02655e+9 
           4430      1.02196e+9 
           4450      1.00019e+9 
           4470      9.70289e+8 
           4490      9.74726e+8 
           4510      9.58081e+8 
           4530      9.49603e+8 
           4550      9.32302e+8 
           4570       9.1983e+8 
           4590      9.01425e+8 
           4610      8.79953e+8 
           4630      8.64494e+8 
           4650      8.22977e+8 
           4670      8.38399e+8 
           4690      8.28027e+8 
           4710      8.02584e+8 
           4730      8.13677e+8 
           4750      7.98174e+8 
           4770      7.95551e+8 
           4790       7.8237e+8 
           4810       7.6614e+8 
           4830      7.50248e+8 
           4850      7.17087e+8 
           4870      6.52405e+8 
           4890      7.17692e+8 
           4910      7.08763e+8 
           4930       6.8909e+8 
           4950      6.83502e+8 
           4970       6.8274e+8 
           4990      6.71983e+8 
           5010       6.4539e+8 
           5030      6.47445e+8 
           5050      6.37393e+8 
           5070      6.33649e+8 
           5090       6.2234e+8 
           5110      6.12558e+8 
           5130      6.02237e+8 
           5150      5.94486e+8 
           5170      5.85935e+8 
           5190       5.7912e+8 
           5210      5.71074e+8 
           5230      5.63464e+8 
           5250      5.54505e+8 
           5270      5.45488e+8 
           5290      5.40079e+8 
           5310       5.3205e+8 
           5330      5.25108e+8 
           5350      5.17648e+8 
           5370      5.10677e+8 
           5390       5.0233e+8 
           5410      4.94491e+8 
           5430      4.89999e+8 
           5450       4.8268e+8 
           5470      4.76123e+8 
           5490      4.69798e+8 
           5510      4.63837e+8 
           5530      4.57088e+8 
           5550      4.51733e+8 
           5570      4.45471e+8 
           5590      4.38853e+8 
           5610      4.33814e+8 
           5630      4.28242e+8 
           5650      4.21876e+8 
           5670      4.14909e+8 
           5690      4.05621e+8 
           5710      4.01085e+8 
           5730      3.96879e+8 
           5750      3.90078e+8 
           5770      3.87277e+8 
           5790      3.81931e+8 
           5810      3.76862e+8 
           5830      3.71266e+8 
           5850      3.67796e+8 
           5870        3.554e+8 
           5890      3.57008e+8 
           5910      3.53711e+8 
           5930      3.49465e+8 
           5950       3.4529e+8 
           5970      3.43043e+8 
           5990      3.37649e+8 
           6010      3.34383e+8 
           6030       3.2963e+8 
           6050      3.25838e+8 
           6070      3.22243e+8 
           6090      3.18362e+8 
           6110      3.14263e+8 
           6130      3.10612e+8 
           6150      3.05567e+8 
           6170      3.02085e+8 
           6190      2.99251e+8 
           6210       2.9592e+8 
           6230      2.92276e+8 
           6250      2.88181e+8 
           6270      2.85128e+8 
           6290      2.81861e+8 
           6310      2.77976e+8 
           6330      2.75282e+8 
           6350      2.71477e+8 
           6370      2.68902e+8 
           6390      2.65644e+8 
           6410      2.62448e+8 
           6430      2.59561e+8 
           6450      2.56423e+8 
           6470      2.52374e+8 
           6490      2.49569e+8 
           6510      2.46403e+8 
           6530      2.43128e+8 
           6550      2.36808e+8 
           6570      2.13261e+8 
           6590      2.34098e+8 
           6610      2.33201e+8 
           6630       2.3093e+8 
           6650      2.27908e+8 
           6670      2.23511e+8 
           6690       2.2099e+8 
           6710      2.20344e+8 
           6730       2.1724e+8 
           6750      2.15756e+8 
           6770      2.13538e+8 
           6790      2.09969e+8 
           6810      2.08616e+8 
           6830      2.05999e+8 
           6850      2.04099e+8 
           6870      2.01755e+8 
           6890       1.9899e+8 
           6910      1.96294e+8 
           6930      1.95429e+8 
           6950      1.93315e+8 
           6970      1.91238e+8 
           6990      1.89089e+8 
           7010      1.86908e+8 
           7030      1.84756e+8 
           7050      1.82875e+8 
           7070      1.78458e+8 
           7090      1.79146e+8 
           7110      1.76269e+8 
           7130      1.74533e+8 
           7150      1.73529e+8 
           7170      1.71595e+8 
           7190      1.69884e+8 
           7210      1.68131e+8 
           7230      1.64521e+8 
           7250      1.64066e+8 
           7270      1.62894e+8 
           7290      1.60016e+8 
           7310      1.59459e+8 
           7330      1.57805e+8 
           7350      1.56187e+8 
           7370      1.54626e+8 
           7390      1.53052e+8 
           7410      1.51472e+8 
           7430      1.49907e+8 
           7450       1.4833e+8 
           7470      1.45815e+8 
           7490      1.45024e+8 
           7510      1.43838e+8 
           7530      1.42238e+8 
           7550      1.41036e+8 
           7570      1.39601e+8 
           7590       1.3801e+8 
           7610      1.36394e+8 
           7630      1.35376e+8 
           7650       1.3398e+8 
           7670      1.32783e+8 
           7690      1.31272e+8 
           7710      1.30072e+8 
           7730      1.28511e+8 
           7750      1.27578e+8 
           7770      1.26255e+8 
           7790      1.25154e+8 
           7810       1.2389e+8 
           7830       1.2273e+8 
           7850      1.21561e+8 
           7870      1.19977e+8 
           7890      1.18728e+8 
           7910      1.17948e+8 
           7930      1.16778e+8 
           7950      1.15768e+8 
           7970      1.14547e+8 
           7990      1.13503e+8 
           8010      1.12385e+8 
           8030      1.11294e+8 
           8050      1.10346e+8 
           8070      1.09302e+8 
           8090       1.0817e+8 
           8110      1.06297e+8 
           8130      1.06242e+8 
           8150      1.05165e+8 
           8170      1.04323e+8 
           8190      1.02517e+8 
           8210      1.01616e+8 
           8230      1.00555e+8 
           8250      1.00151e+8 
           8270      9.80755e+7 
           8290      9.81401e+7 
           8310      9.74391e+7 
           8330      9.64777e+7 
           8350      9.51678e+7 
           8370      9.44823e+7 
           8390        9.392e+7 
           8410      9.29305e+7 
           8430      9.21826e+7 
           8450      9.08445e+7 
           8470      9.04475e+7 
           8490      8.95567e+7 
           8510      8.83612e+7 
           8530       8.8056e+7 
           8550      8.63665e+7 
           8570      8.71693e+7 
