# Kurucz ODFNEW /NOVER (2003)
# teff = 28000 K (value for the effective temperature for the model. Temperatures are given in K)
# logg = 5 log(cm/s2) (value for Log(G) for the model.)
# meta = 0  (value for the Metallicity for the model.)
# lh = 1.25  (l/Hp where l is the  mixing length of the convective element and Hp is the pressure scale height)
# vtur = 2 km/s (Microturbulence velocity)
# alpha = 0.4  (Alpha)
#
# column 1: WAVELENGTH (ANGSTROM), Wavelength in Angstrom
# column 2: FLUX (ERG/CM2/S/A), Flux in erg/cm2/s/A
          147.2     1.14737e-10 
            151     3.88394e-10 
          155.2      1.39839e-9 
          158.8      3.98415e-9 
            162      9.74668e-9 
            166      2.84858e-8 
          170.3      8.52789e-8 
          173.4       1.8323e-7 
          176.8      4.10448e-7 
          180.2      8.93826e-7 
          181.7      1.24847e-6 
          186.1      3.24482e-6 
            191      8.97207e-6 
          193.9      1.60012e-5 
          198.4      3.80859e-5 
          201.8      7.16256e-5 
            205     0.000127528 
          210.5     0.000331301 
          216.2     0.000849652 
          219.8       0.0015049 
            223      0.00246557 
          226.8      0.00438673 
            230        0.216274 
            234        0.464754 
            240        0.963211 
          246.5          2.0485 
          252.4         3.97346 
          256.8         6.09942 
            260         9.12287 
            264         13.1133 
          268.5         20.7208 
          273.5         33.1114 
          278.5         51.6749 
            284         91.5013 
            290         149.178 
            296         239.984 
            301         349.415 
            308         613.281 
            318         1300.21 
            328         2410.59 
            338          4634.1 
            348         8260.71 
            357         32615.7 
            366         64208.5 
            375         91529.5 
            385          145725 
            395          266662 
            405          377315 
            414          544314 
            422          689682 
            430          918657 
            441      1.28494e+6 
            451        1.699e+6 
            460      2.11545e+6 
            470      2.80236e+6 
            480      3.58743e+6 
            490      4.61694e+6 
            500      5.82529e+6 
            506      2.17295e+7 
            512      1.30957e+8 
            520      1.38785e+8 
            530      1.57009e+8 
            540      1.54064e+8 
            550      2.11778e+8 
            560      2.42279e+8 
            570      2.73706e+8 
            580      2.58716e+8 
            590      3.20388e+8 
            600      3.31909e+8 
            610      3.77074e+8 
            620      4.04396e+8 
            630      4.20126e+8 
            640      3.96716e+8 
            650      4.09775e+8 
            658      4.58073e+8 
            665      5.04791e+8 
            675      5.18181e+8 
            685       5.1417e+8 
            695      6.50928e+8 
            705      6.39991e+8 
            716      7.22527e+8 
            726      7.32122e+8 
            735      7.57887e+8 
            745      8.36777e+8 
            755      8.70802e+8 
            765      9.19639e+8 
            775       9.6587e+8 
            785      1.01961e+9 
            795      1.03358e+9 
            805      1.06189e+9 
            815      1.08029e+9 
            825      1.15445e+9 
            835      1.01738e+9 
            845      1.17215e+9 
            855      1.18993e+9 
            865      1.24913e+9 
            875       1.3007e+9 
            885      1.37763e+9 
            895      1.42278e+9 
            905      1.40715e+9 
            915       1.5817e+9 
            925      6.02107e+9 
            935     1.38578e+10 
            945     3.18566e+10 
            955     4.33723e+10 
            965     5.69569e+10 
            975     1.20478e+10 
            985     5.46092e+10 
            995     4.88024e+10 
           1005     5.46095e+10 
           1015     5.33486e+10 
           1025     2.09739e+10 
           1035     4.38511e+10 
           1045     6.43082e+10 
           1055     5.99098e+10 
           1065     4.59226e+10 
           1075     5.29972e+10 
           1085     4.84374e+10 
           1095     5.38941e+10 
           1105     4.78909e+10 
           1115     4.55781e+10 
           1125     3.47908e+10 
           1135     4.70303e+10 
           1145     4.07872e+10 
           1155     4.22669e+10 
           1165     4.22994e+10 
           1175     2.66718e+10 
           1185     3.94778e+10 
           1195     3.56726e+10 
           1205     2.46185e+10 
           1215     1.50687e+10 
           1225     3.02011e+10 
           1235     3.64398e+10 
           1245     3.57547e+10 
           1255     3.50771e+10 
           1265     3.55277e+10 
           1275     3.62193e+10 
           1285     3.56829e+10 
           1295     2.52722e+10 
           1305     2.68706e+10 
           1315     3.41823e+10 
           1325     3.17198e+10 
           1335     3.10245e+10 
           1345     3.00921e+10 
           1355      3.0458e+10 
           1365     2.75143e+10 
           1375     2.66015e+10 
           1385     2.58652e+10 
           1395     1.73034e+10 
           1405     1.93725e+10 
           1415     2.33426e+10 
           1425     2.24707e+10 
           1435     2.32288e+10 
           1442     2.39641e+10 
           1447     2.35198e+10 
           1455     2.26711e+10 
           1465     2.11445e+10 
           1475     2.12795e+10 
           1485     2.07787e+10 
           1495     2.03533e+10 
           1505     1.82308e+10 
           1512      1.6871e+10 
           1517     1.72904e+10 
           1525     1.76456e+10 
           1535     1.50305e+10 
           1545     1.45163e+10 
           1555     1.40128e+10 
           1565     1.50481e+10 
           1575     1.58627e+10 
           1585     1.56362e+10 
           1595     1.56821e+10 
           1605     1.55882e+10 
           1615     1.50332e+10 
           1625      1.4913e+10 
           1635     1.54963e+10 
           1645     1.53809e+10 
           1655      1.5197e+10 
           1665     1.52365e+10 
           1672     1.45661e+10 
           1677     1.58457e+10 
           1685     1.52856e+10 
           1695     1.45275e+10 
           1705     1.39999e+10 
           1715      1.3385e+10 
           1725     1.29264e+10 
           1735     1.33623e+10 
           1745     1.31625e+10 
           1755     1.30998e+10 
           1765     1.28296e+10 
           1775     1.20948e+10 
           1785     1.21902e+10 
           1795     1.24476e+10 
           1805     1.24523e+10 
           1815     1.13857e+10 
           1825     1.16742e+10 
           1835     1.12698e+10 
           1845     1.02595e+10 
           1855      1.0413e+10 
           1865     1.05303e+10 
           1875     1.07201e+10 
           1885      9.67295e+9 
           1895      9.03431e+9 
           1905      9.66067e+9 
           1915      9.14943e+9 
           1925      8.66057e+9 
           1935      9.14198e+9 
           1945         9.34e+9 
           1955       8.4323e+9 
           1967      9.01462e+9 
           1976      9.45467e+9 
           1984      8.69398e+9 
           1995       8.5694e+9 
           2005      8.75469e+9 
           2015      8.66931e+9 
           2025      8.82552e+9 
           2035      8.14477e+9 
           2045      8.21062e+9 
           2055       7.7903e+9 
           2065      7.80753e+9 
           2074       7.9883e+9 
           2078      7.46936e+9 
           2085      7.70396e+9 
           2095      7.34056e+9 
           2105       7.6517e+9 
           2115      7.65153e+9 
           2125      7.69239e+9 
           2135      7.52091e+9 
           2145      7.19835e+9 
           2155      7.40524e+9 
           2165      7.31858e+9 
           2175      7.19665e+9 
           2185      7.02614e+9 
           2195      7.04616e+9 
           2205      6.98712e+9 
           2215      6.87143e+9 
           2225      6.69444e+9 
           2235      6.58436e+9 
           2245      6.60036e+9 
           2255      6.40466e+9 
           2265      6.43107e+9 
           2275      6.33069e+9 
           2285      6.25758e+9 
           2295      5.78252e+9 
           2305       6.0453e+9 
           2315      5.90756e+9 
           2325       5.8411e+9 
           2335      5.68747e+9 
           2345       5.7086e+9 
           2355      5.65472e+9 
           2365       5.5907e+9 
           2375      5.46411e+9 
           2385      5.41375e+9 
           2395      5.33908e+9 
           2405      5.25888e+9 
           2415      5.18015e+9 
           2425      5.16084e+9 
           2435       5.0177e+9 
           2445      4.99602e+9 
           2455      4.96366e+9 
           2465      4.90115e+9 
           2475      4.82115e+9 
           2485      4.72624e+9 
           2495      4.05329e+9 
           2505      4.56216e+9 
           2513      4.39196e+9 
           2518      4.49176e+9 
           2525      4.49266e+9 
           2535      4.45558e+9 
           2545      4.27179e+9 
           2555      4.31067e+9 
           2565      4.23876e+9 
           2575      4.24301e+9 
           2585       4.1966e+9 
           2595      4.14977e+9 
           2605      4.10953e+9 
           2615      4.05359e+9 
           2625      4.01779e+9 
           2635      3.97042e+9 
           2645      3.91666e+9 
           2655      3.87577e+9 
           2665       3.7476e+9 
           2675      3.74459e+9 
           2685      3.73258e+9 
           2695      3.60483e+9 
           2705      3.55866e+9 
           2715      3.54598e+9 
           2725      3.50651e+9 
           2735      3.48092e+9 
           2745      3.41195e+9 
           2755      3.39328e+9 
           2765      3.33853e+9 
           2775       3.3582e+9 
           2785      3.29969e+9 
           2795      3.16617e+9 
           2805       3.1997e+9 
           2815      3.20472e+9 
           2825       3.1412e+9 
           2835      3.04352e+9 
           2845      3.08709e+9 
           2855      3.03157e+9 
           2865      3.01343e+9 
           2875      2.97614e+9 
           2885      2.94369e+9 
           2895       2.9023e+9 
           2910      2.83158e+9 
           2930      2.79266e+9 
           2950      2.70566e+9 
           2970      2.67015e+9 
           2990      2.60096e+9 
           3010      2.51021e+9 
           3030      2.48478e+9 
           3050      2.44472e+9 
           3070      2.40626e+9 
           3090       2.3051e+9 
           3110      2.29572e+9 
           3130      2.23344e+9 
           3150       2.1972e+9 
           3170      2.14291e+9 
           3190      2.08954e+9 
           3210      2.06636e+9 
           3230      2.01355e+9 
           3250      1.98235e+9 
           3270      1.93722e+9 
           3290       1.8971e+9 
           3310      1.86204e+9 
           3330      1.82085e+9 
           3350      1.78698e+9 
           3370      1.74875e+9 
           3390      1.72162e+9 
           3410      1.68798e+9 
           3430      1.65173e+9 
           3450      1.61289e+9 
           3470       1.5828e+9 
           3490      1.55079e+9 
           3510       1.5251e+9 
           3530      1.50097e+9 
           3550      1.47179e+9 
           3570      1.45233e+9 
           3590      1.40682e+9 
           3610      1.38893e+9 
           3630       1.3604e+9 
           3640      1.36116e+9 
           3650      1.34036e+9 
           3670      1.32481e+9 
           3690      1.30255e+9 
           3710      1.25362e+9 
           3730      1.21571e+9 
           3750      1.19918e+9 
           3770      1.15949e+9 
           3790      1.19732e+9 
           3810      1.23887e+9 
           3830      1.08674e+9 
           3850       1.2615e+9 
           3870      1.27071e+9 
           3890      1.01661e+9 
           3910       1.2703e+9 
           3930      1.24513e+9 
           3950      1.21691e+9 
           3970      9.43897e+8 
           3990      1.17091e+9 
           4010      1.18264e+9 
           4030      1.10345e+9 
           4050      1.14871e+9 
           4070      1.08617e+9 
           4090      9.89134e+8 
           4110      8.77387e+8 
           4130      1.03624e+9 
           4150      1.03614e+9 
           4170      1.03632e+9 
           4190      1.02154e+9 
           4210      1.01402e+9 
           4230      9.90897e+8 
           4250      9.58379e+8 
           4270      9.30909e+8 
           4290      9.18503e+8 
           4310      8.87122e+8 
           4330      7.97628e+8 
           4350      7.28971e+8 
           4370      8.43715e+8 
           4390      8.31099e+8 
           4410      8.36034e+8 
           4430      8.31458e+8 
           4450      8.14984e+8 
           4470      7.64021e+8 
           4490      7.87278e+8 
           4510       7.8546e+8 
           4530      7.72812e+8 
           4550      7.60428e+8 
           4570      7.46969e+8 
           4590      7.33589e+8 
           4610      7.16726e+8 
           4630      7.06628e+8 
           4650      6.82878e+8 
           4670       6.8497e+8 
           4690      6.78884e+8 
           4710       6.4815e+8 
           4730      6.57095e+8 
           4750      6.45629e+8 
           4770      6.44316e+8 
           4790      6.32428e+8 
           4810      6.16628e+8 
           4830      6.00163e+8 
           4850      5.47385e+8 
           4870      4.89002e+8 
           4890       5.7423e+8 
           4910      5.72202e+8 
           4930      5.49155e+8 
           4950      5.55719e+8 
           4970      5.53559e+8 
           4990        5.445e+8 
           5010      5.21415e+8 
           5030      5.27179e+8 
           5050      5.14237e+8 
           5070      5.13984e+8 
           5090      5.04674e+8 
           5110      4.96865e+8 
           5130      4.87745e+8 
           5150      4.81393e+8 
           5170      4.76407e+8 
           5190      4.70462e+8 
           5210      4.61944e+8 
           5230      4.57592e+8 
           5250      4.51296e+8 
           5270      4.44093e+8 
           5290       4.3883e+8 
           5310      4.32497e+8 
           5330       4.2638e+8 
           5350      4.19684e+8 
           5370      4.15205e+8 
           5390      4.09017e+8 
           5410      4.03759e+8 
           5430      3.97787e+8 
           5450      3.92057e+8 
           5470      3.86791e+8 
           5490       3.8219e+8 
           5510      3.77535e+8 
           5530      3.71939e+8 
           5550       3.6755e+8 
           5570      3.62487e+8 
           5590      3.57981e+8 
           5610      3.52883e+8 
           5630      3.48705e+8 
           5650      3.42441e+8 
           5670      3.36971e+8 
           5690      3.32069e+8 
           5710      3.29504e+8 
           5730      3.26061e+8 
           5750       3.2064e+8 
           5770       3.1815e+8 
           5790      3.13899e+8 
           5810      3.09856e+8 
           5830      3.05472e+8 
           5850      3.01912e+8 
           5870      2.87613e+8 
           5890      2.91581e+8 
           5910      2.89827e+8 
           5930      2.86172e+8 
           5950      2.82208e+8 
           5970      2.80225e+8 
           5990        2.757e+8 
           6010      2.73118e+8 
           6030      2.69371e+8 
           6050      2.66286e+8 
           6070      2.63256e+8 
           6090      2.60037e+8 
           6110      2.56904e+8 
           6130      2.53927e+8 
           6150      2.49629e+8 
           6170      2.47212e+8 
           6190      2.44712e+8 
           6210      2.41917e+8 
           6230      2.39115e+8 
           6250      2.35774e+8 
           6270      2.33179e+8 
           6290      2.30594e+8 
           6310      2.27602e+8 
           6330      2.25245e+8 
           6350      2.21707e+8 
           6370      2.19751e+8 
           6390      2.17279e+8 
           6410      2.14725e+8 
           6430      2.12498e+8 
           6450      2.09923e+8 
           6470      2.06711e+8 
           6490      2.04589e+8 
           6510      2.02036e+8 
           6530      1.98265e+8 
           6550      1.87458e+8 
           6570      1.65093e+8 
           6590      1.89258e+8 
           6610      1.90442e+8 
           6630      1.89098e+8 
           6650      1.86957e+8 
           6670      1.82747e+8 
           6690      1.80856e+8 
           6710      1.81093e+8 
           6730      1.78646e+8 
           6750      1.77225e+8 
           6770      1.75267e+8 
           6790      1.72202e+8 
           6810      1.71208e+8 
           6830      1.69157e+8 
           6850      1.67632e+8 
           6870      1.65788e+8 
           6890      1.63747e+8 
           6910      1.61736e+8 
           6930      1.60451e+8 
           6950      1.58803e+8 
           6970       1.5711e+8 
           6990      1.55395e+8 
           7010      1.53704e+8 
           7030      1.52046e+8 
           7050      1.50457e+8 
           7070      1.46245e+8 
           7090      1.47302e+8 
           7110      1.45357e+8 
           7130      1.43883e+8 
           7150      1.42652e+8 
           7170      1.41212e+8 
           7190      1.39772e+8 
           7210      1.38316e+8 
           7230      1.35109e+8 
           7250       1.3516e+8 
           7270      1.34054e+8 
           7290      1.31505e+8 
           7310      1.31287e+8 
           7330      1.29933e+8 
           7350      1.28627e+8 
           7370      1.27341e+8 
           7390      1.26045e+8 
           7410      1.24769e+8 
           7430      1.23416e+8 
           7450      1.22225e+8 
           7470      1.20295e+8 
           7490        1.197e+8 
           7510      1.18556e+8 
           7530      1.17303e+8 
           7550      1.16259e+8 
           7570      1.15119e+8 
           7590      1.13951e+8 
           7610      1.12624e+8 
           7630      1.11705e+8 
           7650      1.10606e+8 
           7670      1.09544e+8 
           7690      1.08465e+8 
           7710      1.07396e+8 
           7730      1.06292e+8 
           7750      1.05337e+8 
           7770      1.03734e+8 
           7790      1.03308e+8 
           7810      1.02267e+8 
           7830      1.01327e+8 
           7850       1.0031e+8 
           7870       9.9199e+7 
           7890       9.8025e+7 
           7910      9.75119e+7 
           7930      9.65593e+7 
           7950      9.55019e+7 
           7970      9.46673e+7 
           7990      9.36452e+7 
           8010      9.29022e+7 
           8030      9.19609e+7 
           8050      9.10976e+7 
           8070      9.03053e+7 
           8090      8.93528e+7 
           8110      8.79675e+7 
           8130      8.77918e+7 
           8150      8.69701e+7 
           8170        8.624e+7 
           8190      8.49712e+7 
           8210      8.43062e+7 
           8230       8.3452e+7 
           8250      8.30756e+7 
           8270        8.149e+7 
           8290      8.14864e+7 
           8310      8.08492e+7 
           8330       8.0114e+7 
           8350      7.90336e+7 
           8370      7.84735e+7 
           8390      7.79714e+7 
           8410      7.72281e+7 
           8430      7.65494e+7 
           8450      7.51744e+7 
           8470      7.52084e+7 
           8490      7.43318e+7 
           8510      7.37904e+7 
           8530      7.30202e+7 
           8550       7.2277e+7 
           8570       7.2017e+7 
           8590      7.01044e+7 
