# Kurucz ODFNEW /NOVER (2003)
# teff = 21000 K (value for the effective temperature for the model. Temperatures are given in K)
# logg = 4 log(cm/s2) (value for Log(G) for the model.)
# meta = -1  (value for the Metallicity for the model.)
# lh = 1.25  (l/Hp where l is the  mixing length of the convective element and Hp is the pressure scale height)
# vtur = 2 km/s (Microturbulence velocity)
# alpha = 0  (Alpha)
#
# column 1: WAVELENGTH (ANGSTROM), Wavelength in Angstrom
# column 2: FLUX (ERG/CM2/S/A), Flux in erg/cm2/s/A
          147.2     1.09944e-18 
            151     6.42593e-18 
          155.2     4.11263e-17 
          158.8     1.87517e-16 
            162     6.85187e-16 
            166     3.23807e-15 
          170.3     1.59098e-14 
          173.4     4.78562e-14 
          176.8      1.5346e-13 
          180.2     4.71781e-13 
          181.7     7.64347e-13 
          186.1     3.01606e-12 
            191     1.29415e-11 
          193.9     2.96185e-11 
          198.4     1.02168e-10 
          201.8     2.51219e-10 
            205     5.70379e-10 
          210.5      2.20331e-9 
          216.2       8.3184e-9 
          219.8      1.85838e-8 
            223      3.71449e-8 
          226.8      8.24087e-8 
            230      5.52525e-7 
            234      1.36096e-6 
            240       3.9951e-6 
          246.5      1.20349e-5 
          252.4      3.13704e-5 
          256.8      6.08514e-5 
            260     0.000100101 
            264     0.000179322 
          268.5     0.000337719 
          273.5      0.00066525 
          278.5      0.00128073 
            284      0.00256073 
            290      0.00527959 
            296       0.0105448 
            301        0.018388 
            308       0.0382484 
            318        0.106297 
            328        0.272266 
            338        0.660605 
            348         1.51639 
            357         3.07682 
            366         6.02374 
            375         11.3382 
            385         22.1254 
            395         41.5785 
            405         75.6215 
            414         126.253 
            422         194.802 
            430         294.986 
            441         511.065 
            451          819.91 
            460          1229.3 
            470         1892.17 
            480         2852.78 
            490          4226.4 
            500         6149.73 
            506           46084 
            512          147605 
            520          189382 
            530          269518 
            540          306978 
            550          449460 
            560          552156 
            570          699460 
            580          723536 
            590          982137 
            600      1.24289e+6 
            610      1.51876e+6 
            620      1.78574e+6 
            630      2.12645e+6 
            640      2.41407e+6 
            650       2.7565e+6 
            658      3.27608e+6 
            665      3.60735e+6 
            675      4.05574e+6 
            685      4.62786e+6 
            695        5.463e+6 
            705      6.14743e+6 
            716      7.05699e+6 
            726      7.87158e+6 
            735      8.74694e+6 
            745      9.91399e+6 
            755      1.10787e+7 
            765      1.22928e+7 
            775      1.36855e+7 
            785      1.51505e+7 
            795      1.65468e+7 
            805      1.81288e+7 
            815      1.96945e+7 
            825      2.16764e+7 
            835      2.31022e+7 
            845      2.52701e+7 
            855      2.72607e+7 
            865      2.96615e+7 
            875      3.22104e+7 
            885      3.48901e+7 
            895      3.74253e+7 
            905      3.92707e+7 
            915      6.30008e+7 
            925       3.4267e+8 
            935      1.22733e+9 
            945      4.61217e+9 
            955      7.84212e+9 
            965     1.04609e+10 
            975      2.59919e+9 
            985     1.28221e+10 
            995     1.24405e+10 
           1005     1.33997e+10 
           1015     1.17108e+10 
           1025      2.74792e+9 
           1035      8.98193e+9 
           1045     1.42826e+10 
           1055     1.37278e+10 
           1065     1.20666e+10 
           1075     1.33613e+10 
           1085     1.21526e+10 
           1095     1.32142e+10 
           1105     1.22115e+10 
           1115     1.21507e+10 
           1125     1.11257e+10 
           1135     1.21682e+10 
           1145     1.12298e+10 
           1155     1.16338e+10 
           1165     1.17047e+10 
           1175       9.4489e+9 
           1185     1.13223e+10 
           1195      9.88027e+9 
           1205      6.99999e+9 
           1215       2.1258e+9 
           1225      7.58794e+9 
           1235      9.90986e+9 
           1245     1.01511e+10 
           1255      9.86537e+9 
           1265      9.61726e+9 
           1275      9.84357e+9 
           1285      9.67568e+9 
           1295      8.13472e+9 
           1305      8.11427e+9 
           1315       9.2046e+9 
           1325      8.78014e+9 
           1335      8.31152e+9 
           1345      8.55637e+9 
           1355      8.51138e+9 
           1365      8.10184e+9 
           1375      7.97446e+9 
           1385      7.95261e+9 
           1395      7.27179e+9 
           1405      7.43258e+9 
           1415      7.43609e+9 
           1425      7.34081e+9 
           1435      7.32081e+9 
           1442      7.36423e+9 
           1447      7.24326e+9 
           1455      7.10955e+9 
           1465      6.85449e+9 
           1475      6.77312e+9 
           1485       6.6096e+9 
           1495      6.52266e+9 
           1505      6.22703e+9 
           1512      5.87321e+9 
           1517      5.98353e+9 
           1525      5.98345e+9 
           1535      5.57222e+9 
           1545      5.65704e+9 
           1555      5.39786e+9 
           1565      5.50476e+9 
           1575      5.59378e+9 
           1585      5.50737e+9 
           1595      5.49791e+9 
           1605      5.33807e+9 
           1615      5.25744e+9 
           1625      5.19007e+9 
           1635      5.23741e+9 
           1645      5.14413e+9 
           1655      5.01132e+9 
           1665      5.09427e+9 
           1672      4.92125e+9 
           1677      5.02698e+9 
           1685      4.96742e+9 
           1695      4.81457e+9 
           1705       4.6551e+9 
           1715      4.49991e+9 
           1725      4.43637e+9 
           1735      4.47586e+9 
           1745      4.37213e+9 
           1755      4.40476e+9 
           1765      4.16924e+9 
           1775      4.16688e+9 
           1785      4.14751e+9 
           1795      4.17322e+9 
           1805      4.14041e+9 
           1815      3.94361e+9 
           1825      3.97516e+9 
           1835      3.88441e+9 
           1845      3.65239e+9 
           1855      3.58148e+9 
           1865      3.60729e+9 
           1875      3.68647e+9 
           1885      3.42428e+9 
           1895      3.25909e+9 
           1905      3.41234e+9 
           1915      3.27263e+9 
           1925      3.18727e+9 
           1935      3.25554e+9 
           1945      3.28986e+9 
           1955      3.08025e+9 
           1967      3.19653e+9 
           1976      3.26666e+9 
           1984      3.09872e+9 
           1995      3.01675e+9 
           2005      3.05477e+9 
           2015      3.04336e+9 
           2025      3.07566e+9 
           2035      2.92798e+9 
           2045      2.91121e+9 
           2055      2.82782e+9 
           2065      2.84626e+9 
           2074      2.90604e+9 
           2078      2.77918e+9 
           2085       2.8024e+9 
           2095      2.70172e+9 
           2105      2.73487e+9 
           2115        2.711e+9 
           2125      2.73143e+9 
           2135      2.67689e+9 
           2145      2.59599e+9 
           2155      2.62265e+9 
           2165      2.58739e+9 
           2175      2.55115e+9 
           2185      2.51759e+9 
           2195      2.50917e+9 
           2205      2.46911e+9 
           2215      2.43534e+9 
           2225       2.3874e+9 
           2235      2.37235e+9 
           2245      2.35679e+9 
           2255      2.30852e+9 
           2265      2.30448e+9 
           2275      2.27379e+9 
           2285      2.26114e+9 
           2295      2.19592e+9 
           2305      2.19754e+9 
           2315      2.15617e+9 
           2325       2.1362e+9 
           2335      2.08547e+9 
           2345      2.05121e+9 
           2355      2.05896e+9 
           2365       2.0168e+9 
           2375      2.00246e+9 
           2385      1.96742e+9 
           2395      1.95969e+9 
           2405      1.93021e+9 
           2415      1.90502e+9 
           2425      1.90657e+9 
           2435      1.86833e+9 
           2445      1.85497e+9 
           2455      1.84651e+9 
           2465      1.81339e+9 
           2475      1.79686e+9 
           2485       1.7795e+9 
           2495      1.72901e+9 
           2505      1.74063e+9 
           2513      1.69181e+9 
           2518       1.7148e+9 
           2525      1.69125e+9 
           2535      1.66368e+9 
           2545      1.64331e+9 
           2555       1.6494e+9 
           2565      1.62316e+9 
           2575      1.61831e+9 
           2585      1.60141e+9 
           2595       1.5835e+9 
           2605      1.57425e+9 
           2615      1.55887e+9 
           2625      1.54325e+9 
           2635      1.52363e+9 
           2645      1.52312e+9 
           2655      1.50611e+9 
           2665      1.48008e+9 
           2675      1.47062e+9 
           2685      1.46428e+9 
           2695      1.43372e+9 
           2705      1.43112e+9 
           2715       1.4138e+9 
           2725      1.38772e+9 
           2735      1.38796e+9 
           2745      1.35102e+9 
           2755      1.34386e+9 
           2765      1.33056e+9 
           2775      1.33405e+9 
           2785      1.31749e+9 
           2795      1.27664e+9 
           2805       1.2835e+9 
           2815      1.28167e+9 
           2825      1.25576e+9 
           2835      1.23323e+9 
           2845      1.23924e+9 
           2855      1.22863e+9 
           2865      1.21938e+9 
           2875       1.2059e+9 
           2885      1.19484e+9 
           2895        1.183e+9 
           2910      1.16559e+9 
           2930      1.14034e+9 
           2950      1.11198e+9 
           2970      1.09932e+9 
           2990      1.07615e+9 
           3010      1.05683e+9 
           3030      1.03874e+9 
           3050      1.01904e+9 
           3070      9.99972e+8 
           3090      9.80007e+8 
           3110      9.62886e+8 
           3130      9.46275e+8 
           3150      9.28829e+8 
           3170      9.11185e+8 
           3190      8.87542e+8 
           3210      8.78564e+8 
           3230      8.62662e+8 
           3250      8.47369e+8 
           3270      8.33195e+8 
           3290      8.17388e+8 
           3310      8.04274e+8 
           3330      7.90157e+8 
           3350       7.7501e+8 
           3370      7.62853e+8 
           3390      7.49781e+8 
           3410      7.36962e+8 
           3430      7.21412e+8 
           3450      7.06836e+8 
           3470      6.96803e+8 
           3490      6.85036e+8 
           3510      6.75814e+8 
           3530      6.65789e+8 
           3550      6.54931e+8 
           3570      6.47081e+8 
           3590      6.32788e+8 
           3610      6.23426e+8 
           3630      6.12487e+8 
           3640      6.11145e+8 
           3650       6.0206e+8 
           3670      5.94929e+8 
           3690      5.81054e+8 
           3710      5.63256e+8 
           3730      5.45128e+8 
           3750      5.89908e+8 
           3770      5.97396e+8 
           3790      6.37189e+8 
           3810      6.69627e+8 
           3830      5.78003e+8 
           3850       6.9396e+8 
           3870      7.02401e+8 
           3890      5.46767e+8 
           3910      6.93648e+8 
           3930      6.81654e+8 
           3950      6.72113e+8 
           3970      5.09488e+8 
           3990      6.44459e+8 
           4010      6.43247e+8 
           4030      6.04381e+8 
           4050      6.29456e+8 
           4070      6.14733e+8 
           4090       5.6115e+8 
           4110      4.84201e+8 
           4130      5.76152e+8 
           4150      5.73324e+8 
           4170      5.69138e+8 
           4190      5.62237e+8 
           4210      5.53656e+8 
           4230      5.44432e+8 
           4250      5.35378e+8 
           4270      5.23412e+8 
           4290      5.17499e+8 
           4310      5.06014e+8 
           4330      4.52644e+8 
           4350      4.10386e+8 
           4370       4.8097e+8 
           4390      4.64204e+8 
           4410      4.70987e+8 
           4430      4.61983e+8 
           4450      4.57402e+8 
           4470      4.29411e+8 
           4490      4.41664e+8 
           4510      4.37052e+8 
           4530      4.30117e+8 
           4550       4.2356e+8 
           4570      4.17173e+8 
           4590      4.11132e+8 
           4610      4.04824e+8 
           4630      3.98646e+8 
           4650      3.92175e+8 
           4670      3.87199e+8 
           4690      3.81814e+8 
           4710      3.70631e+8 
           4730      3.69389e+8 
           4750      3.63681e+8 
           4770      3.60157e+8 
           4790      3.54841e+8 
           4810      3.48721e+8 
           4830      3.41705e+8 
           4850      3.12034e+8 
           4870      2.76611e+8 
           4890      3.26108e+8 
           4910      3.24222e+8 
           4930      3.12498e+8 
           4950      3.16482e+8 
           4970      3.12216e+8 
           4990      3.07797e+8 
           5010      2.98921e+8 
           5030      2.99214e+8 
           5050      2.92461e+8 
           5070      2.91199e+8 
           5090      2.87214e+8 
           5110      2.83238e+8 
           5130      2.79159e+8 
           5150      2.75376e+8 
           5170      2.71981e+8 
           5190      2.68322e+8 
           5210      2.64295e+8 
           5230      2.61204e+8 
           5250      2.57741e+8 
           5270      2.54296e+8 
           5290      2.50991e+8 
           5310      2.47674e+8 
           5330      2.44386e+8 
           5350      2.41062e+8 
           5370      2.38133e+8 
           5390      2.35034e+8 
           5410      2.31986e+8 
           5430      2.28824e+8 
           5450      2.25981e+8 
           5470      2.23085e+8 
           5490        2.203e+8 
           5510      2.17487e+8 
           5530      2.14734e+8 
           5550      2.12052e+8 
           5570      2.09354e+8 
           5590       2.0675e+8 
           5610      2.04105e+8 
           5630      2.01635e+8 
           5650       1.9883e+8 
           5670      1.96398e+8 
           5690      1.93996e+8 
           5710      1.91796e+8 
           5730       1.8945e+8 
           5750      1.87108e+8 
           5770      1.84874e+8 
           5790      1.82622e+8 
           5810      1.80407e+8 
           5830      1.78207e+8 
           5850      1.76077e+8 
           5870       1.6868e+8 
           5890      1.71402e+8 
           5910      1.69802e+8 
           5930       1.6778e+8 
           5950      1.65728e+8 
           5970      1.63848e+8 
           5990      1.61874e+8 
           6010      1.60016e+8 
           6030      1.58137e+8 
           6050      1.56301e+8 
           6070      1.54475e+8 
           6090       1.5267e+8 
           6110      1.50915e+8 
           6130       1.4918e+8 
           6150      1.47375e+8 
           6170      1.45758e+8 
           6190        1.441e+8 
           6210       1.4245e+8 
           6230      1.40829e+8 
           6250      1.39196e+8 
           6270      1.37648e+8 
           6290      1.36098e+8 
           6310      1.34546e+8 
           6330      1.33067e+8 
           6350      1.31371e+8 
           6370      1.30009e+8 
           6390      1.28652e+8 
           6410      1.27217e+8 
           6430      1.25835e+8 
           6450       1.2444e+8 
           6470      1.23042e+8 
           6490      1.21712e+8 
           6510      1.20228e+8 
           6530      1.18388e+8 
           6550      1.12494e+8 
           6570      9.92948e+7 
           6590      1.13501e+8 
           6610      1.13695e+8 
           6630      1.12787e+8 
           6650      1.11658e+8 
           6670       1.0938e+8 
           6690      1.08239e+8 
           6710       1.0813e+8 
           6730      1.06973e+8 
           6750      1.05852e+8 
           6770      1.04735e+8 
           6790      1.03546e+8 
           6810      1.02541e+8 
           6830      1.01465e+8 
           6850      1.00416e+8 
           6870      9.93689e+7 
           6890      9.83326e+7 
           6910      9.73224e+7 
           6930      9.62986e+7 
           6950       9.5324e+7 
           6970      9.43435e+7 
           6990      9.33726e+7 
           7010      9.24265e+7 
           7030      9.14821e+7 
           7050      9.05394e+7 
           7070      8.82265e+7 
           7090      8.87337e+7 
           7110      8.78328e+7 
           7130       8.6948e+7 
           7150      8.60717e+7 
           7170      8.52038e+7 
           7190      8.43661e+7 
           7210      8.35291e+7 
           7230      8.23108e+7 
           7250      8.18717e+7 
           7270      8.10726e+7 
           7290      7.96501e+7 
           7310      7.94686e+7 
           7330       7.8706e+7 
           7350      7.79366e+7 
           7370      7.71743e+7 
           7390      7.64191e+7 
           7410      7.56778e+7 
           7430      7.49434e+7 
           7450      7.42361e+7 
           7470      7.35083e+7 
           7490      7.28074e+7 
           7510      7.20861e+7 
           7530      7.14246e+7 
           7550      7.07427e+7 
           7570       7.0067e+7 
           7590      6.94039e+7 
           7610      6.87469e+7 
           7630      6.80958e+7 
           7650      6.74569e+7 
           7670      6.68238e+7 
           7690      6.61964e+7 
           7710      6.55745e+7 
           7730      6.49645e+7 
           7750        6.436e+7 
           7770      6.36609e+7 
           7790      6.31668e+7 
           7810      6.25473e+7 
           7830      6.20069e+7 
           7850      6.14774e+7 
           7870       6.0916e+7 
           7890      6.03025e+7 
           7910      5.98245e+7 
           7930      5.92823e+7 
           7950      5.86947e+7 
           7970      5.80726e+7 
           7990      5.75285e+7 
           8010      5.70161e+7 
           8030      5.65004e+7 
           8050      5.60183e+7 
           8070       5.5557e+7 
           8090      5.49534e+7 
           8110      5.45309e+7 
           8130       5.4096e+7 
           8150       5.3537e+7 
           8170      5.31561e+7 
           8190      5.26126e+7 
           8210      5.20202e+7 
           8230      5.17031e+7 
           8250      5.12817e+7 
           8270      5.05894e+7 
           8290      5.03451e+7 
           8310      4.99274e+7 
           8330      4.94789e+7 
           8350      4.88191e+7 
           8370      4.85328e+7 
           8390       4.8185e+7 
           8410      4.77468e+7 
           8430      4.72655e+7 
           8450      4.65566e+7 
           8470       4.6316e+7 
           8490      4.59826e+7 
           8510      4.53204e+7 
           8530      4.53074e+7 
           8550      4.39001e+7 
           8570       4.5166e+7 
           8590      4.30434e+7 
