# Kurucz ODFNEW /NOVER (2003)
# teff = 19000 K (value for the effective temperature for the model. Temperatures are given in K)
# logg = 3.5 log(cm/s2) (value for Log(G) for the model.)
# meta = -2  (value for the Metallicity for the model.)
# lh = 1.25  (l/Hp where l is the  mixing length of the convective element and Hp is the pressure scale height)
# vtur = 2 km/s (Microturbulence velocity)
# alpha = 0  (Alpha)
#
# column 1: WAVELENGTH (ANGSTROM), Wavelength in Angstrom
# column 2: FLUX (ERG/CM2/S/A), Flux in erg/cm2/s/A
          147.2     5.36654e-22 
            151     4.23686e-21 
          155.2     3.58148e-20 
          158.8     2.03741e-19 
            162     8.96046e-19 
            166     5.26787e-18 
          170.3     3.22405e-17 
          173.4     1.12552e-16 
          176.8     4.21536e-16 
          180.2     1.50125e-15 
          181.7     2.58913e-15 
          186.1     1.21711e-14 
            191     6.26419e-14 
          193.9     1.58719e-13 
          198.4     6.35833e-13 
          201.8     1.73992e-12 
            205     4.34962e-12 
          210.5     1.96441e-11 
          216.2     8.62306e-11 
          219.8      2.1069e-10 
            223     4.54615e-10 
          226.8      1.10049e-9 
            230      2.77277e-9 
            234      6.81988e-9 
            240      2.34769e-8 
          246.5      8.34032e-8 
          252.4       2.4895e-7 
          256.8      5.41476e-7 
            260      9.42325e-7 
            264        1.839e-6 
          268.5      3.80412e-6 
          273.5      8.28427e-6 
          278.5      1.75323e-5 
            284      3.87257e-5 
            290       8.8677e-5 
            296     0.000195937 
            301     0.000369997 
            308     0.000866687 
            318      0.00274299 
            328      0.00804381 
            338       0.0220444 
            348       0.0568093 
            357        0.126865 
            366        0.271641 
            375        0.559127 
            385         1.19514 
            395         2.45052 
            405         4.83587 
            414         8.64893 
            422         14.1753 
            430         22.7708 
            441         42.3799 
            451         72.4228 
            460         114.771 
            470          187.12 
            480         298.277 
            490         465.585 
            500         712.441 
            506         4959.03 
            512         14092.3 
            520           18647 
            530         28810.6 
            540         33237.7 
            550         51210.3 
            560         66166.7 
            570         85584.5 
            580         89757.7 
            590          126027 
            600          169978 
            610          212036 
            620          259300 
            630          316732 
            640          378357 
            650          457934 
            658          530632 
            665          597238 
            675          699177 
            685          820941 
            695          973830 
            705      1.13051e+6 
            716      1.32605e+6 
            726      1.52343e+6 
            735      1.73021e+6 
            745      1.98287e+6 
            755      2.25843e+6 
            765      2.55575e+6 
            775      2.89215e+6 
            785      3.25471e+6 
            795      3.64436e+6 
            805      4.07149e+6 
            815      4.52404e+6 
            825      5.03247e+6 
            835      5.50701e+6 
            845      6.12982e+6 
            855      6.71854e+6 
            865      7.40846e+6 
            875      8.11792e+6 
            885      8.88451e+6 
            895      9.67661e+6 
            905      1.03894e+7 
            915      1.97633e+7 
            925      1.42036e+8 
            935      6.82463e+8 
            945      3.00025e+9 
            955      4.93659e+9 
            965      6.54687e+9 
            975      2.18871e+9 
            985      8.09431e+9 
            995       8.0405e+9 
           1005      8.34976e+9 
           1015      7.28538e+9 
           1025      1.69352e+9 
           1035      6.13929e+9 
           1045      8.50934e+9 
           1055       8.3674e+9 
           1065      7.69153e+9 
           1075      8.14208e+9 
           1085      7.62691e+9 
           1095      8.05631e+9 
           1105      7.62607e+9 
           1115       7.6505e+9 
           1125       7.2472e+9 
           1135      7.47976e+9 
           1145      7.12583e+9 
           1155       7.3026e+9 
           1165      7.26243e+9 
           1175      6.46208e+9 
           1185      7.01828e+9 
           1195      6.31644e+9 
           1205       4.9083e+9 
           1215      1.06782e+9 
           1225      4.80958e+9 
           1235      6.19573e+9 
           1245      6.33138e+9 
           1255      6.19357e+9 
           1265      6.08945e+9 
           1275      6.15189e+9 
           1285      6.06084e+9 
           1295      5.56729e+9 
           1305      5.52521e+9 
           1315       5.7868e+9 
           1325      5.60666e+9 
           1335       5.3581e+9 
           1345      5.48426e+9 
           1355      5.45265e+9 
           1365       5.3126e+9 
           1375      5.22704e+9 
           1385      5.17716e+9 
           1395      4.97931e+9 
           1405      4.97299e+9 
           1415      4.93005e+9 
           1425      4.87575e+9 
           1435      4.82212e+9 
           1442      4.79154e+9 
           1447      4.74751e+9 
           1455      4.68032e+9 
           1465      4.59348e+9 
           1475      4.53192e+9 
           1485      4.45196e+9 
           1495      4.38721e+9 
           1505      4.28602e+9 
           1512      4.20869e+9 
           1517      4.21111e+9 
           1525      4.15036e+9 
           1535       4.0066e+9 
           1545      4.02056e+9 
           1555      3.90685e+9 
           1565      3.90538e+9 
           1575      3.88298e+9 
           1585      3.82919e+9 
           1595      3.79184e+9 
           1605      3.68302e+9 
           1615      3.63177e+9 
           1625      3.60747e+9 
           1635      3.57729e+9 
           1645      3.51527e+9 
           1655      3.45862e+9 
           1665      3.45103e+9 
           1672      3.35239e+9 
           1677      3.39419e+9 
           1685      3.35752e+9 
           1695      3.29088e+9 
           1705      3.22518e+9 
           1715      3.15949e+9 
           1725      3.11917e+9 
           1735      3.10297e+9 
           1745      3.04783e+9 
           1755      3.03632e+9 
           1765      2.91046e+9 
           1775      2.92643e+9 
           1785      2.89799e+9 
           1795      2.87771e+9 
           1805      2.84511e+9 
           1815      2.78662e+9 
           1825      2.76352e+9 
           1835      2.72431e+9 
           1845      2.63875e+9 
           1855      2.57019e+9 
           1865      2.56209e+9 
           1875      2.57524e+9 
           1885      2.47833e+9 
           1895      2.41059e+9 
           1905      2.45199e+9 
           1915      2.37704e+9 
           1925      2.34224e+9 
           1935      2.34516e+9 
           1945      2.34322e+9 
           1955      2.25681e+9 
           1967      2.27863e+9 
           1976      2.27789e+9 
           1984      2.22022e+9 
           1995      2.16192e+9 
           2005      2.17621e+9 
           2015       2.1657e+9 
           2025      2.15245e+9 
           2035      2.10615e+9 
           2045       2.0811e+9 
           2055      2.02387e+9 
           2065       2.0173e+9 
           2074      2.03276e+9 
           2078      1.98673e+9 
           2085       1.9878e+9 
           2095      1.94441e+9 
           2105      1.94358e+9 
           2115      1.92642e+9 
           2125      1.91559e+9 
           2135      1.88926e+9 
           2145      1.85875e+9 
           2155      1.84648e+9 
           2165      1.82255e+9 
           2175      1.80042e+9 
           2185      1.78208e+9 
           2195      1.76565e+9 
           2205      1.74246e+9 
           2215      1.72093e+9 
           2225      1.69743e+9 
           2235      1.68303e+9 
           2245      1.66582e+9 
           2255      1.64345e+9 
           2265      1.62897e+9 
           2275      1.60944e+9 
           2285      1.59459e+9 
           2295      1.56592e+9 
           2305      1.55704e+9 
           2315      1.53708e+9 
           2325      1.52249e+9 
           2335      1.49773e+9 
           2345      1.47231e+9 
           2355      1.47084e+9 
           2365      1.44644e+9 
           2375      1.43629e+9 
           2385      1.41116e+9 
           2395      1.40091e+9 
           2405      1.38648e+9 
           2415      1.37031e+9 
           2425      1.36492e+9 
           2435      1.34681e+9 
           2445      1.33323e+9 
           2455       1.3227e+9 
           2465      1.30536e+9 
           2475      1.29336e+9 
           2485      1.27974e+9 
           2495      1.25576e+9 
           2505      1.25362e+9 
           2513      1.23551e+9 
           2518      1.23643e+9 
           2525      1.22462e+9 
           2535      1.20806e+9 
           2545      1.19731e+9 
           2555       1.1913e+9 
           2565       1.1755e+9 
           2575      1.16752e+9 
           2585      1.15473e+9 
           2595      1.14221e+9 
           2605      1.13646e+9 
           2615      1.12635e+9 
           2625      1.11587e+9 
           2635      1.10107e+9 
           2645      1.09691e+9 
           2655       1.0847e+9 
           2665      1.07133e+9 
           2675      1.06175e+9 
           2685       1.0571e+9 
           2695      1.03926e+9 
           2705      1.03586e+9 
           2715      1.02487e+9 
           2725      1.00727e+9 
           2735       1.0055e+9 
           2745      9.86943e+8 
           2755      9.79146e+8 
           2765      9.67986e+8 
           2775      9.67627e+8 
           2785       9.5763e+8 
           2795      9.34539e+8 
           2805      9.33202e+8 
           2815      9.31243e+8 
           2825      9.14323e+8 
           2835      9.07135e+8 
           2845      9.04166e+8 
           2855      8.96041e+8 
           2865      8.88099e+8 
           2875      8.79516e+8 
           2885      8.71438e+8 
           2895      8.63405e+8 
           2910      8.51413e+8 
           2930       8.3509e+8 
           2950      8.15493e+8 
           2970      8.05401e+8 
           2990      7.90491e+8 
           3010       7.7657e+8 
           3030      7.62823e+8 
           3050      7.49166e+8 
           3070      7.35919e+8 
           3090      7.22873e+8 
           3110      7.10216e+8 
           3130      6.98593e+8 
           3150      6.86371e+8 
           3170      6.74251e+8 
           3190      6.58233e+8 
           3210      6.51263e+8 
           3230      6.40118e+8 
           3250      6.29232e+8 
           3270      6.19198e+8 
           3290      6.08177e+8 
           3310      5.98718e+8 
           3330      5.88796e+8 
           3350      5.78262e+8 
           3370      5.69528e+8 
           3390      5.60238e+8 
           3410      5.51126e+8 
           3430      5.40586e+8 
           3450      5.30539e+8 
           3470      5.23189e+8 
           3490       5.1489e+8 
           3510      5.08581e+8 
           3530      5.00748e+8 
           3550      4.92969e+8 
           3570      4.86781e+8 
           3590      4.77339e+8 
           3610      4.70475e+8 
           3630      4.62588e+8 
           3640      4.61017e+8 
           3650      4.55101e+8 
           3670      4.49595e+8 
           3690      4.35134e+8 
           3710      4.30811e+8 
           3730      4.29236e+8 
           3750      4.88348e+8 
           3770      4.97998e+8 
           3790      5.28844e+8 
           3810      5.57201e+8 
           3830      4.81027e+8 
           3850      5.75928e+8 
           3870       5.7892e+8 
           3890      4.56668e+8 
           3910      5.70043e+8 
           3930      5.60793e+8 
           3950      5.52496e+8 
           3970      4.25398e+8 
           3990      5.31559e+8 
           4010       5.2716e+8 
           4030      5.00183e+8 
           4050      5.15834e+8 
           4070      5.05455e+8 
           4090      4.67756e+8 
           4110      4.02508e+8 
           4130      4.75481e+8 
           4150      4.71347e+8 
           4170      4.67009e+8 
           4190      4.61103e+8 
           4210      4.53884e+8 
           4230      4.46759e+8 
           4250       4.3977e+8 
           4270      4.32168e+8 
           4290       4.2606e+8 
           4310      4.17531e+8 
           4330      3.78781e+8 
           4350      3.42516e+8 
           4370      3.97918e+8 
           4390      3.84938e+8 
           4410      3.88583e+8 
           4430      3.81051e+8 
           4450      3.77081e+8 
           4470      3.57537e+8 
           4490      3.65459e+8 
           4510      3.60503e+8 
           4530      3.55142e+8 
           4550      3.49898e+8 
           4570      3.44749e+8 
           4590      3.39749e+8 
           4610      3.34786e+8 
           4630      3.29914e+8 
           4650      3.25061e+8 
           4670      3.20469e+8 
           4690      3.15892e+8 
           4710      3.07713e+8 
           4730      3.06733e+8 
           4750      3.02235e+8 
           4770      2.98299e+8 
           4790      2.94072e+8 
           4810      2.89678e+8 
           4830      2.84296e+8 
           4850      2.62577e+8 
           4870      2.31944e+8 
           4890       2.7177e+8 
           4910      2.69623e+8 
           4930      2.61131e+8 
           4950      2.62961e+8 
           4970      2.59385e+8 
           4990      2.55857e+8 
           5010      2.49556e+8 
           5030       2.4896e+8 
           5050      2.44067e+8 
           5070      2.42321e+8 
           5090      2.39083e+8 
           5110      2.35888e+8 
           5130      2.32749e+8 
           5150      2.29653e+8 
           5170      2.26639e+8 
           5190      2.23665e+8 
           5210      2.20674e+8 
           5230      2.17846e+8 
           5250      2.15001e+8 
           5270      2.12219e+8 
           5290      2.09473e+8 
           5310      2.06776e+8 
           5330      2.04113e+8 
           5350      2.01484e+8 
           5370      1.98928e+8 
           5390      1.96404e+8 
           5410      1.93912e+8 
           5430      1.91425e+8 
           5450      1.89034e+8 
           5470      1.86659e+8 
           5490      1.84327e+8 
           5510      1.82023e+8 
           5530       1.7976e+8 
           5550      1.77525e+8 
           5570       1.7533e+8 
           5590      1.73173e+8 
           5610      1.71031e+8 
           5630      1.68951e+8 
           5650      1.66848e+8 
           5670      1.64829e+8 
           5690      1.62835e+8 
           5710      1.60887e+8 
           5730       1.5894e+8 
           5750      1.57027e+8 
           5770      1.55148e+8 
           5790      1.53292e+8 
           5810      1.51468e+8 
           5830      1.49666e+8 
           5850      1.47896e+8 
           5870      1.42363e+8 
           5890      1.44308e+8 
           5910       1.4274e+8 
           5930      1.41061e+8 
           5950      1.39412e+8 
           5970      1.37803e+8 
           5990      1.36202e+8 
           6010      1.34629e+8 
           6030      1.33075e+8 
           6050      1.31548e+8 
           6070      1.30038e+8 
           6090      1.28556e+8 
           6110        1.271e+8 
           6130       1.2565e+8 
           6150      1.24227e+8 
           6170      1.22829e+8 
           6190      1.21447e+8 
           6210      1.20089e+8 
           6230      1.18737e+8 
           6250      1.17409e+8 
           6270      1.16106e+8 
           6290      1.14826e+8 
           6310       1.1355e+8 
           6330      1.12298e+8 
           6350      1.11022e+8 
           6370      1.09824e+8 
           6390       1.0864e+8 
           6410      1.07459e+8 
           6430       1.0629e+8 
           6450      1.05134e+8 
           6470       1.0399e+8 
           6490      1.02876e+8 
           6510      1.01729e+8 
           6530       1.0025e+8 
           6550      9.58277e+7 
           6570      8.45136e+7 
           6590      9.65243e+7 
           6610      9.63032e+7 
           6630      9.54317e+7 
           6650      9.44837e+7 
           6670      9.27494e+7 
           6690      9.17916e+7 
           6710      9.15381e+7 
           6730      9.05873e+7 
           6750      8.96378e+7 
           6770      8.87145e+7 
           6790      8.77922e+7 
           6810      8.68874e+7 
           6830      8.59916e+7 
           6850      8.51048e+7 
           6870      8.42349e+7 
           6890      8.33736e+7 
           6910      8.25208e+7 
           6930      8.16765e+7 
           6950      8.08561e+7 
           6970      8.00361e+7 
           6990       7.9224e+7 
           7010      7.84276e+7 
           7030       7.7639e+7 
           7050      7.68656e+7 
           7070       7.5028e+7 
           7090      7.53412e+7 
           7110      7.45901e+7 
           7130      7.38513e+7 
           7150      7.31211e+7 
           7170      7.23899e+7 
           7190      7.16889e+7 
           7210      7.09852e+7 
           7230      7.02377e+7 
           7250      6.96049e+7 
           7270      6.89274e+7 
           7290      6.78011e+7 
           7310      6.75878e+7 
           7330      6.69439e+7 
           7350      6.62984e+7 
           7370      6.56609e+7 
           7390      6.50308e+7 
           7410      6.44085e+7 
           7430      6.37933e+7 
           7450      6.31933e+7 
           7470      6.25928e+7 
           7490      6.19997e+7 
           7510      6.13948e+7 
           7530      6.08339e+7 
           7550      6.02615e+7 
           7570      5.96963e+7 
           7590      5.91369e+7 
           7610      5.85845e+7 
           7630      5.80383e+7 
           7650      5.74983e+7 
           7670      5.69658e+7 
           7690       5.6438e+7 
           7710      5.59168e+7 
           7730      5.54027e+7 
           7750      5.48919e+7 
           7770      5.43745e+7 
           7790      5.38933e+7 
           7810      5.33742e+7 
           7830      5.29157e+7 
           7850      5.24765e+7 
           7870      5.20009e+7 
           7890       5.1507e+7 
           7910      5.10699e+7 
           7930      5.06101e+7 
           7950      5.01465e+7 
           7970      4.96633e+7 
           7990      4.92291e+7 
           8010      4.87634e+7 
           8030      4.83361e+7 
           8050      4.79184e+7 
           8070      4.74989e+7 
           8090      4.70209e+7 
           8110      4.66329e+7 
           8130      4.62658e+7 
           8150      4.57917e+7 
           8170      4.54617e+7 
           8190      4.50349e+7 
           8210      4.45235e+7 
           8230      4.42495e+7 
           8250       4.3883e+7 
           8270      4.33377e+7 
           8290      4.30971e+7 
           8310       4.2741e+7 
           8330      4.23677e+7 
           8350      4.18445e+7 
           8370      4.15485e+7 
           8390      4.12228e+7 
           8410      4.08139e+7 
           8430      4.04121e+7 
           8450      3.99314e+7 
           8470      3.93928e+7 
           8490      3.95419e+7 
           8510      3.84745e+7 
           8530      3.91481e+7 
           8550      3.70656e+7 
           8570       3.9179e+7 
           8590      3.69617e+7 
