# Kurucz ODFNEW /NOVER (2003)
# teff = 28000 K (value for the effective temperature for the model. Temperatures are given in K)
# logg = 5 log(cm/s2) (value for Log(G) for the model.)
# meta = 0.5  (value for the Metallicity for the model.)
# lh = 1.25  (l/Hp where l is the  mixing length of the convective element and Hp is the pressure scale height)
# vtur = 2 km/s (Microturbulence velocity)
# alpha = 0  (Alpha)
#
# column 1: WAVELENGTH (ANGSTROM), Wavelength in Angstrom
# column 2: FLUX (ERG/CM2/S/A), Flux in erg/cm2/s/A
          147.2     2.04831e-10 
            151     6.84114e-10 
          155.2      2.42816e-9 
          158.8        6.835e-9 
            162      1.65397e-8 
            166      4.76831e-8 
          170.3      1.40484e-7 
          173.4      2.98702e-7 
          176.8      6.60591e-7 
          180.2      1.41969e-6 
          181.7      1.97089e-6 
          186.1      5.02854e-6 
            191      1.36199e-5 
          193.9      2.40143e-5 
          198.4      5.60856e-5 
          201.8     0.000103916 
            205     0.000182372 
          210.5     0.000462811 
          216.2      0.00115802 
          219.8      0.00201987 
            223      0.00326594 
          226.8      0.00574246 
            230        0.243827 
            234        0.518137 
            240         1.05765 
          246.5         2.23624 
          252.4         4.30178 
          256.8         6.61185 
            260         10.2893 
            264         15.2403 
          268.5         23.8619 
          273.5         37.9674 
          278.5         58.9072 
            284         105.364 
            290         171.172 
            296         273.681 
            301         396.052 
            308         702.357 
            318         1490.54 
            328         2744.27 
            338         5248.77 
            348         9328.33 
            357         41817.4 
            366         86670.6 
            375          119801 
            385          188363 
            395          377104 
            405          522747 
            414          751938 
            422      1.00474e+6 
            430      1.37968e+6 
            441      1.92381e+6 
            451      2.41743e+6 
            460      2.98642e+6 
            470      4.01919e+6 
            480      5.20963e+6 
            490      6.68353e+6 
            500      8.23048e+6 
            506      2.44354e+7 
            512      2.04745e+8 
            520      2.12649e+8 
            530      2.24415e+8 
            540      2.24216e+8 
            550      3.20226e+8 
            560      3.72621e+8 
            570      4.14194e+8 
            580      3.91075e+8 
            590       4.7635e+8 
            600      4.81816e+8 
            610      5.50798e+8 
            620      5.94829e+8 
            630      5.91728e+8 
            640      5.19419e+8 
            650      4.66476e+8 
            658      5.68917e+8 
            665      6.75953e+8 
            675      7.25412e+8 
            685       6.9069e+8 
            695      9.61897e+8 
            705      9.29876e+8 
            716      1.07473e+9 
            726      1.07956e+9 
            735      1.09855e+9 
            745      1.22978e+9 
            755      1.27474e+9 
            765       1.3427e+9 
            775      1.40549e+9 
            785       1.4835e+9 
            795       1.4972e+9 
            805      1.51174e+9 
            815      1.52348e+9 
            825      1.64563e+9 
            835      1.36611e+9 
            845      1.61476e+9 
            855      1.60282e+9 
            865      1.69276e+9 
            875      1.76805e+9 
            885      1.88378e+9 
            895      1.93908e+9 
            905      1.87499e+9 
            915      2.08428e+9 
            925      7.63255e+9 
            935     1.62741e+10 
            945     3.27353e+10 
            955     4.32318e+10 
            965     5.37691e+10 
            975       9.3209e+9 
            985     4.43273e+10 
            995     4.19948e+10 
           1005     4.95368e+10 
           1015     5.07596e+10 
           1025     2.38783e+10 
           1035      4.1108e+10 
           1045     6.26247e+10 
           1055     5.72629e+10 
           1065     4.29433e+10 
           1075     5.02947e+10 
           1085     4.51637e+10 
           1095     5.06202e+10 
           1105      4.5799e+10 
           1115     4.40842e+10 
           1125     3.21952e+10 
           1135     4.43574e+10 
           1145     3.96406e+10 
           1155     4.02167e+10 
           1165     3.89852e+10 
           1175     2.07249e+10 
           1185     3.60277e+10 
           1195     3.39051e+10 
           1205     2.49815e+10 
           1215     1.70758e+10 
           1225      2.9817e+10 
           1235     3.54691e+10 
           1245     3.39343e+10 
           1255     3.33717e+10 
           1265     3.47437e+10 
           1275     3.58879e+10 
           1285     3.60183e+10 
           1295     2.58787e+10 
           1305     2.78041e+10 
           1315     3.50515e+10 
           1325     3.21125e+10 
           1335     3.12485e+10 
           1345     3.11063e+10 
           1355     3.08643e+10 
           1365     2.76983e+10 
           1375     2.64998e+10 
           1385     2.53212e+10 
           1395     1.70076e+10 
           1405     1.87939e+10 
           1415     2.21497e+10 
           1425     2.13204e+10 
           1435     2.25043e+10 
           1442     2.30835e+10 
           1447      2.2757e+10 
           1455     2.17582e+10 
           1465     1.96981e+10 
           1475     2.03704e+10 
           1485     2.00697e+10 
           1495     1.95897e+10 
           1505     1.72046e+10 
           1512     1.55057e+10 
           1517     1.59672e+10 
           1525     1.64987e+10 
           1535     1.34631e+10 
           1545     1.25247e+10 
           1555     1.23863e+10 
           1565     1.37501e+10 
           1575     1.47223e+10 
           1585     1.49191e+10 
           1595     1.46855e+10 
           1605      1.5091e+10 
           1615     1.44901e+10 
           1625     1.43608e+10 
           1635     1.52962e+10 
           1645     1.53795e+10 
           1655      1.5208e+10 
           1665     1.54362e+10 
           1672     1.44394e+10 
           1677     1.64378e+10 
           1685     1.56677e+10 
           1695     1.47045e+10 
           1705     1.43187e+10 
           1715     1.34977e+10 
           1725     1.29922e+10 
           1735     1.36939e+10 
           1745      1.3457e+10 
           1755     1.34533e+10 
           1765      1.3294e+10 
           1775     1.22861e+10 
           1785     1.26242e+10 
           1795     1.29761e+10 
           1805     1.30663e+10 
           1815     1.16053e+10 
           1825     1.20203e+10 
           1835     1.16267e+10 
           1845       1.049e+10 
           1855     1.07855e+10 
           1865     1.09047e+10 
           1875      1.1302e+10 
           1885      9.99378e+9 
           1895       9.3227e+9 
           1905     1.01382e+10 
           1915      9.44447e+9 
           1925      8.82069e+9 
           1935      9.54978e+9 
           1945      9.82258e+9 
           1955      8.66403e+9 
           1967      9.51695e+9 
           1976      9.98224e+9 
           1984      9.14486e+9 
           1995      9.03416e+9 
           2005      9.41443e+9 
           2015      9.27417e+9 
           2025      9.51143e+9 
           2035      8.61545e+9 
           2045      8.79417e+9 
           2055      8.24072e+9 
           2065      8.20448e+9 
           2074      8.55443e+9 
           2078       7.7331e+9 
           2085      8.17565e+9 
           2095      7.73892e+9 
           2105      8.21361e+9 
           2115      8.26919e+9 
           2125      8.30008e+9 
           2135      8.11994e+9 
           2145      7.70306e+9 
           2155      8.03223e+9 
           2165      7.94478e+9 
           2175      7.86106e+9 
           2185      7.57187e+9 
           2195      7.69594e+9 
           2205      7.67046e+9 
           2215      7.51328e+9 
           2225      7.30679e+9 
           2235      7.17503e+9 
           2245      7.22517e+9 
           2255      6.95675e+9 
           2265      7.05489e+9 
           2275      6.92778e+9 
           2285       6.8833e+9 
           2295      6.09688e+9 
           2305      6.60957e+9 
           2315      6.42079e+9 
           2325      6.36637e+9 
           2335      6.18925e+9 
           2345      6.24132e+9 
           2355      6.17681e+9 
           2365      6.11364e+9 
           2375      5.93884e+9 
           2385      5.89689e+9 
           2395       5.8226e+9 
           2405      5.71937e+9 
           2415      5.67197e+9 
           2425      5.65034e+9 
           2435      5.46113e+9 
           2445      5.47535e+9 
           2455      5.46752e+9 
           2465      5.37545e+9 
           2475      5.28444e+9 
           2485      5.15292e+9 
           2495      4.26099e+9 
           2505      4.95996e+9 
           2513      4.73306e+9 
           2518      4.91292e+9 
           2525      4.90474e+9 
           2535      4.86073e+9 
           2545      4.66516e+9 
           2555      4.71331e+9 
           2565      4.63873e+9 
           2575      4.64362e+9 
           2585      4.58966e+9 
           2595      4.54177e+9 
           2605      4.48571e+9 
           2615      4.41714e+9 
           2625      4.38968e+9 
           2635      4.34882e+9 
           2645      4.27055e+9 
           2655      4.25731e+9 
           2665      4.04072e+9 
           2675      4.06669e+9 
           2685       4.0654e+9 
           2695      3.88938e+9 
           2705      3.77238e+9 
           2715      3.79606e+9 
           2725      3.81847e+9 
           2735      3.77937e+9 
           2745      3.69029e+9 
           2755       3.6759e+9 
           2765      3.62428e+9 
           2775      3.67306e+9 
           2785      3.60316e+9 
           2795      3.44698e+9 
           2805      3.47904e+9 
           2815      3.50704e+9 
           2825      3.44633e+9 
           2835      3.29663e+9 
           2845      3.35844e+9 
           2855      3.28975e+9 
           2865      3.28835e+9 
           2875      3.24952e+9 
           2885      3.20132e+9 
           2895      3.15277e+9 
           2910      3.07733e+9 
           2930      3.05679e+9 
           2950      2.95189e+9 
           2970      2.90992e+9 
           2990      2.83176e+9 
           3010      2.71633e+9 
           3030      2.70907e+9 
           3050      2.66851e+9 
           3070      2.63414e+9 
           3090      2.50987e+9 
           3110      2.51232e+9 
           3130      2.43867e+9 
           3150      2.40313e+9 
           3170      2.33047e+9 
           3190      2.28716e+9 
           3210      2.25871e+9 
           3230      2.19699e+9 
           3250      2.16757e+9 
           3270      2.11218e+9 
           3290       2.0707e+9 
           3310      2.03059e+9 
           3330      1.98134e+9 
           3350      1.94802e+9 
           3370      1.90406e+9 
           3390      1.87858e+9 
           3410      1.84044e+9 
           3430      1.80242e+9 
           3450         1.76e+9 
           3470      1.72657e+9 
           3490      1.69038e+9 
           3510      1.65952e+9 
           3530      1.63654e+9 
           3550      1.60365e+9 
           3570      1.58121e+9 
           3590       1.5262e+9 
           3610      1.50558e+9 
           3630      1.48045e+9 
           3640      1.48098e+9 
           3650       1.4567e+9 
           3670      1.44022e+9 
           3690      1.41569e+9 
           3710      1.35927e+9 
           3730      1.32107e+9 
           3750      1.30149e+9 
           3770      1.25586e+9 
           3790      1.29392e+9 
           3810      1.33726e+9 
           3830      1.17329e+9 
           3850       1.3546e+9 
           3870      1.35105e+9 
           3890      1.09597e+9 
           3910      1.36115e+9 
           3930      1.32906e+9 
           3950       1.2954e+9 
           3970      1.01642e+9 
           3990      1.25146e+9 
           4010      1.26065e+9 
           4030      1.17738e+9 
           4050      1.21679e+9 
           4070      1.14257e+9 
           4090      1.04962e+9 
           4110      9.38027e+8 
           4130          1.1e+9 
           4150      1.09732e+9 
           4170      1.09887e+9 
           4190      1.08647e+9 
           4210      1.07902e+9 
           4230      1.05221e+9 
           4250       1.0134e+9 
           4270      9.84114e+8 
           4290      9.71008e+8 
           4310      9.30096e+8 
           4330      8.41532e+8 
           4350      7.76912e+8 
           4370      8.82933e+8 
           4390      8.85403e+8 
           4410      8.84519e+8 
           4430      8.81715e+8 
           4450      8.64751e+8 
           4470      8.15909e+8 
           4490       8.3777e+8 
           4510      8.34598e+8 
           4530      8.21866e+8 
           4550      8.11454e+8 
           4570      7.97007e+8 
           4590      7.82495e+8 
           4610      7.58897e+8 
           4630      7.45589e+8 
           4650       7.1978e+8 
           4670      7.27517e+8 
           4690       7.2225e+8 
           4710      6.89281e+8 
           4730      6.97019e+8 
           4750      6.85952e+8 
           4770      6.87845e+8 
           4790      6.73673e+8 
           4810      6.56001e+8 
           4830       6.4018e+8 
           4850      5.85806e+8 
           4870      5.22804e+8 
           4890      6.12482e+8 
           4910       6.1005e+8 
           4930      5.86122e+8 
           4950      5.91497e+8 
           4970      5.90162e+8 
           4990       5.7945e+8 
           5010      5.49888e+8 
           5030      5.59997e+8 
           5050      5.46573e+8 
           5070      5.47209e+8 
           5090      5.36664e+8 
           5110      5.26917e+8 
           5130      5.12596e+8 
           5150      5.07798e+8 
           5170      5.06019e+8 
           5190      5.00183e+8 
           5210      4.91437e+8 
           5230      4.85537e+8 
           5250      4.79015e+8 
           5270      4.70273e+8 
           5290      4.65916e+8 
           5310      4.58792e+8 
           5330       4.5269e+8 
           5350      4.45165e+8 
           5370      4.40823e+8 
           5390      4.34264e+8 
           5410      4.28923e+8 
           5430      4.22498e+8 
           5450      4.16333e+8 
           5470      4.10613e+8 
           5490      4.05239e+8 
           5510      4.01136e+8 
           5530      3.94125e+8 
           5550      3.90654e+8 
           5570      3.85061e+8 
           5590      3.80429e+8 
           5610      3.74921e+8 
           5630      3.70574e+8 
           5650      3.63081e+8 
           5670      3.56224e+8 
           5690      3.50233e+8 
           5710      3.48916e+8 
           5730      3.45521e+8 
           5750      3.39555e+8 
           5770       3.3768e+8 
           5790      3.32733e+8 
           5810      3.28605e+8 
           5830      3.23217e+8 
           5850      3.19855e+8 
           5870      3.05194e+8 
           5890      3.07501e+8 
           5910       3.0621e+8 
           5930      3.01963e+8 
           5950      2.97883e+8 
           5970      2.97222e+8 
           5990      2.91083e+8 
           6010      2.89221e+8 
           6030      2.84633e+8 
           6050      2.81529e+8 
           6070      2.78869e+8 
           6090      2.75537e+8 
           6110      2.72092e+8 
           6130      2.69186e+8 
           6150      2.63574e+8 
           6170      2.61274e+8 
           6190      2.59097e+8 
           6210      2.56444e+8 
           6230      2.53587e+8 
           6250      2.49372e+8 
           6270      2.46864e+8 
           6290      2.44392e+8 
           6310      2.41123e+8 
           6330      2.38802e+8 
           6350      2.34881e+8 
           6370      2.33111e+8 
           6390       2.3027e+8 
           6410      2.27616e+8 
           6430      2.25291e+8 
           6450      2.22492e+8 
           6470      2.18437e+8 
           6490      2.16395e+8 
           6510      2.14045e+8 
           6530      2.10042e+8 
           6550      1.98952e+8 
           6570       1.7451e+8 
           6590      2.00101e+8 
           6610      2.01548e+8 
           6630      2.00239e+8 
           6650      1.98032e+8 
           6670      1.93577e+8 
           6690      1.91571e+8 
           6710      1.91787e+8 
           6730      1.88935e+8 
           6750      1.87668e+8 
           6770      1.85624e+8 
           6790      1.81263e+8 
           6810      1.81013e+8 
           6830      1.79009e+8 
           6850      1.77468e+8 
           6870      1.75494e+8 
           6890      1.73231e+8 
           6910      1.70999e+8 
           6930      1.69848e+8 
           6950        1.681e+8 
           6970      1.66307e+8 
           6990      1.64439e+8 
           7010       1.6262e+8 
           7030      1.60805e+8 
           7050      1.59098e+8 
           7070      1.54408e+8 
           7090      1.55344e+8 
           7110      1.52884e+8 
           7130      1.51383e+8 
           7150      1.50426e+8 
           7170      1.49215e+8 
           7190      1.47883e+8 
           7210      1.46332e+8 
           7230      1.42107e+8 
           7250      1.42901e+8 
           7270      1.41788e+8 
           7290      1.39083e+8 
           7310       1.3883e+8 
           7330       1.3731e+8 
           7350      1.36019e+8 
           7370      1.34672e+8 
           7390      1.33289e+8 
           7410      1.31932e+8 
           7430      1.30499e+8 
           7450      1.29223e+8 
           7470      1.26985e+8 
           7490      1.26469e+8 
           7510      1.25269e+8 
           7530      1.23854e+8 
           7550      1.22874e+8 
           7570      1.21667e+8 
           7590      1.20412e+8 
           7610      1.18934e+8 
           7630      1.17988e+8 
           7650      1.16851e+8 
           7670       1.1573e+8 
           7690      1.14574e+8 
           7710      1.13398e+8 
           7730      1.12232e+8 
           7750      1.11283e+8 
           7770      1.09556e+8 
           7790      1.09125e+8 
           7810      1.08023e+8 
           7830      1.07024e+8 
           7850      1.05929e+8 
           7870      1.04685e+8 
           7890      1.03357e+8 
           7910      1.02744e+8 
           7930      1.01735e+8 
           7950      1.00765e+8 
           7970      9.99102e+7 
           7990        9.885e+7 
           8010      9.79753e+7 
           8030      9.70088e+7 
           8050      9.61437e+7 
           8070      9.52859e+7 
           8090      9.43146e+7 
           8110      9.26701e+7 
           8130      9.26479e+7 
           8150      9.17853e+7 
           8170      9.10148e+7 
           8190      8.94925e+7 
           8210      8.88111e+7 
           8230      8.76291e+7 
           8250      8.75534e+7 
           8270      8.57093e+7 
           8290      8.58609e+7 
           8310       8.5219e+7 
           8330      8.44791e+7 
           8350        8.334e+7 
           8370      8.27217e+7 
           8390      8.22261e+7 
           8410      8.13828e+7 
           8430      8.07214e+7 
           8450       7.9237e+7 
           8470      7.92991e+7 
           8490      7.83563e+7 
           8510      7.76971e+7 
           8530      7.69811e+7 
           8550      7.61936e+7 
           8570      7.58692e+7 
           8590      7.39183e+7 
