# Kurucz ODFNEW /NOVER (2003)
# teff = 22000 K (value for the effective temperature for the model. Temperatures are given in K)
# logg = 4 log(cm/s2) (value for Log(G) for the model.)
# meta = -1  (value for the Metallicity for the model.)
# lh = 1.25  (l/Hp where l is the  mixing length of the convective element and Hp is the pressure scale height)
# vtur = 2 km/s (Microturbulence velocity)
# alpha = 0  (Alpha)
#
# column 1: WAVELENGTH (ANGSTROM), Wavelength in Angstrom
# column 2: FLUX (ERG/CM2/S/A), Flux in erg/cm2/s/A
          147.2     1.84106e-17 
            151     1.00852e-16 
          155.2     6.03873e-16 
          158.8     2.61093e-15 
            162     9.12324e-15 
            166     4.08885e-14 
          170.3     1.90417e-13 
          173.4     5.51959e-13 
          176.8     1.70237e-12 
          180.2     5.04138e-12 
          181.7     8.03806e-12 
          186.1      3.0302e-11 
            191     1.23848e-10 
          193.9     2.75714e-10 
          198.4     9.12265e-10 
          201.8      2.17574e-9 
            205      4.80331e-9 
          210.5      1.77149e-8 
          216.2      6.38722e-8 
          219.8      1.38716e-7 
            223      2.70564e-7 
          226.8      5.83445e-7 
            230       5.7594e-6 
            234      1.38958e-5 
            240       3.8274e-5 
          246.5     0.000108216 
          252.4     0.000267809 
          256.8     0.000495997 
            260     0.000799101 
            264      0.00138311 
          268.5      0.00250931 
          273.5      0.00474745 
          278.5      0.00879528 
            284       0.0168929 
            290       0.0333614 
            296       0.0639334 
            301        0.107774 
            308        0.213257 
            318        0.562166 
            328         1.35863 
            338         3.13327 
            348         6.84499 
            357         13.3563 
            366         25.1822 
            375         45.5451 
            385          85.464 
            395         154.584 
            405         271.227 
            414         439.513 
            422         659.854 
            430         974.179 
            441         1634.16 
            451         2550.41 
            460         3729.55 
            470         5597.05 
            480         8229.51 
            490         11912.4 
            500         16951.3 
            506          122368 
            512          408426 
            520          514603 
            530          712648 
            540          799904 
            550      1.14779e+6 
            560      1.38054e+6 
            570      1.72502e+6 
            580       1.7627e+6 
            590      2.35334e+6 
            600      2.91139e+6 
            610      3.50963e+6 
            620      4.06248e+6 
            630      4.76716e+6 
            640      5.29987e+6 
            650      5.88679e+6 
            658       7.0342e+6 
            665      7.71033e+6 
            675      8.53879e+6 
            685      9.59437e+6 
            695      1.12771e+7 
            705      1.25065e+7 
            716      1.42276e+7 
            726      1.56745e+7 
            735        1.724e+7 
            745      1.94017e+7 
            755       2.1468e+7 
            765      2.36102e+7 
            775      2.60582e+7 
            785      2.86161e+7 
            795      3.09454e+7 
            805      3.36079e+7 
            815      3.61844e+7 
            825      3.95695e+7 
            835       4.1656e+7 
            845      4.53284e+7 
            855      4.85392e+7 
            865      5.24644e+7 
            875      5.66798e+7 
            885      6.10146e+7 
            895      6.50249e+7 
            905      6.78046e+7 
            915      1.06711e+8 
            925      6.41029e+8 
            935      2.18158e+9 
            945       7.1353e+9 
            955     1.09872e+10 
            965     1.44089e+10 
            975      3.70759e+9 
            985     1.65458e+10 
            995     1.58447e+10 
           1005     1.70311e+10 
           1015     1.53105e+10 
           1025      4.32658e+9 
           1035      1.2075e+10 
           1045     1.80785e+10 
           1055     1.72777e+10 
           1065     1.51871e+10 
           1075     1.67171e+10 
           1085     1.51837e+10 
           1095     1.65189e+10 
           1105     1.53061e+10 
           1115     1.52268e+10 
           1125      1.3852e+10 
           1135     1.51636e+10 
           1145     1.39873e+10 
           1155     1.44767e+10 
           1165     1.44943e+10 
           1175     1.15093e+10 
           1185     1.39483e+10 
           1195     1.24603e+10 
           1205      9.16277e+9 
           1215      3.30022e+9 
           1225     1.00344e+10 
           1235     1.23346e+10 
           1245     1.24815e+10 
           1255     1.21381e+10 
           1265     1.19013e+10 
           1275     1.21195e+10 
           1285     1.18787e+10 
           1295     1.00123e+10 
           1305     1.00897e+10 
           1315     1.12802e+10 
           1325     1.07532e+10 
           1335     1.02317e+10 
           1345     1.04389e+10 
           1355     1.04112e+10 
           1365      9.90094e+9 
           1375      9.73275e+9 
           1385      9.68167e+9 
           1395      8.74946e+9 
           1405      8.95074e+9 
           1415      9.02299e+9 
           1425      8.87713e+9 
           1435      8.86269e+9 
           1442      8.91672e+9 
           1447      8.76237e+9 
           1455      8.60204e+9 
           1465      8.27998e+9 
           1475      8.18506e+9 
           1485      7.99371e+9 
           1495      7.87769e+9 
           1505      7.49459e+9 
           1512      7.05095e+9 
           1517      7.18053e+9 
           1525       7.1885e+9 
           1535      6.65369e+9 
           1545      6.73939e+9 
           1555      6.43035e+9 
           1565      6.59885e+9 
           1575      6.70501e+9 
           1585      6.59547e+9 
           1595        6.573e+9 
           1605      6.38606e+9 
           1615      6.27934e+9 
           1625      6.21542e+9 
           1635      6.28309e+9 
           1645      6.15681e+9 
           1655      6.03422e+9 
           1665      6.09132e+9 
           1672      5.90014e+9 
           1677      6.03822e+9 
           1685      5.94625e+9 
           1695       5.7592e+9 
           1705      5.57145e+9 
           1715       5.3814e+9 
           1725      5.30589e+9 
           1735      5.34403e+9 
           1745      5.22654e+9 
           1755       5.2546e+9 
           1765      5.00258e+9 
           1775      4.95797e+9 
           1785      4.94254e+9 
           1795      4.96947e+9 
           1805      4.93572e+9 
           1815      4.68535e+9 
           1825      4.72464e+9 
           1835      4.61678e+9 
           1845      4.32538e+9 
           1855      4.25523e+9 
           1865      4.29138e+9 
           1875      4.37689e+9 
           1885      4.05004e+9 
           1895      3.84091e+9 
           1905      4.02949e+9 
           1915      3.86311e+9 
           1925      3.75212e+9 
           1935      3.84515e+9 
           1945      3.88707e+9 
           1955      3.62563e+9 
           1967      3.76964e+9 
           1976      3.86284e+9 
           1984      3.65325e+9 
           1995      3.55941e+9 
           2005      3.60449e+9 
           2015      3.59534e+9 
           2025      3.63314e+9 
           2035      3.44569e+9 
           2045      3.42784e+9 
           2055      3.33399e+9 
           2065      3.35275e+9 
           2074      3.43135e+9 
           2078      3.26713e+9 
           2085       3.2974e+9 
           2095      3.17407e+9 
           2105      3.21846e+9 
           2115      3.19046e+9 
           2125      3.21565e+9 
           2135      3.15113e+9 
           2145      3.04837e+9 
           2155      3.08464e+9 
           2165      3.04817e+9 
           2175      3.00245e+9 
           2185      2.96114e+9 
           2195        2.949e+9 
           2205      2.90565e+9 
           2215      2.86811e+9 
           2225       2.8118e+9 
           2235      2.78398e+9 
           2245      2.76977e+9 
           2255       2.7134e+9 
           2265      2.70624e+9 
           2275      2.67042e+9 
           2285      2.65272e+9 
           2295      2.57107e+9 
           2305      2.57945e+9 
           2315      2.52909e+9 
           2325      2.50376e+9 
           2335      2.44747e+9 
           2345      2.41513e+9 
           2355      2.41694e+9 
           2365      2.37317e+9 
           2375      2.34976e+9 
           2385      2.31294e+9 
           2395      2.29688e+9 
           2405      2.26408e+9 
           2415      2.23355e+9 
           2425      2.23176e+9 
           2435      2.18951e+9 
           2445      2.17214e+9 
           2455      2.15942e+9 
           2465      2.12402e+9 
           2475      2.10234e+9 
           2485      2.07874e+9 
           2495      2.01369e+9 
           2505      2.03043e+9 
           2513      1.97141e+9 
           2518      2.00037e+9 
           2525      1.97694e+9 
           2535      1.94707e+9 
           2545      1.91772e+9 
           2555       1.9208e+9 
           2565      1.89217e+9 
           2575      1.88392e+9 
           2585      1.86323e+9 
           2595      1.84191e+9 
           2605      1.83118e+9 
           2615      1.81285e+9 
           2625      1.79513e+9 
           2635      1.77176e+9 
           2645      1.76528e+9 
           2655      1.74554e+9 
           2665      1.71576e+9 
           2675      1.70253e+9 
           2685      1.69578e+9 
           2695      1.65889e+9 
           2705      1.65581e+9 
           2715      1.63715e+9 
           2725      1.60663e+9 
           2735      1.60579e+9 
           2745      1.56626e+9 
           2755      1.55709e+9 
           2765      1.53861e+9 
           2775      1.54119e+9 
           2785      1.52222e+9 
           2795      1.47619e+9 
           2805      1.48178e+9 
           2815      1.47868e+9 
           2825      1.44841e+9 
           2835       1.4218e+9 
           2845      1.43021e+9 
           2855      1.41646e+9 
           2865      1.40485e+9 
           2875      1.38958e+9 
           2885      1.37616e+9 
           2895      1.36186e+9 
           2910      1.34096e+9 
           2930      1.31223e+9 
           2950      1.27826e+9 
           2970      1.26307e+9 
           2990      1.23595e+9 
           3010      1.21234e+9 
           3030      1.19155e+9 
           3050      1.16848e+9 
           3070      1.14611e+9 
           3090      1.12173e+9 
           3110      1.10248e+9 
           3130      1.08286e+9 
           3150      1.06247e+9 
           3170      1.04165e+9 
           3190      1.01412e+9 
           3210      1.00364e+9 
           3230      9.84893e+8 
           3250      9.66995e+8 
           3270      9.50376e+8 
           3290      9.31756e+8 
           3310       9.1661e+8 
           3330      9.00062e+8 
           3350      8.82364e+8 
           3370       8.6824e+8 
           3390      8.53043e+8 
           3410      8.38076e+8 
           3430      8.19526e+8 
           3450       8.0236e+8 
           3470      7.90822e+8 
           3490      7.77145e+8 
           3510       7.6654e+8 
           3530      7.55158e+8 
           3550      7.42578e+8 
           3570       7.3366e+8 
           3590      7.16768e+8 
           3610        7.059e+8 
           3630      6.93311e+8 
           3640      6.92009e+8 
           3650      6.80531e+8 
           3670      6.72378e+8 
           3690      6.57003e+8 
           3710      6.36116e+8 
           3730      6.14664e+8 
           3750      6.59561e+8 
           3770      6.65543e+8 
           3790      7.05956e+8 
           3810      7.39154e+8 
           3830      6.41181e+8 
           3850      7.63295e+8 
           3870      7.69764e+8 
           3890      6.07364e+8 
           3910      7.59565e+8 
           3930      7.45244e+8 
           3950      7.35446e+8 
           3970      5.65325e+8 
           3990      7.05464e+8 
           4010      7.02755e+8 
           4030       6.6091e+8 
           4050      6.87059e+8 
           4070      6.70589e+8 
           4090      6.15717e+8 
           4110      5.34492e+8 
           4130       6.2916e+8 
           4150      6.25363e+8 
           4170      6.20614e+8 
           4190      6.12858e+8 
           4210      6.03584e+8 
           4230      5.93363e+8 
           4250      5.83224e+8 
           4270      5.70004e+8 
           4290      5.63822e+8 
           4310      5.51341e+8 
           4330      4.96508e+8 
           4350      4.51279e+8 
           4370      5.23976e+8 
           4390      5.05822e+8 
           4410      5.12499e+8 
           4430      5.02872e+8 
           4450      4.97734e+8 
           4470      4.67742e+8 
           4490      4.80851e+8 
           4510      4.75484e+8 
           4530       4.6788e+8 
           4550      4.60628e+8 
           4570      4.53557e+8 
           4590      4.46984e+8 
           4610      4.40047e+8 
           4630      4.33301e+8 
           4650      4.25888e+8 
           4670      4.20711e+8 
           4690      4.14938e+8 
           4710      4.02676e+8 
           4730      4.01299e+8 
           4750      3.95004e+8 
           4770      3.91252e+8 
           4790      3.85414e+8 
           4810      3.78861e+8 
           4830      3.71305e+8 
           4850       3.4099e+8 
           4870      3.03361e+8 
           4890      3.54451e+8 
           4910      3.52053e+8 
           4930      3.39283e+8 
           4950      3.43388e+8 
           4970      3.38785e+8 
           4990      3.33941e+8 
           5010      3.24211e+8 
           5030      3.24616e+8 
           5050      3.17323e+8 
           5070      3.15806e+8 
           5090      3.11439e+8 
           5110      3.07087e+8 
           5130      3.02593e+8 
           5150      2.98472e+8 
           5170        2.948e+8 
           5190      2.90812e+8 
           5210      2.86502e+8 
           5230      2.83047e+8 
           5250      2.79268e+8 
           5270      2.75498e+8 
           5290      2.71897e+8 
           5310      2.68263e+8 
           5330      2.64689e+8 
           5350      2.61068e+8 
           5370       2.5786e+8 
           5390      2.54472e+8 
           5410      2.51165e+8 
           5430      2.47747e+8 
           5450      2.44625e+8 
           5470      2.41467e+8 
           5490      2.38411e+8 
           5510      2.35356e+8 
           5530      2.32351e+8 
           5550      2.29419e+8 
           5570      2.26488e+8 
           5590       2.2364e+8 
           5610      2.20768e+8 
           5630      2.18061e+8 
           5650      2.15056e+8 
           5670      2.12335e+8 
           5690      2.09681e+8 
           5710      2.07337e+8 
           5730      2.04791e+8 
           5750      2.02218e+8 
           5770      1.99811e+8 
           5790      1.97354e+8 
           5810      1.94949e+8 
           5830      1.92549e+8 
           5850      1.90233e+8 
           5870      1.82193e+8 
           5890      1.85117e+8 
           5910      1.83403e+8 
           5930      1.81193e+8 
           5950      1.78955e+8 
           5970      1.76934e+8 
           5990      1.74778e+8 
           6010      1.72761e+8 
           6030      1.70716e+8 
           6050      1.68714e+8 
           6070      1.66745e+8 
           6090      1.64778e+8 
           6110      1.62874e+8 
           6130       1.6098e+8 
           6150      1.59019e+8 
           6170      1.57257e+8 
           6190      1.55466e+8 
           6210      1.53675e+8 
           6230      1.51913e+8 
           6250      1.50142e+8 
           6270      1.48467e+8 
           6290      1.46782e+8 
           6310      1.45096e+8 
           6330      1.43485e+8 
           6350      1.41685e+8 
           6370      1.40193e+8 
           6390      1.38699e+8 
           6410      1.37147e+8 
           6430      1.35639e+8 
           6450      1.34129e+8 
           6470       1.3259e+8 
           6490      1.31148e+8 
           6510      1.29615e+8 
           6530      1.27638e+8 
           6550      1.21644e+8 
           6570      1.07665e+8 
           6590      1.22375e+8 
           6610      1.22515e+8 
           6630      1.21477e+8 
           6650      1.20254e+8 
           6670      1.17764e+8 
           6690       1.1653e+8 
           6710      1.16431e+8 
           6730      1.15174e+8 
           6750      1.13963e+8 
           6770      1.12757e+8 
           6790       1.1144e+8 
           6810      1.10372e+8 
           6830       1.0921e+8 
           6850      1.08067e+8 
           6870      1.06936e+8 
           6890      1.05816e+8 
           6910      1.04715e+8 
           6930      1.03617e+8 
           6950      1.02554e+8 
           6970      1.01493e+8 
           6990      1.00443e+8 
           7010      9.94183e+7 
           7030      9.83961e+7 
           7050      9.73838e+7 
           7070      9.48439e+7 
           7090      9.54187e+7 
           7110       9.4443e+7 
           7130      9.34915e+7 
           7150      9.25418e+7 
           7170      9.15939e+7 
           7190      9.06988e+7 
           7210      8.97905e+7 
           7230      8.84152e+7 
           7250      8.79997e+7 
           7270      8.71313e+7 
           7290      8.55622e+7 
           7310      8.53978e+7 
           7330      8.45678e+7 
           7350      8.37386e+7 
           7370      8.29171e+7 
           7390      8.21033e+7 
           7410      8.13039e+7 
           7430      8.05051e+7 
           7450      7.97409e+7 
           7470      7.89566e+7 
           7490      7.81998e+7 
           7510      7.74164e+7 
           7530      7.67001e+7 
           7550      7.59638e+7 
           7570      7.52408e+7 
           7590      7.45178e+7 
           7610      7.38079e+7 
           7630      7.31044e+7 
           7650      7.24137e+7 
           7670      7.17291e+7 
           7690      7.10507e+7 
           7710      7.03784e+7 
           7730      6.97184e+7 
           7750      6.90642e+7 
           7770      6.83285e+7 
           7790      6.77856e+7 
           7810      6.70992e+7 
           7830      6.65295e+7 
           7850      6.59647e+7 
           7870      6.53562e+7 
           7890      6.46924e+7 
           7910       6.4179e+7 
           7930      6.35801e+7 
           7950       6.2903e+7 
           7970      6.22556e+7 
           7990      6.16846e+7 
           8010      6.11245e+7 
           8030      6.05692e+7 
           8050      6.00302e+7 
           8070      5.95537e+7 
           8090      5.88912e+7 
           8110      5.84522e+7 
           8130      5.79769e+7 
           8150      5.73751e+7 
           8170       5.6976e+7 
           8190      5.63835e+7 
           8210      5.57269e+7 
           8230      5.53957e+7 
           8250      5.49376e+7 
           8270      5.41654e+7 
           8290      5.39208e+7 
           8310      5.34701e+7 
           8330      5.29846e+7 
           8350      5.22539e+7 
           8370      5.19588e+7 
           8390      5.15894e+7 
           8410      5.11254e+7 
           8430      5.06085e+7 
           8450       4.9822e+7 
           8470      4.96164e+7 
           8490      4.92131e+7 
           8510      4.85633e+7 
           8530      4.84658e+7 
           8550      4.70896e+7 
           8570      4.83011e+7 
           8590      4.60823e+7 
