# Kurucz ODFNEW /NOVER (2003)
# teff = 8250 K (value for the effective temperature for the model. Temperatures are given in K)
# logg = 4.5 log(cm/s2) (value for Log(G) for the model.)
# meta = -0.5  (value for the Metallicity for the model.)
# lh = 1.25  (l/Hp where l is the  mixing length of the convective element and Hp is the pressure scale height)
# vtur = 2 km/s (Microturbulence velocity)
# alpha = 0  (Alpha)
#
# column 1: WAVELENGTH (ANGSTROM), Wavelength in Angstrom
# column 2: FLUX (ERG/CM2/S/A), Flux in erg/cm2/s/A
            318     3.95565e-23 
            328     5.29566e-22 
            338     5.41859e-21 
            348     4.80897e-20 
            357     3.07889e-19 
            366     1.79348e-18 
            375     9.57167e-18 
            385     5.59484e-17 
            395     2.98076e-16 
            405     1.69953e-16 
            414     6.10804e-16 
            422     1.81238e-15 
            430     5.14931e-15 
            441     2.02563e-14 
            451     6.60644e-14 
            460     1.82614e-13 
            470     5.38114e-13 
            480     1.50976e-12 
            490     4.04894e-12 
            500     1.03932e-11 
            506     2.37674e-11 
            512     4.56598e-11 
            520     9.06658e-11 
            530     2.08576e-10 
            540     4.55861e-10 
            550     9.79235e-10 
            560      2.02792e-9 
            570      4.08222e-9 
            580      7.90695e-9 
            590      1.52824e-8 
            600      2.85027e-8 
            610      5.19757e-8 
            620      9.27142e-8 
            630      1.62025e-7 
            640      2.77764e-7 
            650       4.6751e-7 
            658      6.99914e-7 
            665      9.87006e-7 
            675      1.59134e-6 
            685      2.52529e-6 
            695       3.9475e-6 
            705       6.0733e-6 
            716      9.62664e-6 
            726      1.44166e-5 
            735      2.05155e-5 
            745      3.00162e-5 
            755      4.34132e-5 
            765      6.21011e-5 
            775      8.78873e-5 
            785     0.000123132 
            795     0.000169998 
            805     0.000234313 
            815     0.000319346 
            825     0.000431048 
            835     0.000576961 
            845     0.000766095 
            855      0.00100925 
            865      0.00131962 
            875      0.00171102 
            885      0.00220783 
            895      0.00282698 
            905      0.00358972 
            915         1.55237 
            925         7.64312 
            935         10.7676 
            945         14.7262 
            955         20.0772 
            965         25.6292 
            975         28.2167 
            985         38.0777 
            995         44.8183 
           1005         57.6046 
           1015         68.9484 
           1025          71.138 
           1035         98.6219 
           1045         120.171 
           1055         143.523 
           1065         167.409 
           1075         201.997 
           1085          240.43 
           1095         277.464 
           1105         648.942 
           1115         1678.37 
           1125         2226.73 
           1135         2983.48 
           1145         3552.28 
           1155         3753.39 
           1165         4694.87 
           1175         5197.06 
           1185         5370.22 
           1195         3037.26 
           1205         2291.47 
           1215         560.312 
           1225         2527.55 
           1235         6012.21 
           1245         10464.6 
           1255         17212.6 
           1265         19313.6 
           1275         26472.2 
           1285         38395.6 
           1295         47145.5 
           1305           48671 
           1315         65983.3 
           1325         79509.9 
           1335         92399.1 
           1345          116876 
           1355          121680 
           1365          138576 
           1375          146850 
           1385          143064 
           1395          160480 
           1405          192637 
           1415          238675 
           1425          263017 
           1435          256711 
           1442          324141 
           1447          313916 
           1455          369393 
           1465          355416 
           1475          386855 
           1485          425311 
           1495          471067 
           1505          519149 
           1512          507926 
           1517          522182 
           1525          541049 
           1535          986566 
           1545      1.45921e+6 
           1555      1.24016e+6 
           1565          936907 
           1575      1.33093e+6 
           1585      1.49263e+6 
           1595      1.48587e+6 
           1605      1.58383e+6 
           1615      2.31146e+6 
           1625      3.28333e+6 
           1635      5.44866e+6 
           1645       1.0905e+7 
           1655      7.44347e+6 
           1665      1.48994e+7 
           1672      9.78753e+6 
           1677      1.69321e+7 
           1685      2.11451e+7 
           1695      1.64931e+7 
           1705      1.86108e+7 
           1715      2.27096e+7 
           1725      2.30991e+7 
           1735      2.71025e+7 
           1745      2.59675e+7 
           1755      3.02702e+7 
           1765      2.24691e+7 
           1775      2.85229e+7 
           1785      2.93712e+7 
           1795      3.38165e+7 
           1805      2.99311e+7 
           1815      3.09322e+7 
           1825      2.81838e+7 
           1835      2.83619e+7 
           1845      2.45935e+7 
           1855      2.72336e+7 
           1865      2.96869e+7 
           1875      2.97258e+7 
           1885      3.02881e+7 
           1895      3.14432e+7 
           1905      2.92641e+7 
           1915      3.21192e+7 
           1925      3.23841e+7 
           1935      2.73032e+7 
           1945      3.39004e+7 
           1955      3.39429e+7 
           1967       3.6196e+7 
           1976      3.51048e+7 
           1984      3.39704e+7 
           1995      3.31908e+7 
           2005      3.11999e+7 
           2015      3.15869e+7 
           2025      2.89743e+7 
           2035       3.2522e+7 
           2045      3.50396e+7 
           2055      3.37029e+7 
           2065      3.27598e+7 
           2074       3.6327e+7 
           2078      3.73206e+7 
           2085       3.6359e+7 
           2095      3.47174e+7 
           2105      3.28503e+7 
           2115      3.36134e+7 
           2125      3.45842e+7 
           2135      2.85484e+7 
           2145       3.3171e+7 
           2155      3.28955e+7 
           2165      3.06007e+7 
           2175      3.02307e+7 
           2185      3.19487e+7 
           2195      3.44004e+7 
           2205       3.2916e+7 
           2215      2.97216e+7 
           2225      2.99869e+7 
           2235      3.44569e+7 
           2245      3.07235e+7 
           2255      2.93396e+7 
           2265       2.8885e+7 
           2275      3.11225e+7 
           2285      3.25434e+7 
           2295      2.98299e+7 
           2305      3.07048e+7 
           2315      3.03585e+7 
           2325      2.99035e+7 
           2335      2.79502e+7 
           2345      2.41842e+7 
           2355      3.02333e+7 
           2365      2.53348e+7 
           2375      2.80599e+7 
           2385        2.283e+7 
           2395      2.54909e+7 
           2405      2.46808e+7 
           2415      2.49251e+7 
           2425      2.83446e+7 
           2435      2.71776e+7 
           2445      2.91766e+7 
           2455      2.85474e+7 
           2465      2.88197e+7 
           2475      2.68069e+7 
           2485      2.74249e+7 
           2495      2.61495e+7 
           2505      3.06738e+7 
           2513      2.65678e+7 
           2518      2.67238e+7 
           2525      2.46561e+7 
           2535      2.37244e+7 
           2545      2.28631e+7 
           2555      2.52306e+7 
           2565      2.55313e+7 
           2575      2.84981e+7 
           2585      2.89884e+7 
           2595      2.84644e+7 
           2605      2.71071e+7 
           2615       2.6049e+7 
           2625      2.94189e+7 
           2635       2.9648e+7 
           2645      3.39745e+7 
           2655      3.41637e+7 
           2665      3.04026e+7 
           2675      3.21653e+7 
           2685      3.25924e+7 
           2695      2.99292e+7 
           2705      3.09574e+7 
           2715      2.87529e+7 
           2725       2.9148e+7 
           2735      3.16609e+7 
           2745      2.58055e+7 
           2755      2.71105e+7 
           2765      2.84773e+7 
           2775      3.09328e+7 
           2785       2.9373e+7 
           2795      1.84675e+7 
           2805       2.1986e+7 
           2815      3.23487e+7 
           2825      3.29249e+7 
           2835      3.16885e+7 
           2845      3.02481e+7 
           2855      2.82715e+7 
           2865      3.13304e+7 
           2875      3.06693e+7 
           2885      3.12963e+7 
           2895      2.99962e+7 
           2910      3.35685e+7 
           2930      3.21428e+7 
           2950      3.18622e+7 
           2970      3.25445e+7 
           2990      3.25964e+7 
           3010      3.28499e+7 
           3030      3.26816e+7 
           3050      3.26318e+7 
           3070      3.26773e+7 
           3090      3.28905e+7 
           3110      3.21907e+7 
           3130      3.21233e+7 
           3150      3.27342e+7 
           3170      3.25575e+7 
           3190      3.09714e+7 
           3210      3.15873e+7 
           3230      3.05196e+7 
           3250      3.13749e+7 
           3270      3.18491e+7 
           3290       3.2076e+7 
           3310      3.22799e+7 
           3330      3.16059e+7 
           3350      3.11723e+7 
           3370      3.09444e+7 
           3390      3.08419e+7 
           3410       3.1065e+7 
           3430      3.11441e+7 
           3450      3.08644e+7 
           3470      3.05513e+7 
           3490      3.05204e+7 
           3510       3.0875e+7 
           3530      3.06653e+7 
           3550      3.10172e+7 
           3570      3.00647e+7 
           3590      2.98534e+7 
           3610       2.9856e+7 
           3630      2.99996e+7 
           3640       2.9727e+7 
           3650      3.04975e+7 
           3670      3.04009e+7 
           3690      2.92727e+7 
           3710      2.92699e+7 
           3730       2.8724e+7 
           3750       3.4414e+7 
           3770      3.62313e+7 
           3790      4.34846e+7 
           3810      5.03375e+7 
           3830      4.02388e+7 
           3850      5.56993e+7 
           3870      6.25229e+7 
           3890      3.67739e+7 
           3910      6.28494e+7 
           3930      6.14942e+7 
           3950       6.3022e+7 
           3970      3.51156e+7 
           3990      6.13791e+7 
           4010      7.04676e+7 
           4030      7.12476e+7 
           4050      7.02126e+7 
           4070      6.58718e+7 
           4090      5.09892e+7 
           4110      3.93855e+7 
           4130      6.27327e+7 
           4150       6.7084e+7 
           4170      6.77636e+7 
           4190      6.69423e+7 
           4210      6.67754e+7 
           4230      6.51622e+7 
           4250      6.50905e+7 
           4270      6.34842e+7 
           4290      6.25927e+7 
           4310      5.72899e+7 
           4330      4.34359e+7 
           4350      3.72598e+7 
           4370      5.67612e+7 
           4390      5.95977e+7 
           4410      5.95988e+7 
           4430      5.93805e+7 
           4450      5.96051e+7 
           4470      5.91804e+7 
           4490      5.84974e+7 
           4510       5.8778e+7 
           4530      5.75479e+7 
           4550      5.66209e+7 
           4570      5.71798e+7 
           4590       5.6071e+7 
           4610      5.63106e+7 
           4630      5.51679e+7 
           4650      5.51387e+7 
           4670       5.4733e+7 
           4690      5.32756e+7 
           4710      5.15419e+7 
           4730      5.29138e+7 
           4750      5.24491e+7 
           4770      5.16923e+7 
           4790      5.08248e+7 
           4810      4.94406e+7 
           4830      4.63223e+7 
           4850      3.57807e+7 
           4870      2.91082e+7 
           4890      4.33965e+7 
           4910      4.66253e+7 
           4930      4.66477e+7 
           4950       4.7051e+7 
           4970      4.71932e+7 
           4990      4.63224e+7 
           5010      4.53469e+7 
           5030      4.57628e+7 
           5050        4.511e+7 
           5070      4.51447e+7 
           5090      4.46394e+7 
           5110      4.43541e+7 
           5130      4.37255e+7 
           5150       4.3084e+7 
           5170      4.19493e+7 
           5190      4.17106e+7 
           5210      4.17712e+7 
           5230      4.12058e+7 
           5250      4.15472e+7 
           5270      4.00645e+7 
           5290      4.06547e+7 
           5310      4.01379e+7 
           5330       3.9267e+7 
           5350      3.95808e+7 
           5370      3.89991e+7 
           5390       3.8705e+7 
           5410      3.80603e+7 
           5430      3.79899e+7 
           5450      3.77446e+7 
           5470       3.7425e+7 
           5490      3.71953e+7 
           5510      3.69084e+7 
           5530      3.64288e+7 
           5550       3.6294e+7 
           5570      3.58067e+7 
           5590      3.54051e+7 
           5610      3.51986e+7 
           5630      3.50298e+7 
           5650      3.46972e+7 
           5670      3.43052e+7 
           5690      3.40831e+7 
           5710       3.3765e+7 
           5730       3.3594e+7 
           5750      3.32194e+7 
           5770      3.29624e+7 
           5790      3.26564e+7 
           5810      3.23951e+7 
           5830      3.21333e+7 
           5850      3.18105e+7 
           5870      3.15362e+7 
           5890       3.0939e+7 
           5910      3.09985e+7 
           5930      3.07341e+7 
           5950      3.04672e+7 
           5970      3.02137e+7 
           5990       2.9923e+7 
           6010      2.96178e+7 
           6030      2.93927e+7 
           6050       2.9175e+7 
           6070      2.89595e+7 
           6090      2.86843e+7 
           6110      2.84151e+7 
           6130      2.80545e+7 
           6150      2.77409e+7 
           6170      2.75306e+7 
           6190      2.74956e+7 
           6210      2.72709e+7 
           6230      2.69806e+7 
           6250      2.65931e+7 
           6270      2.65953e+7 
           6290      2.63759e+7 
           6310      2.60832e+7 
           6330      2.58951e+7 
           6350      2.55715e+7 
           6370       2.5388e+7 
           6390      2.52422e+7 
           6410      2.49181e+7 
           6430      2.47478e+7 
           6450      2.43637e+7 
           6470      2.42079e+7 
           6490      2.38121e+7 
           6510      2.33993e+7 
           6530      2.23842e+7 
           6550      1.91936e+7 
           6570      1.55021e+7 
           6590      2.09843e+7 
           6610      2.22492e+7 
           6630      2.25214e+7 
           6650      2.25122e+7 
           6670      2.23969e+7 
           6690      2.22867e+7 
           6710      2.21264e+7 
           6730      2.19768e+7 
           6750       2.1784e+7 
           6770      2.16637e+7 
           6790      2.14896e+7 
           6810      2.13197e+7 
           6830      2.11377e+7 
           6850      2.09695e+7 
           6870      2.08197e+7 
           6890      2.06585e+7 
           6910      2.04949e+7 
           6930      2.03297e+7 
           6950      2.01731e+7 
           6970      2.00117e+7 
           6990      1.98627e+7 
           7010      1.96598e+7 
           7030      1.95283e+7 
           7050      1.93949e+7 
           7070      1.92484e+7 
           7090       1.9101e+7 
           7110      1.87835e+7 
           7130      1.87665e+7 
           7150      1.86307e+7 
           7170      1.84888e+7 
           7190      1.83343e+7 
           7210      1.82103e+7 
           7230      1.80751e+7 
           7250       1.7926e+7 
           7270      1.78154e+7 
           7290       1.7642e+7 
           7310      1.75308e+7 
           7330      1.73925e+7 
           7350      1.72847e+7 
           7370      1.71563e+7 
           7390      1.70022e+7 
           7410      1.68405e+7 
           7430      1.67138e+7 
           7450        1.661e+7 
           7470      1.64503e+7 
           7490       1.6337e+7 
           7510      1.62514e+7 
           7530      1.61406e+7 
           7550      1.60394e+7 
           7570      1.59127e+7 
           7590      1.57988e+7 
           7610      1.56795e+7 
           7630       1.5565e+7 
           7650      1.54425e+7 
           7670      1.52994e+7 
           7690      1.52046e+7 
           7710       1.5091e+7 
           7730      1.50029e+7 
           7750      1.48791e+7 
           7770      1.45561e+7 
           7790      1.46826e+7 
           7810      1.45711e+7 
           7830      1.44427e+7 
           7850      1.43246e+7 
           7870      1.42141e+7 
           7890      1.41046e+7 
           7910      1.40202e+7 
           7930      1.39016e+7 
           7950       1.3799e+7 
           7970      1.37553e+7 
           7990      1.36039e+7 
           8010      1.35449e+7 
           8030      1.34442e+7 
           8050      1.33548e+7 
           8070      1.32609e+7 
           8090      1.31626e+7 
           8110       1.3084e+7 
           8130      1.29952e+7 
           8150      1.29026e+7 
           8170      1.28124e+7 
           8190      1.26269e+7 
           8210      1.25928e+7 
           8230      1.24956e+7 
           8250      1.24146e+7 
           8270      1.24031e+7 
           8290       1.2317e+7 
           8310      1.22267e+7 
           8330      1.20687e+7 
           8350      1.20709e+7 
           8370      1.19977e+7 
           8390      1.18903e+7 
           8410       1.1821e+7 
           8430      1.17247e+7 
           8450      1.15442e+7 
           8470      1.14824e+7 
           8490      1.14932e+7 
           8510      1.10974e+7 
           8530      1.13701e+7 
           8550      1.05264e+7 
           8570      1.13324e+7 
           8590      1.08074e+7 
           8610      1.06165e+7 
           8630      1.12361e+7 
           8650       1.0864e+7 
           8670       9.4512e+6 
           8690      1.08704e+7 
           8710      1.11637e+7 
           8730      1.07671e+7 
           8750      8.94211e+6 
           8770       1.0316e+7 
           8790      1.09883e+7 
           8810      1.10083e+7 
           8830      1.07343e+7 
           8850      9.70413e+6 
           8870      8.41929e+6 
           8890      1.02491e+7 
           8910       1.0681e+7 
           8930      1.07617e+7 
           8950      1.07701e+7 
           8970      1.05386e+7 
           8990      9.98784e+6 
           9010      8.13322e+6 
           9030      8.83138e+6 
           9050      9.98647e+6 
           9070      1.01417e+7 
           9090      1.01167e+7 
           9110      1.02839e+7 
           9130      1.02976e+7 
           9150      1.02099e+7 
           9170       1.0035e+7 
           9190      9.71575e+6 
           9210      8.95988e+6 
           9230      7.16199e+6 
           9250      8.64304e+6 
           9270      9.30898e+6 
           9290      9.64434e+6 
           9310      9.70465e+6 
           9330      9.69209e+6 
