# Kurucz ODFNEW /NOVER (2003)
# teff = 25000 K (value for the effective temperature for the model. Temperatures are given in K)
# logg = 3.5 log(cm/s2) (value for Log(G) for the model.)
# meta = 0.2  (value for the Metallicity for the model.)
# lh = 1.25  (l/Hp where l is the  mixing length of the convective element and Hp is the pressure scale height)
# vtur = 2 km/s (Microturbulence velocity)
# alpha = 0  (Alpha)
#
# column 1: WAVELENGTH (ANGSTROM), Wavelength in Angstrom
# column 2: FLUX (ERG/CM2/S/A), Flux in erg/cm2/s/A
          147.2     2.32702e-14 
            151     9.86112e-14 
          155.2     4.50317e-13 
          158.8     1.55996e-12 
            162     4.51231e-12 
            166     1.61364e-11 
          170.3     5.96008e-11 
          173.4     1.47835e-10 
          176.8     3.85778e-10 
          180.2     9.73553e-10 
          181.7      1.44918e-9 
          186.1      4.50652e-9 
            191      1.50667e-8 
          193.9      2.99562e-8 
          198.4      8.38408e-8 
          201.8      1.77323e-7 
            205      3.51253e-7 
          210.5      1.08708e-6 
          216.2      3.30786e-6 
          219.8      6.49264e-6 
            223       1.1618e-5 
          226.8      2.28067e-5 
            230      0.00169614 
            234      0.00388047 
            240      0.00896106 
          246.5        0.021596 
          252.4       0.0464896 
          256.8       0.0762585 
            260        0.127291 
            264        0.202202 
          268.5        0.339088 
          273.5        0.583611 
          278.5        0.979925 
            284         1.87926 
            290         3.32055 
            296         5.76471 
            301         8.85304 
            308         16.8846 
            318         40.6108 
            328         83.7542 
            338          177.45 
            348         347.382 
            357         1902.34 
            366          4098.7 
            375         6059.82 
            385         10143.5 
            395         20748.4 
            405         30891.7 
            414         46215.3 
            422         64599.8 
            430         92957.8 
            441          138313 
            451          183044 
            460          238572 
            470          337982 
            480          457798 
            490          615696 
            500          794899 
            506      3.91641e+6 
            512      3.48096e+7 
            520      3.72745e+7 
            530      4.03472e+7 
            540      4.16715e+7 
            550      6.46256e+7 
            560      7.81774e+7 
            570      9.01159e+7 
            580       8.3829e+7 
            590      1.09415e+8 
            600      1.16388e+8 
            610      1.39707e+8 
            620      1.56601e+8 
            630      1.62082e+8 
            640      1.44612e+8 
            650      1.01436e+8 
            658      1.59788e+8 
            665      2.00758e+8 
            675      2.12134e+8 
            685      2.02983e+8 
            695      2.84654e+8 
            705      2.72998e+8 
            716      3.20523e+8 
            726      3.21832e+8 
            735      3.34375e+8 
            745       3.8221e+8 
            755      4.01708e+8 
            765      4.26847e+8 
            775      4.55832e+8 
            785      4.86666e+8 
            795      4.99373e+8 
            805      5.09402e+8 
            815      5.15996e+8 
            825      5.68173e+8 
            835      4.56528e+8 
            845      5.67396e+8 
            855      5.68991e+8 
            865      6.06513e+8 
            875      6.44936e+8 
            885      6.97254e+8 
            895      7.25828e+8 
            905      7.08358e+8 
            915      1.11751e+9 
            925      8.86847e+9 
            935     1.66485e+10 
            945     2.36624e+10 
            955     2.63819e+10 
            965     2.69007e+10 
            975      5.05595e+9 
            985     1.82233e+10 
            995     2.05792e+10 
           1005     2.53253e+10 
           1015     2.66191e+10 
           1025     1.93248e+10 
           1035     2.15507e+10 
           1045     3.15752e+10 
           1055     2.87273e+10 
           1065     2.30121e+10 
           1075     2.64686e+10 
           1085     2.36997e+10 
           1095     2.66545e+10 
           1105     2.41957e+10 
           1115     2.32091e+10 
           1125     1.74511e+10 
           1135     2.43293e+10 
           1145      2.2612e+10 
           1155     2.27092e+10 
           1165     2.21342e+10 
           1175     1.13936e+10 
           1185     2.04547e+10 
           1195     1.95495e+10 
           1205     1.33786e+10 
           1215      1.3602e+10 
           1225     1.88229e+10 
           1235     2.09648e+10 
           1245      1.9875e+10 
           1255     1.98051e+10 
           1265     2.03855e+10 
           1275     2.12171e+10 
           1285     2.10876e+10 
           1295     1.49175e+10 
           1305     1.65062e+10 
           1315     2.06808e+10 
           1325      1.9295e+10 
           1335     1.85642e+10 
           1345     1.89285e+10 
           1355      1.8551e+10 
           1365     1.70743e+10 
           1375      1.6406e+10 
           1385     1.55969e+10 
           1395      9.89357e+9 
           1405     1.12515e+10 
           1415     1.38089e+10 
           1425     1.34837e+10 
           1435     1.42401e+10 
           1442     1.45277e+10 
           1447     1.42821e+10 
           1455     1.36801e+10 
           1465      1.2452e+10 
           1475     1.30046e+10 
           1485     1.29026e+10 
           1495     1.25627e+10 
           1505     1.13069e+10 
           1512     1.00359e+10 
           1517     1.04065e+10 
           1525     1.07107e+10 
           1535      8.78722e+9 
           1545      8.23099e+9 
           1555      8.08854e+9 
           1565      9.06313e+9 
           1575      9.81345e+9 
           1585       9.9403e+9 
           1595      9.74363e+9 
           1605      9.90879e+9 
           1615      9.60736e+9 
           1625       9.5076e+9 
           1635     1.01855e+10 
           1645     1.02522e+10 
           1655     1.01166e+10 
           1665      1.0266e+10 
           1672      9.59792e+9 
           1677     1.09886e+10 
           1685     1.04483e+10 
           1695      9.77049e+9 
           1705      9.62771e+9 
           1715      8.96319e+9 
           1725      8.84501e+9 
           1735      9.25283e+9 
           1745      9.05776e+9 
           1755      9.09329e+9 
           1765      9.09116e+9 
           1775      8.35934e+9 
           1785      8.61155e+9 
           1795      8.83799e+9 
           1805      8.94581e+9 
           1815      7.85314e+9 
           1825      8.22032e+9 
           1835      8.00443e+9 
           1845      7.23218e+9 
           1855      7.42965e+9 
           1865      7.52165e+9 
           1875      7.83501e+9 
           1885       6.9092e+9 
           1895      6.41222e+9 
           1905      7.05265e+9 
           1915       6.5695e+9 
           1925       6.1637e+9 
           1935       6.6791e+9 
           1945      6.82908e+9 
           1955      6.03059e+9 
           1967      6.68438e+9 
           1976      6.97918e+9 
           1984       6.4728e+9 
           1995      6.35315e+9 
           2005      6.68185e+9 
           2015      6.59815e+9 
           2025      6.78313e+9 
           2035      6.10103e+9 
           2045      6.26509e+9 
           2055      5.85368e+9 
           2065      5.79659e+9 
           2074       6.2414e+9 
           2078      5.52598e+9 
           2085      5.99477e+9 
           2095      5.68095e+9 
           2105      5.91456e+9 
           2115      5.97145e+9 
           2125      6.00164e+9 
           2135      5.91844e+9 
           2145       5.5502e+9 
           2155      5.84155e+9 
           2165      5.82323e+9 
           2175      5.76352e+9 
           2185      5.52655e+9 
           2195      5.64544e+9 
           2205      5.64843e+9 
           2215      5.54049e+9 
           2225      5.38967e+9 
           2235      5.28491e+9 
           2245      5.34714e+9 
           2255      5.16669e+9 
           2265      5.23638e+9 
           2275       5.1566e+9 
           2285      5.14858e+9 
           2295      4.50049e+9 
           2305      4.94653e+9 
           2315      4.80153e+9 
           2325        4.756e+9 
           2335      4.61737e+9 
           2345       4.6757e+9 
           2355      4.63757e+9 
           2365      4.60146e+9 
           2375      4.48733e+9 
           2385      4.45057e+9 
           2395      4.39214e+9 
           2405      4.32332e+9 
           2415      4.28455e+9 
           2425      4.26972e+9 
           2435      4.14266e+9 
           2445      4.15926e+9 
           2455      4.16113e+9 
           2465      4.08094e+9 
           2475      4.00682e+9 
           2485      3.88746e+9 
           2495      3.02744e+9 
           2505      3.72039e+9 
           2513      3.61883e+9 
           2518      3.76609e+9 
           2525      3.74672e+9 
           2535      3.71581e+9 
           2545      3.56312e+9 
           2555      3.61435e+9 
           2565      3.56395e+9 
           2575      3.57251e+9 
           2585      3.51234e+9 
           2595      3.48224e+9 
           2605      3.45628e+9 
           2615      3.39326e+9 
           2625      3.37566e+9 
           2635      3.34699e+9 
           2645      3.29707e+9 
           2655      3.28463e+9 
           2665      3.13325e+9 
           2675      3.15125e+9 
           2685      3.15065e+9 
           2695      3.02705e+9 
           2705      2.94926e+9 
           2715       2.9657e+9 
           2725      2.97609e+9 
           2735       2.9456e+9 
           2745      2.88473e+9 
           2755      2.87276e+9 
           2765      2.83778e+9 
           2775       2.8589e+9 
           2785      2.80708e+9 
           2795      2.70312e+9 
           2805      2.72956e+9 
           2815      2.73378e+9 
           2825       2.7003e+9 
           2835      2.59555e+9 
           2845       2.6276e+9 
           2855      2.57262e+9 
           2865      2.57567e+9 
           2875      2.54789e+9 
           2885      2.52044e+9 
           2895      2.47487e+9 
           2910      2.42255e+9 
           2930      2.40048e+9 
           2950      2.32557e+9 
           2970      2.29077e+9 
           2990      2.23857e+9 
           3010      2.14563e+9 
           3030      2.14382e+9 
           3050      2.11341e+9 
           3070      2.08309e+9 
           3090      1.99067e+9 
           3110      1.99113e+9 
           3130      1.93758e+9 
           3150       1.9091e+9 
           3170      1.85694e+9 
           3190      1.82388e+9 
           3210      1.79672e+9 
           3230      1.74991e+9 
           3250      1.72794e+9 
           3270      1.68471e+9 
           3290      1.65225e+9 
           3310      1.62206e+9 
           3330       1.5851e+9 
           3350      1.55871e+9 
           3370      1.52607e+9 
           3390       1.5049e+9 
           3410      1.47723e+9 
           3430      1.44532e+9 
           3450      1.41332e+9 
           3470      1.38785e+9 
           3490      1.35965e+9 
           3510       1.3379e+9 
           3530      1.32163e+9 
           3550      1.29572e+9 
           3570      1.27539e+9 
           3590      1.23766e+9 
           3610       1.2158e+9 
           3630      1.19976e+9 
           3640      1.19747e+9 
           3650      1.16821e+9 
           3670      1.15517e+9 
           3690      1.12586e+9 
           3710      1.08907e+9 
           3730      1.06015e+9 
           3750      1.12254e+9 
           3770      1.11162e+9 
           3790      1.14106e+9 
           3810      1.17246e+9 
           3830      1.05199e+9 
           3850      1.16581e+9 
           3870      1.13467e+9 
           3890      1.00296e+9 
           3910      1.13176e+9 
           3930      1.09014e+9 
           3950      1.07935e+9 
           3970       9.2848e+8 
           3990      1.04759e+9 
           4010      1.03539e+9 
           4030      9.91991e+8 
           4050      9.98135e+8 
           4070      9.52393e+8 
           4090      9.10131e+8 
           4110      8.36173e+8 
           4130      9.11604e+8 
           4150      9.04544e+8 
           4170      8.99701e+8 
           4190      8.89223e+8 
           4210      8.80901e+8 
           4230      8.61242e+8 
           4250        8.372e+8 
           4270      8.15284e+8 
           4290      8.03585e+8 
           4310      7.79008e+8 
           4330      7.39076e+8 
           4350      6.88635e+8 
           4370      7.42731e+8 
           4390      7.42489e+8 
           4410      7.33212e+8 
           4430      7.27048e+8 
           4450      7.14611e+8 
           4470      6.91299e+8 
           4490      6.94853e+8 
           4510      6.87352e+8 
           4530       6.7711e+8 
           4550      6.67841e+8 
           4570      6.56416e+8 
           4590      6.45183e+8 
           4610      6.29439e+8 
           4630      6.20657e+8 
           4650      5.97958e+8 
           4670      6.02452e+8 
           4690      5.98113e+8 
           4710      5.76198e+8 
           4730      5.78105e+8 
           4750      5.68488e+8 
           4770      5.68814e+8 
           4790      5.58573e+8 
           4810      5.47343e+8 
           4830      5.38104e+8 
           4850      5.16843e+8 
           4870      4.70084e+8 
           4890      5.16378e+8 
           4910      5.10133e+8 
           4930      4.94904e+8 
           4950      4.92666e+8 
           4970      4.90478e+8 
           4990      4.82212e+8 
           5010      4.62085e+8 
           5030      4.67381e+8 
           5050      4.57541e+8 
           5070      4.55492e+8 
           5090      4.47993e+8 
           5110      4.40713e+8 
           5130       4.3077e+8 
           5150      4.26692e+8 
           5170      4.23214e+8 
           5190      4.18057e+8 
           5210      4.11522e+8 
           5230      4.06081e+8 
           5250      4.00779e+8 
           5270      3.94094e+8 
           5290      3.90015e+8 
           5310      3.84237e+8 
           5330      3.79555e+8 
           5350      3.74051e+8 
           5370      3.69637e+8 
           5390      3.64176e+8 
           5410      3.59905e+8 
           5430       3.5478e+8 
           5450      3.49847e+8 
           5470      3.45216e+8 
           5490      3.40655e+8 
           5510      3.37045e+8 
           5530      3.31618e+8 
           5550       3.2845e+8 
           5570      3.23788e+8 
           5590      3.19944e+8 
           5610      3.15644e+8 
           5630      3.11872e+8 
           5650      3.06482e+8 
           5670      3.01031e+8 
           5690      2.95893e+8 
           5710      2.94632e+8 
           5730      2.91409e+8 
           5750      2.86628e+8 
           5770      2.84893e+8 
           5790      2.80894e+8 
           5810      2.77524e+8 
           5830      2.73174e+8 
           5850      2.70428e+8 
           5870      2.61099e+8 
           5890      2.61479e+8 
           5910      2.59572e+8 
           5930       2.5581e+8 
           5950      2.52561e+8 
           5970      2.51591e+8 
           5990      2.46868e+8 
           6010      2.44988e+8 
           6030      2.41314e+8 
           6050      2.38713e+8 
           6070      2.36478e+8 
           6090      2.33728e+8 
           6110      2.30879e+8 
           6130      2.28352e+8 
           6150      2.24359e+8 
           6170      2.22076e+8 
           6190      2.20014e+8 
           6210      2.17739e+8 
           6230      2.15324e+8 
           6250      2.12222e+8 
           6270       2.0996e+8 
           6290      2.07761e+8 
           6310       2.0513e+8 
           6330      2.03084e+8 
           6350      2.00125e+8 
           6370      1.98378e+8 
           6390      1.95994e+8 
           6410       1.9382e+8 
           6430      1.91778e+8 
           6450      1.89512e+8 
           6470      1.86642e+8 
           6490      1.84608e+8 
           6510      1.82995e+8 
           6530      1.80489e+8 
           6550      1.75876e+8 
           6570      1.58067e+8 
           6590      1.73071e+8 
           6610      1.72706e+8 
           6630      1.71109e+8 
           6650      1.69084e+8 
           6670      1.66133e+8 
           6690      1.64383e+8 
           6710      1.63823e+8 
           6730      1.61495e+8 
           6750      1.60341e+8 
           6770      1.58622e+8 
           6790      1.55499e+8 
           6810      1.54912e+8 
           6830      1.53215e+8 
           6850      1.51808e+8 
           6870      1.50151e+8 
           6890      1.48328e+8 
           6910      1.46524e+8 
           6930      1.45421e+8 
           6950      1.43914e+8 
           6970      1.42399e+8 
           6990      1.40845e+8 
           7010       1.3936e+8 
           7030      1.37852e+8 
           7050      1.36434e+8 
           7070      1.32996e+8 
           7090      1.33633e+8 
           7110      1.30974e+8 
           7130      1.29781e+8 
           7150      1.29483e+8 
           7170      1.28183e+8 
           7190      1.26903e+8 
           7210      1.25591e+8 
           7230      1.22403e+8 
           7250      1.22725e+8 
           7270      1.21751e+8 
           7290       1.1961e+8 
           7310      1.19266e+8 
           7330      1.18006e+8 
           7350      1.16905e+8 
           7370      1.15751e+8 
           7390      1.14587e+8 
           7410      1.13441e+8 
           7430      1.12265e+8 
           7450      1.11168e+8 
           7470      1.09459e+8 
           7490      1.08895e+8 
           7510      1.07835e+8 
           7530      1.06705e+8 
           7550      1.05797e+8 
           7570      1.04765e+8 
           7590       1.0371e+8 
           7610      1.02528e+8 
           7630      1.01674e+8 
           7650      1.00706e+8 
           7670      9.97458e+7 
           7690      9.87626e+7 
           7710      9.77756e+7 
           7730      9.67974e+7 
           7750      9.59598e+7 
           7770      9.46926e+7 
           7790      9.41387e+7 
           7810      9.31816e+7 
           7830      9.23498e+7 
           7850      9.14886e+7 
           7870      9.04828e+7 
           7890      8.94316e+7 
           7910      8.87873e+7 
           7930      8.78727e+7 
           7950      8.70377e+7 
           7970       8.6216e+7 
           7990      8.54249e+7 
           8010      8.46172e+7 
           8030      8.38515e+7 
           8050      8.31679e+7 
           8070      8.24265e+7 
           8090       8.1559e+7 
           8110      8.04069e+7 
           8130      8.02055e+7 
           8150      7.93643e+7 
           8170      7.88012e+7 
           8190      7.76586e+7 
           8210       7.6828e+7 
           8230      7.59878e+7 
           8250      7.57582e+7 
           8270      7.42961e+7 
           8290      7.42779e+7 
           8310      7.36753e+7 
           8330      7.30342e+7 
           8350       7.2058e+7 
           8370      7.15097e+7 
           8390        7.103e+7 
           8410      7.03144e+7 
           8430      6.96737e+7 
           8450      6.85581e+7 
           8470      6.82032e+7 
           8490      6.78561e+7 
           8510      6.66324e+7 
           8530      6.68951e+7 
           8550      6.47015e+7 
           8570      6.64977e+7 
