# Kurucz ODFNEW /NOVER (2003)
# teff = 21000 K (value for the effective temperature for the model. Temperatures are given in K)
# logg = 5 log(cm/s2) (value for Log(G) for the model.)
# meta = -4  (value for the Metallicity for the model.)
# lh = 1.25  (l/Hp where l is the  mixing length of the convective element and Hp is the pressure scale height)
# vtur = 2 km/s (Microturbulence velocity)
# alpha = 0.4  (Alpha)
#
# column 1: WAVELENGTH (ANGSTROM), Wavelength in Angstrom
# column 2: FLUX (ERG/CM2/S/A), Flux in erg/cm2/s/A
          147.2     8.73988e-20 
            151      5.5585e-19 
          155.2     3.89851e-18 
          158.8     1.91521e-17 
            162      7.4575e-17 
            166     3.80352e-16 
          170.3     2.02107e-15 
          173.4     6.41169e-15 
          176.8     2.17397e-14 
          180.2     7.04685e-14 
          181.7     1.16779e-13 
          186.1     4.90965e-13 
            191     2.24875e-12 
          193.9     5.33422e-12 
          198.4      1.9399e-11 
          201.8     4.95676e-11 
            205     1.16519e-10 
          210.5      4.7547e-10 
          216.2       1.8933e-9 
          219.8      4.36422e-9 
            223      8.95442e-9 
          226.8      2.04682e-8 
            230      4.64602e-8 
            234      1.08177e-7 
            240      3.47049e-7 
          246.5      1.14496e-6 
          252.4      3.20451e-6 
          256.8      6.66441e-6 
            260      1.12322e-5 
            264      2.10916e-5 
          268.5      4.18445e-5 
          273.5      8.71488e-5 
          278.5     0.000176688 
            284     0.000372909 
            290     0.000814022 
            296      0.00171811 
            301      0.00312757 
            308      0.00697671 
            318       0.0206604 
            328        0.056945 
            338        0.147198 
            348        0.358985 
            357        0.764934 
            366         1.56658 
            375         3.09126 
            385         6.31919 
            395         12.4192 
            405         23.5397 
            414         40.6697 
            422          64.714 
            430         101.049 
            441         181.191 
            451         299.771 
            460         461.956 
            470         731.067 
            480         1132.56 
            490         1720.15 
            500         2564.02 
            506         17683.2 
            512         52455.9 
            520         67191.3 
            530         98440.5 
            540          114582 
            550          161776 
            560          203705 
            570          253982 
            580          276085 
            590          370788 
            600          470242 
            610          569205 
            620          683572 
            630          815659 
            640          967209 
            650      1.14062e+6 
            658      1.29595e+6 
            665       1.4449e+6 
            675      1.68022e+6 
            685      1.94368e+6 
            695      2.23905e+6 
            705      2.56633e+6 
            716      2.96677e+6 
            726      3.37013e+6 
            735       3.7674e+6 
            745      4.24837e+6 
            755      4.77282e+6 
            765      5.34267e+6 
            775      5.96068e+6 
            785      6.62826e+6 
            795      7.34653e+6 
            805      8.11855e+6 
            815      8.94543e+6 
            825      9.82914e+6 
            835      1.07574e+7 
            845      1.17742e+7 
            855      1.28367e+7 
            865      1.39625e+7 
            875      1.51499e+7 
            885      1.64025e+7 
            895      1.77198e+7 
            905      1.90912e+7 
            915      3.08642e+7 
            925      1.13425e+8 
            935      2.85879e+8 
            945      1.56075e+9 
            955      4.86141e+9 
            965      7.26293e+9 
            975       2.0548e+9 
            985     1.40674e+10 
            995     1.68261e+10 
           1005     1.64563e+10 
           1015     1.06013e+10 
           1025      9.34343e+8 
           1035      8.54022e+9 
           1045     1.50112e+10 
           1055     1.58869e+10 
           1065     1.57288e+10 
           1075     1.55588e+10 
           1085     1.48583e+10 
           1095     1.49454e+10 
           1105     1.44015e+10 
           1115     1.41119e+10 
           1125     1.37285e+10 
           1135      1.3533e+10 
           1145     1.31833e+10 
           1155     1.28825e+10 
           1165      1.2543e+10 
           1175     1.17593e+10 
           1185     1.15957e+10 
           1195     1.03203e+10 
           1205      6.49198e+9 
           1215       7.9586e+8 
           1225      5.42264e+9 
           1235      9.34275e+9 
           1245     1.00801e+10 
           1255     1.01383e+10 
           1265      9.97863e+9 
           1275      9.88112e+9 
           1285      9.69712e+9 
           1295      9.36553e+9 
           1305      9.21613e+9 
           1315      9.13031e+9 
           1325      8.94301e+9 
           1335      8.64402e+9 
           1345      8.61613e+9 
           1355      8.45249e+9 
           1365      8.28988e+9 
           1375      8.13208e+9 
           1385      7.97599e+9 
           1395      7.78171e+9 
           1405      7.65625e+9 
           1415      7.53073e+9 
           1425      7.39034e+9 
           1435      7.25276e+9 
           1442      7.15914e+9 
           1447      7.09518e+9 
           1455      6.99424e+9 
           1465      6.87082e+9 
           1475      6.74957e+9 
           1485      6.63147e+9 
           1495      6.51507e+9 
           1505      6.39967e+9 
           1512      6.32045e+9 
           1517      6.26428e+9 
           1525      6.17492e+9 
           1535      6.06403e+9 
           1545      5.96132e+9 
           1555      5.85872e+9 
           1565      5.76071e+9 
           1575       5.6647e+9 
           1585      5.57126e+9 
           1595      5.48029e+9 
           1605      5.39013e+9 
           1615      5.30322e+9 
           1625      5.21846e+9 
           1635      5.13242e+9 
           1645      5.02816e+9 
           1655      4.96648e+9 
           1665      4.88703e+9 
           1672      4.82625e+9 
           1677      4.79376e+9 
           1685      4.73336e+9 
           1695      4.65945e+9 
           1705      4.58784e+9 
           1715      4.51772e+9 
           1725       4.4484e+9 
           1735      4.37987e+9 
           1745      4.31299e+9 
           1755      4.24796e+9 
           1765      4.18242e+9 
           1775      4.12036e+9 
           1785      4.05836e+9 
           1795      3.99795e+9 
           1805       3.9384e+9 
           1815      3.88003e+9 
           1825       3.8236e+9 
           1835      3.76872e+9 
           1845      3.71403e+9 
           1855      3.65472e+9 
           1865      3.60469e+9 
           1875      3.55799e+9 
           1885      3.50751e+9 
           1895      3.45684e+9 
           1905      3.41058e+9 
           1915      3.36026e+9 
           1925      3.31344e+9 
           1935      3.26831e+9 
           1945      3.22394e+9 
           1955      3.17852e+9 
           1967      3.12759e+9 
           1976      3.08961e+9 
           1984      3.05604e+9 
           1995      3.01031e+9 
           2005      2.97136e+9 
           2015       2.9322e+9 
           2025      2.89376e+9 
           2035      2.85602e+9 
           2045      2.81906e+9 
           2055      2.78018e+9 
           2065      2.74501e+9 
           2074      2.71362e+9 
           2078       2.6976e+9 
           2085      2.67484e+9 
           2095      2.64001e+9 
           2105      2.60648e+9 
           2115       2.5733e+9 
           2125      2.54072e+9 
           2135      2.50871e+9 
           2145      2.47726e+9 
           2155      2.44638e+9 
           2165      2.41603e+9 
           2175      2.38598e+9 
           2185      2.35622e+9 
           2195      2.32706e+9 
           2205      2.29833e+9 
           2215       2.2701e+9 
           2225      2.24244e+9 
           2235      2.21517e+9 
           2245      2.18846e+9 
           2255      2.16205e+9 
           2265       2.1361e+9 
           2275      2.11038e+9 
           2285      2.08516e+9 
           2295      2.06009e+9 
           2305      2.03595e+9 
           2315        2.012e+9 
           2325      1.98846e+9 
           2335      1.96503e+9 
           2345      1.94194e+9 
           2355      1.91957e+9 
           2365      1.89724e+9 
           2375      1.87549e+9 
           2385      1.85377e+9 
           2395      1.83261e+9 
           2405       1.8118e+9 
           2415       1.7912e+9 
           2425      1.77102e+9 
           2435      1.75097e+9 
           2445      1.73126e+9 
           2455      1.71187e+9 
           2465      1.69268e+9 
           2475      1.67368e+9 
           2485      1.65505e+9 
           2495      1.63576e+9 
           2505      1.61852e+9 
           2513      1.60423e+9 
           2518      1.59543e+9 
           2525      1.58317e+9 
           2535       1.5659e+9 
           2545      1.54891e+9 
           2555      1.53219e+9 
           2565      1.51568e+9 
           2575       1.4995e+9 
           2585      1.48353e+9 
           2595      1.46775e+9 
           2605       1.4615e+9 
           2615      1.44599e+9 
           2625      1.43068e+9 
           2635      1.41479e+9 
           2645      1.39938e+9 
           2655      1.38292e+9 
           2665      1.36567e+9 
           2675      1.34884e+9 
           2685      1.34247e+9 
           2695      1.31909e+9 
           2705      1.31466e+9 
           2715      1.30106e+9 
           2725      1.27753e+9 
           2735      1.27439e+9 
           2745      1.26128e+9 
           2755      1.24841e+9 
           2765      1.22565e+9 
           2775      1.22329e+9 
           2785      1.21088e+9 
           2795      1.19707e+9 
           2805      1.18616e+9 
           2815      1.17465e+9 
           2825      1.15049e+9 
           2835       1.1445e+9 
           2845      1.13982e+9 
           2855      1.12852e+9 
           2865       1.1174e+9 
           2875       1.1064e+9 
           2885      1.09553e+9 
           2895      1.08479e+9 
           2910      1.06887e+9 
           2930      1.04818e+9 
           2950      1.02047e+9 
           2970      1.00844e+9 
           2990      9.89262e+8 
           3010      9.70587e+8 
           3030      9.52359e+8 
           3050      9.34605e+8 
           3070      9.17231e+8 
           3090      9.00306e+8 
           3110      8.83739e+8 
           3130      8.68252e+8 
           3150      8.52477e+8 
           3170      8.37031e+8 
           3190      8.15314e+8 
           3210       8.0694e+8 
           3230      7.92428e+8 
           3250      7.78247e+8 
           3270      7.65128e+8 
           3290      7.50981e+8 
           3310      7.38632e+8 
           3330      7.25811e+8 
           3350      7.12404e+8 
           3370      7.01054e+8 
           3390      6.89069e+8 
           3410      6.77317e+8 
           3430      6.64382e+8 
           3450        6.517e+8 
           3470      6.42019e+8 
           3490      6.31372e+8 
           3510      6.21262e+8 
           3530      6.11793e+8 
           3550      6.01452e+8 
           3570      5.94081e+8 
           3590      5.81313e+8 
           3610       5.7356e+8 
           3630      5.62654e+8 
           3640      5.61216e+8 
           3650      5.56646e+8 
           3670      5.50036e+8 
           3690      5.41185e+8 
           3710      5.23898e+8 
           3730      4.99665e+8 
           3750      5.06539e+8 
           3770       5.0147e+8 
           3790      5.42666e+8 
           3810      5.80792e+8 
           3830      4.91994e+8 
           3850      6.14916e+8 
           3870      6.46207e+8 
           3890       4.5505e+8 
           3910      6.39682e+8 
           3930      6.52774e+8 
           3950      6.23122e+8 
           3970       4.2676e+8 
           3990      5.92399e+8 
           4010      6.12275e+8 
           4030      5.66594e+8 
           4050      6.04168e+8 
           4070      5.86919e+8 
           4090      4.97709e+8 
           4110      4.17317e+8 
           4130      5.45937e+8 
           4150      5.50356e+8 
           4170      5.49033e+8 
           4190      5.42645e+8 
           4210      5.34781e+8 
           4230      5.26136e+8 
           4250      5.16899e+8 
           4270      5.07626e+8 
           4290      4.97438e+8 
           4310      4.80786e+8 
           4330      3.99578e+8 
           4350      3.57786e+8 
           4370      4.54575e+8 
           4390      4.40493e+8 
           4410       4.5365e+8 
           4430      4.45282e+8 
           4450      4.40318e+8 
           4470      4.05088e+8 
           4490      4.26509e+8 
           4510      4.21679e+8 
           4530      4.15265e+8 
           4550      4.08966e+8 
           4570      4.02797e+8 
           4590      3.96719e+8 
           4610      3.90785e+8 
           4630      3.84956e+8 
           4650       3.7923e+8 
           4670      3.73622e+8 
           4690      3.68096e+8 
           4710       3.5708e+8 
           4730      3.57383e+8 
           4750       3.5216e+8 
           4770       3.4658e+8 
           4790      3.40753e+8 
           4810      3.34278e+8 
           4830      3.23554e+8 
           4850      2.77392e+8 
           4870      2.41809e+8 
           4890      3.05926e+8 
           4910      3.09518e+8 
           4930      2.97479e+8 
           4950      3.04213e+8 
           4970      3.00671e+8 
           4990      2.96495e+8 
           5010      2.87874e+8 
           5030       2.8827e+8 
           5050      2.82431e+8 
           5070      2.80441e+8 
           5090      2.76599e+8 
           5110      2.72822e+8 
           5130       2.6911e+8 
           5150      2.65447e+8 
           5170      2.61861e+8 
           5190      2.58336e+8 
           5210      2.54872e+8 
           5230      2.51466e+8 
           5250      2.48105e+8 
           5270      2.44815e+8 
           5290       2.4158e+8 
           5310      2.38388e+8 
           5330      2.35263e+8 
           5350      2.32178e+8 
           5370      2.29145e+8 
           5390      2.26164e+8 
           5410      2.23221e+8 
           5430       2.2034e+8 
           5450      2.17495e+8 
           5470      2.14699e+8 
           5490       2.1195e+8 
           5510      2.09248e+8 
           5530      2.06591e+8 
           5550       2.0398e+8 
           5570      2.01401e+8 
           5590      1.98865e+8 
           5610      1.96372e+8 
           5630      1.93922e+8 
           5650      1.91501e+8 
           5670      1.89133e+8 
           5690      1.86793e+8 
           5710      1.84482e+8 
           5730      1.82209e+8 
           5750      1.79976e+8 
           5770       1.7778e+8 
           5790       1.7561e+8 
           5810      1.73476e+8 
           5830      1.71368e+8 
           5850      1.69296e+8 
           5870      1.61081e+8 
           5890      1.64713e+8 
           5910      1.63276e+8 
           5930       1.6133e+8 
           5950      1.59407e+8 
           5970      1.57516e+8 
           5990      1.55658e+8 
           6010       1.5382e+8 
           6030      1.52014e+8 
           6050      1.50229e+8 
           6070      1.48484e+8 
           6090      1.46748e+8 
           6110      1.45052e+8 
           6130      1.43376e+8 
           6150      1.41717e+8 
           6170      1.40088e+8 
           6190      1.38486e+8 
           6210      1.36902e+8 
           6230      1.35345e+8 
           6250      1.33805e+8 
           6270      1.32291e+8 
           6290      1.30794e+8 
           6310      1.29323e+8 
           6330      1.27868e+8 
           6350      1.26438e+8 
           6370      1.25023e+8 
           6390      1.23632e+8 
           6410      1.22257e+8 
           6430      1.20905e+8 
           6450      1.19568e+8 
           6470      1.18209e+8 
           6490      1.16614e+8 
           6510      1.14956e+8 
           6530      1.12389e+8 
           6550      1.02932e+8 
           6570      8.93714e+7 
           6590       1.0696e+8 
           6610      1.08513e+8 
           6630      1.07919e+8 
           6650      1.06981e+8 
           6670      1.04655e+8 
           6690      1.03669e+8 
           6710      1.03838e+8 
           6730      1.02739e+8 
           6750      1.01652e+8 
           6770      1.00575e+8 
           6790       9.9518e+7 
           6810      9.84713e+7 
           6830      9.74432e+7 
           6850      9.64254e+7 
           6870      9.54178e+7 
           6890      9.44282e+7 
           6910      9.34484e+7 
           6930      9.24783e+7 
           6950      9.15257e+7 
           6970      9.05824e+7 
           6990      8.96562e+7 
           7010       8.8739e+7 
           7030      8.78308e+7 
           7050       8.6939e+7 
           7070      8.47294e+7 
           7090      8.51889e+7 
           7110      8.43228e+7 
           7130      8.34799e+7 
           7150      8.26377e+7 
           7170      8.18109e+7 
           7190       8.0992e+7 
           7210      8.01882e+7 
           7230       7.9392e+7 
           7250      7.86034e+7 
           7270      7.78223e+7 
           7290      7.65026e+7 
           7310      7.62961e+7 
           7330      7.55508e+7 
           7350      7.48124e+7 
           7370      7.40809e+7 
           7390      7.33563e+7 
           7410      7.26452e+7 
           7430      7.19407e+7 
           7450      7.12496e+7 
           7470      7.05647e+7 
           7490      6.98862e+7 
           7510      6.92005e+7 
           7530      6.85544e+7 
           7550      6.78942e+7 
           7570      6.72533e+7 
           7590      6.66116e+7 
           7610      6.59822e+7 
           7630      6.53585e+7 
           7650      6.47404e+7 
           7670      6.41278e+7 
           7690      6.35284e+7 
           7710      6.29337e+7 
           7730      6.23455e+7 
           7750      6.17639e+7 
           7770      6.11892e+7 
           7790      6.06215e+7 
           7810      6.00422e+7 
           7830      5.95054e+7 
           7850      5.89941e+7 
           7870      5.84513e+7 
           7890      5.79145e+7 
           7910      5.73854e+7 
           7930      5.68615e+7 
           7950      5.63433e+7 
           7970      5.58212e+7 
           7990       5.5325e+7 
           8010      5.48241e+7 
           8030      5.43294e+7 
           8050        5.384e+7 
           8070      5.33565e+7 
           8090      5.28432e+7 
           8110      5.23853e+7 
           8130      5.19375e+7 
           8150       5.1439e+7 
           8170      5.10148e+7 
           8190       5.0525e+7 
           8210      5.00332e+7 
           8230      4.96713e+7 
           8250      4.92525e+7 
           8270      4.87034e+7 
           8290      4.84034e+7 
           8310      4.80071e+7 
           8330      4.75759e+7 
           8350      4.70382e+7 
           8370      4.67314e+7 
           8390      4.63766e+7 
           8410       4.5971e+7 
           8430      4.55532e+7 
           8450      4.49859e+7 
           8470      4.47459e+7 
           8490      4.43012e+7 
           8510      4.38966e+7 
           8530      4.35206e+7 
           8550      4.28622e+7 
           8570      4.29937e+7 
           8590      4.17221e+7 
