# Kurucz ODFNEW /NOVER (2003)
# teff = 31000 K (value for the effective temperature for the model. Temperatures are given in K)
# logg = 3.5 log(cm/s2) (value for Log(G) for the model.)
# meta = -0.5  (value for the Metallicity for the model.)
# lh = 1.25  (l/Hp where l is the  mixing length of the convective element and Hp is the pressure scale height)
# vtur = 2 km/s (Microturbulence velocity)
# alpha = 0.4  (Alpha)
#
# column 1: WAVELENGTH (ANGSTROM), Wavelength in Angstrom
# column 2: FLUX (ERG/CM2/S/A), Flux in erg/cm2/s/A
          147.2      1.68613e-7 
            151      4.94634e-7 
          155.2      1.53432e-6 
          158.8      3.87225e-6 
            162      8.53785e-6 
            166      2.20479e-5 
          170.3      5.82447e-5 
          173.4     0.000114251 
          176.8     0.000233354 
          180.2      0.00046337 
          181.7      0.00062421 
          186.1      0.00144456 
            191      0.00352028 
          193.9      0.00583944 
          198.4       0.0124678 
          201.8       0.0216001 
            205       0.0356407 
          210.5       0.0814295 
          216.2        0.182794 
          219.8        0.299679 
            223         0.45763 
          226.8         0.74433 
            230         1336.36 
            234         3263.53 
            240         5147.59 
          246.5          8838.8 
          252.4         15002.2 
          256.8         18672.4 
            260         34389.9 
            264         54415.4 
          268.5         83866.6 
          273.5          114572 
          278.5          139987 
            284          303678 
            290          435161 
            296          558670 
            301          745841 
            308      1.71642e+6 
            318      4.25294e+6 
            328      6.10666e+6 
            338      1.08675e+7 
            348      1.64729e+7 
            357      3.01327e+7 
            366      5.69442e+7 
            375      6.64624e+7 
            385      9.37954e+7 
            395      1.43569e+8 
            405      1.77043e+8 
            414      2.24065e+8 
            422      2.45584e+8 
            430      2.74978e+8 
            441       3.3847e+8 
            451      3.88933e+8 
            460      4.15079e+8 
            470      4.84461e+8 
            480      5.60369e+8 
            490      5.92427e+8 
            500      7.35165e+8 
            506       1.5326e+9 
            512       8.5564e+9 
            520      8.07837e+9 
            530      7.20788e+9 
            540      6.96084e+9 
            550      7.46385e+9 
            560      9.72301e+9 
            570     1.06274e+10 
            580      9.78444e+9 
            590     1.03533e+10 
            600       7.8209e+9 
            610      9.79537e+9 
            620     1.18664e+10 
            630     1.15819e+10 
            640     1.17774e+10 
            650     1.12412e+10 
            658      8.97091e+9 
            665     1.10346e+10 
            675      1.2635e+10 
            685     1.02318e+10 
            695     1.27668e+10 
            705      9.71489e+9 
            716     1.36052e+10 
            726     1.33673e+10 
            735     1.35322e+10 
            745     1.24003e+10 
            755     1.24923e+10 
            765     1.29062e+10 
            775     1.34051e+10 
            785     1.34283e+10 
            795     1.37119e+10 
            805     1.31124e+10 
            815     1.31164e+10 
            825     1.38459e+10 
            835     1.11496e+10 
            845      1.3433e+10 
            855     1.33495e+10 
            865     1.37072e+10 
            875     1.37318e+10 
            885      1.3846e+10 
            895     1.39207e+10 
            905     1.35637e+10 
            915     1.67336e+10 
            925     4.44128e+10 
            935     5.90891e+10 
            945     6.60713e+10 
            955     6.96104e+10 
            965     7.30581e+10 
            975     4.34183e+10 
            985     6.30623e+10 
            995      5.9263e+10 
           1005     6.00477e+10 
           1015     6.18689e+10 
           1025     5.54539e+10 
           1035     6.01902e+10 
           1045     6.48567e+10 
           1055     6.29594e+10 
           1065     5.73717e+10 
           1075     5.81121e+10 
           1085     5.54266e+10 
           1095     5.75765e+10 
           1105     5.53883e+10 
           1115      5.4181e+10 
           1125     4.62181e+10 
           1135     5.26481e+10 
           1145     5.06607e+10 
           1155     4.88384e+10 
           1165     4.84199e+10 
           1175     3.64607e+10 
           1185      4.4661e+10 
           1195     4.36028e+10 
           1205     4.20129e+10 
           1215     3.68914e+10 
           1225     4.12347e+10 
           1235     4.27284e+10 
           1245     4.12427e+10 
           1255     4.12004e+10 
           1265     4.14438e+10 
           1275     4.15193e+10 
           1285     4.11426e+10 
           1295     3.88181e+10 
           1305     3.85971e+10 
           1315     3.94501e+10 
           1325     3.83269e+10 
           1335     3.73025e+10 
           1345     3.72122e+10 
           1355     3.63674e+10 
           1365     3.53149e+10 
           1375     3.45899e+10 
           1385     3.38113e+10 
           1395     2.75303e+10 
           1405     2.81799e+10 
           1415     3.21068e+10 
           1425     2.97877e+10 
           1435     3.07553e+10 
           1442     3.06096e+10 
           1447     3.03498e+10 
           1455     2.92838e+10 
           1465     2.88889e+10 
           1475     2.86804e+10 
           1485     2.85311e+10 
           1495     2.77041e+10 
           1505     2.73421e+10 
           1512     2.70912e+10 
           1517     2.69669e+10 
           1525     2.62425e+10 
           1535     2.40038e+10 
           1545     2.13031e+10 
           1555     2.13119e+10 
           1565     2.27017e+10 
           1575      2.3406e+10 
           1585     2.32751e+10 
           1595     2.30463e+10 
           1605     2.17349e+10 
           1615     2.10823e+10 
           1625     2.11618e+10 
           1635     2.12095e+10 
           1645     2.07575e+10 
           1655     2.11044e+10 
           1665      2.0588e+10 
           1672     1.95616e+10 
           1677     2.14102e+10 
           1685     2.07205e+10 
           1695     2.02079e+10 
           1705     1.98653e+10 
           1715     1.92398e+10 
           1725       1.873e+10 
           1735      1.9173e+10 
           1745     1.88796e+10 
           1755     1.85012e+10 
           1765     1.82982e+10 
           1775     1.79646e+10 
           1785     1.78963e+10 
           1795     1.75092e+10 
           1805     1.74372e+10 
           1815     1.70717e+10 
           1825      1.6806e+10 
           1835     1.67665e+10 
           1845      1.6178e+10 
           1855     1.60358e+10 
           1865     1.59044e+10 
           1875     1.55948e+10 
           1885     1.51573e+10 
           1895     1.49621e+10 
           1905     1.50577e+10 
           1915     1.46953e+10 
           1925     1.40998e+10 
           1935     1.44143e+10 
           1945      1.4375e+10 
           1955     1.36182e+10 
           1967     1.38098e+10 
           1976     1.38146e+10 
           1984     1.35101e+10 
           1995     1.31457e+10 
           2005     1.32539e+10 
           2015     1.31356e+10 
           2025     1.29759e+10 
           2035     1.26922e+10 
           2045     1.24936e+10 
           2055     1.04847e+10 
           2065     1.02217e+10 
           2074     1.06289e+10 
           2078     1.07075e+10 
           2085      1.1433e+10 
           2095      1.1519e+10 
           2105     1.14481e+10 
           2115     1.14815e+10 
           2125     1.12444e+10 
           2135      1.1179e+10 
           2145     1.10079e+10 
           2155      1.0953e+10 
           2165     1.05949e+10 
           2175     1.06553e+10 
           2185     1.04176e+10 
           2195     1.04253e+10 
           2205     1.02736e+10 
           2215      1.0006e+10 
           2225      9.98245e+9 
           2235      9.84958e+9 
           2245      9.71494e+9 
           2255      9.48598e+9 
           2265      9.45895e+9 
           2275      9.34686e+9 
           2285      9.15916e+9 
           2295      8.64178e+9 
           2305      8.85058e+9 
           2315      8.79819e+9 
           2325      8.71918e+9 
           2335       8.6032e+9 
           2345       8.4923e+9 
           2355      8.37278e+9 
           2365      8.25767e+9 
           2375      8.13018e+9 
           2385      7.87802e+9 
           2395      7.86097e+9 
           2405      7.82375e+9 
           2415      7.70418e+9 
           2425       7.6318e+9 
           2435      7.51397e+9 
           2445      7.42868e+9 
           2455      7.32078e+9 
           2465      7.23919e+9 
           2475      7.13653e+9 
           2485      6.97488e+9 
           2495      5.45805e+9 
           2505      6.70606e+9 
           2513      6.56559e+9 
           2518      6.62214e+9 
           2525      6.70247e+9 
           2535      6.63855e+9 
           2545      6.52134e+9 
           2555      6.45366e+9 
           2565       6.3834e+9 
           2575      6.31289e+9 
           2585      6.23708e+9 
           2595       6.1326e+9 
           2605      6.09116e+9 
           2615      5.99838e+9 
           2625       5.9391e+9 
           2635      5.87078e+9 
           2645      5.79201e+9 
           2655      5.72654e+9 
           2665      5.63962e+9 
           2675      5.54226e+9 
           2685      5.51516e+9 
           2695      5.43437e+9 
           2705       5.3886e+9 
           2715      5.31729e+9 
           2725      5.24485e+9 
           2735      5.13455e+9 
           2745       5.1442e+9 
           2755      5.07814e+9 
           2765      5.00451e+9 
           2775      4.96704e+9 
           2785      4.89501e+9 
           2795      4.78096e+9 
           2805      4.77561e+9 
           2815      4.73527e+9 
           2825      4.66999e+9 
           2835      4.61517e+9 
           2845      4.58069e+9 
           2855      4.52079e+9 
           2865      4.46468e+9 
           2875      4.41403e+9 
           2885      4.36782e+9 
           2895      4.31716e+9 
           2910      4.23259e+9 
           2930      4.15065e+9 
           2950      4.04595e+9 
           2970      3.96141e+9 
           2990      3.86135e+9 
           3010      3.77166e+9 
           3030       3.6771e+9 
           3050      3.61401e+9 
           3070      3.54649e+9 
           3090      3.45315e+9 
           3110      3.39559e+9 
           3130      3.31773e+9 
           3150      3.25086e+9 
           3170      3.18298e+9 
           3190      3.11376e+9 
           3210      3.03494e+9 
           3230      2.98902e+9 
           3250      2.93412e+9 
           3270      2.85691e+9 
           3290      2.80832e+9 
           3310      2.75083e+9 
           3330      2.69064e+9 
           3350      2.63081e+9 
           3370      2.58369e+9 
           3390      2.54038e+9 
           3410      2.48886e+9 
           3430      2.44084e+9 
           3450      2.38366e+9 
           3470      2.34375e+9 
           3490      2.29911e+9 
           3510      2.25672e+9 
           3530      2.21462e+9 
           3550       2.1707e+9 
           3570      2.13237e+9 
           3590      2.08629e+9 
           3610      2.04815e+9 
           3630      2.00709e+9 
           3640      1.98097e+9 
           3650      1.88708e+9 
           3670      1.85661e+9 
           3690       1.8221e+9 
           3710      1.78165e+9 
           3730       1.7532e+9 
           3750      1.78486e+9 
           3770       1.7621e+9 
           3790      1.77015e+9 
           3810       1.7867e+9 
           3830      1.67376e+9 
           3850      1.75017e+9 
           3870      1.70912e+9 
           3890      1.59235e+9 
           3910      1.67198e+9 
           3930      1.62857e+9 
           3950      1.60162e+9 
           3970      1.47158e+9 
           3990      1.55715e+9 
           4010      1.52537e+9 
           4030      1.48375e+9 
           4050       1.4797e+9 
           4070       1.4379e+9 
           4090      1.39352e+9 
           4110      1.31386e+9 
           4130       1.3693e+9 
           4150      1.34927e+9 
           4170      1.33417e+9 
           4190      1.30917e+9 
           4210      1.28452e+9 
           4230      1.26998e+9 
           4250      1.24406e+9 
           4270      1.22096e+9 
           4290      1.20187e+9 
           4310      1.17875e+9 
           4330      1.14281e+9 
           4350      1.07955e+9 
           4370      1.12579e+9 
           4390      1.10227e+9 
           4410      1.08766e+9 
           4430      1.07525e+9 
           4450      1.05754e+9 
           4470       1.0291e+9 
           4490      1.02456e+9 
           4510       1.0075e+9 
           4530      9.93718e+8 
           4550      9.72682e+8 
           4570       9.6296e+8 
           4590      9.45932e+8 
           4610      9.31626e+8 
           4630      9.14738e+8 
           4650      8.82198e+8 
           4670      8.87008e+8 
           4690      8.63668e+8 
           4710      8.55704e+8 
           4730      8.53198e+8 
           4750      8.39733e+8 
           4770      8.27987e+8 
           4790      8.15636e+8 
           4810      8.02891e+8 
           4830      7.90023e+8 
           4850      7.70259e+8 
           4870      7.20661e+8 
           4890      7.55945e+8 
           4910      7.44674e+8 
           4930       7.2784e+8 
           4950       7.2174e+8 
           4970      7.13808e+8 
           4990      7.03513e+8 
           5010      6.87926e+8 
           5030      6.82422e+8 
           5050      6.71694e+8 
           5070      6.64017e+8 
           5090      6.54461e+8 
           5110      6.45222e+8 
           5130      6.36063e+8 
           5150       6.2707e+8 
           5170      6.17986e+8 
           5190      6.09652e+8 
           5210      6.01302e+8 
           5230      5.93021e+8 
           5250       5.8437e+8 
           5270      5.76063e+8 
           5290      5.68808e+8 
           5310      5.60964e+8 
           5330      5.53354e+8 
           5350      5.45855e+8 
           5370      5.38452e+8 
           5390      5.31027e+8 
           5410      5.20724e+8 
           5430      5.17022e+8 
           5450      5.10064e+8 
           5470      5.03218e+8 
           5490      4.96559e+8 
           5510      4.89784e+8 
           5530      4.83513e+8 
           5550      4.77184e+8 
           5570      4.70825e+8 
           5590       4.6393e+8 
           5610      4.58689e+8 
           5630      4.52726e+8 
           5650      4.46835e+8 
           5670      4.40923e+8 
           5690      4.31883e+8 
           5710      4.20047e+8 
           5730      4.14848e+8 
           5750      4.09369e+8 
           5770      4.04635e+8 
           5790      3.99732e+8 
           5810      3.94931e+8 
           5830      3.90674e+8 
           5850      3.86896e+8 
           5870      3.77255e+8 
           5890       3.7877e+8 
           5910      3.75121e+8 
           5930      3.71502e+8 
           5950      3.68041e+8 
           5970      3.64755e+8 
           5990      3.60223e+8 
           6010       3.5591e+8 
           6030       3.5145e+8 
           6050      3.47257e+8 
           6070      3.42968e+8 
           6090      3.38942e+8 
           6110      3.34698e+8 
           6130      3.30673e+8 
           6150      3.26693e+8 
           6170        3.225e+8 
           6190      3.19053e+8 
           6210      3.15272e+8 
           6230      3.11145e+8 
           6250      3.07778e+8 
           6270      3.04188e+8 
           6290      3.00619e+8 
           6310      2.96588e+8 
           6330      2.93616e+8 
           6350      2.90125e+8 
           6370      2.86812e+8 
           6390      2.83478e+8 
           6410      2.79695e+8 
           6430      2.76964e+8 
           6450      2.73737e+8 
           6470        2.705e+8 
           6490      2.67422e+8 
           6510      2.64403e+8 
           6530       2.6071e+8 
           6550      2.56626e+8 
           6570      2.38301e+8 
           6590      2.52271e+8 
           6610      2.49807e+8 
           6630      2.47043e+8 
           6650      2.44221e+8 
           6670      2.39965e+8 
           6690      2.36907e+8 
           6710      2.35882e+8 
           6730      2.33309e+8 
           6750      2.30912e+8 
           6770      2.28481e+8 
           6790      2.25911e+8 
           6810      2.23506e+8 
           6830      2.21036e+8 
           6850      2.18647e+8 
           6870      2.16243e+8 
           6890      2.13203e+8 
           6910      2.11395e+8 
           6930      2.09353e+8 
           6950      2.07097e+8 
           6970      2.04879e+8 
           6990      2.02682e+8 
           7010      2.00439e+8 
           7030      1.98218e+8 
           7050      1.96162e+8 
           7070      1.92198e+8 
           7090      1.92149e+8 
           7110      1.90086e+8 
           7130      1.88102e+8 
           7150      1.86159e+8 
           7170      1.83789e+8 
           7190      1.82163e+8 
           7210        1.804e+8 
           7230      1.78207e+8 
           7250      1.76566e+8 
           7270      1.74854e+8 
           7290      1.72216e+8 
           7310      1.71233e+8 
           7330      1.69521e+8 
           7350      1.67791e+8 
           7370      1.66077e+8 
           7390        1.644e+8 
           7410      1.62718e+8 
           7430      1.61085e+8 
           7450      1.59427e+8 
           7470      1.57744e+8 
           7490      1.56138e+8 
           7510      1.54673e+8 
           7530      1.53148e+8 
           7550      1.51637e+8 
           7570       1.5012e+8 
           7590      1.48153e+8 
           7610      1.47076e+8 
           7630      1.45698e+8 
           7650      1.44254e+8 
           7670      1.42869e+8 
           7690      1.41343e+8 
           7710      1.40047e+8 
           7730      1.38554e+8 
           7750      1.37357e+8 
           7770      1.36039e+8 
           7790      1.34727e+8 
           7810      1.33389e+8 
           7830      1.32137e+8 
           7850       1.3089e+8 
           7870      1.29557e+8 
           7890      1.28314e+8 
           7910       1.2719e+8 
           7930       1.2598e+8 
           7950      1.24793e+8 
           7970      1.23533e+8 
           7990      1.22419e+8 
           8010      1.21263e+8 
           8030      1.20081e+8 
           8050      1.18973e+8 
           8070      1.17881e+8 
           8090      1.16689e+8 
           8110      1.15432e+8 
           8130      1.14626e+8 
           8150       1.1344e+8 
           8170      1.12485e+8 
           8190      1.11223e+8 
           8210      1.09105e+8 
           8230      1.07964e+8 
           8250      1.07258e+8 
           8270      1.05991e+8 
           8290      1.05288e+8 
           8310      1.04373e+8 
           8330      1.03351e+8 
           8350      1.02224e+8 
           8370      1.01462e+8 
           8390      1.00653e+8 
           8410      9.97484e+7 
           8430      9.88515e+7 
           8450      9.77616e+7 
           8470      9.70116e+7 
           8490      9.63669e+7 
           8510      9.49937e+7 
           8530      9.48646e+7 
           8550      9.29217e+7 
           8570      9.37914e+7 
