# Kurucz ODFNEW /NOVER (2003)
# teff = 28000 K (value for the effective temperature for the model. Temperatures are given in K)
# logg = 5 log(cm/s2) (value for Log(G) for the model.)
# meta = -1.5  (value for the Metallicity for the model.)
# lh = 1.25  (l/Hp where l is the  mixing length of the convective element and Hp is the pressure scale height)
# vtur = 2 km/s (Microturbulence velocity)
# alpha = 0.4  (Alpha)
#
# column 1: WAVELENGTH (ANGSTROM), Wavelength in Angstrom
# column 2: FLUX (ERG/CM2/S/A), Flux in erg/cm2/s/A
          147.2     6.67644e-11 
            151     2.50795e-10 
          155.2      1.00757e-9 
          158.8      3.13799e-9 
            162      8.27315e-9 
            166      2.64104e-8 
          170.3      8.66753e-8 
          173.4      1.97013e-7 
          176.8      4.69227e-7 
          180.2      1.08192e-6 
          181.7      1.54869e-6 
          186.1      4.29299e-6 
            191      1.26451e-5 
          193.9       2.3357e-5 
          198.4      5.83921e-5 
          201.8     0.000113537 
            205      0.00020801 
          210.5     0.000563952 
          216.2      0.00150104 
          219.8      0.00271209 
            223      0.00451395 
          226.8      0.00811051 
            230        0.382213 
            234        0.885613 
            240         1.85886 
          246.5         3.98707 
          252.4         7.79529 
          256.8          11.723 
            260         17.3184 
            264         25.5283 
          268.5         39.6596 
          273.5          63.065 
          278.5         98.7987 
            284         159.896 
            290         261.529 
            296         418.755 
            301         606.835 
            308           958.9 
            318         2023.31 
            328         3785.36 
            338         6973.41 
            348         12213.3 
            357         20202.8 
            366         32187.2 
            375         48510.7 
            385         76387.9 
            395          116062 
            405          172238 
            414          243495 
            422          320809 
            430          421595 
            441          605305 
            451          830986 
            460       1.0766e+6 
            470      1.43135e+6 
            480      1.86713e+6 
            490      2.41069e+6 
            500      3.08572e+6 
            506      1.55188e+7 
            512      6.02896e+7 
            520      6.74296e+7 
            530      8.20959e+7 
            540       8.2303e+7 
            550      1.04183e+8 
            560      1.13338e+8 
            570      1.27617e+8 
            580      1.24912e+8 
            590       1.4962e+8 
            600      1.63856e+8 
            610      1.81095e+8 
            620      1.93951e+8 
            630       2.1143e+8 
            640      2.19572e+8 
            650      2.42195e+8 
            658      2.57929e+8 
            665      2.70451e+8 
            675      2.81548e+8 
            685      2.95458e+8 
            695      3.31497e+8 
            705      3.43534e+8 
            716      3.73756e+8 
            726      3.91899e+8 
            735      4.14934e+8 
            745      4.42641e+8 
            755      4.66483e+8 
            765      4.90255e+8 
            775      5.18643e+8 
            785      5.46926e+8 
            795      5.67718e+8 
            805       5.9507e+8 
            815      6.18387e+8 
            825       6.4976e+8 
            835      6.50229e+8 
            845      6.97558e+8 
            855        7.221e+8 
            865       7.5429e+8 
            875      7.85861e+8 
            885      8.17407e+8 
            895      8.45663e+8 
            905      8.62817e+8 
            915      1.01069e+9 
            925      4.24944e+9 
            935     1.03466e+10 
            945     2.87909e+10 
            955     4.13647e+10 
            965     5.68477e+10 
            975      2.1058e+10 
            985     6.52561e+10 
            995     6.12798e+10 
           1005     6.46019e+10 
           1015     5.72869e+10 
           1025     1.78492e+10 
           1035     5.03853e+10 
           1045     6.33422e+10 
           1055     6.15751e+10 
           1065     5.55449e+10 
           1075     5.72808e+10 
           1085        5.19e+10 
           1095      5.5795e+10 
           1105     5.27626e+10 
           1115     5.16356e+10 
           1125     4.70694e+10 
           1135     4.97003e+10 
           1145     4.58877e+10 
           1155       4.663e+10 
           1165     4.58496e+10 
           1175     3.83735e+10 
           1185     4.29709e+10 
           1195     3.98936e+10 
           1205     3.29814e+10 
           1215     1.24565e+10 
           1225     3.25911e+10 
           1235      3.7702e+10 
           1245     3.71085e+10 
           1255     3.65864e+10 
           1265     3.57348e+10 
           1275     3.55287e+10 
           1285     3.46585e+10 
           1295     3.11578e+10 
           1305     3.12794e+10 
           1315     3.22215e+10 
           1325     3.09881e+10 
           1335      2.9828e+10 
           1345     2.95298e+10 
           1355     2.94403e+10 
           1365     2.80845e+10 
           1375     2.77273e+10 
           1385      2.7236e+10 
           1395     2.45065e+10 
           1405     2.46016e+10 
           1415      2.5226e+10 
           1425     2.45819e+10 
           1435     2.42551e+10 
           1442     2.41815e+10 
           1447     2.38509e+10 
           1455     2.33758e+10 
           1465     2.27734e+10 
           1475     2.23133e+10 
           1485     2.18447e+10 
           1495     2.13596e+10 
           1505     2.04163e+10 
           1512     2.01684e+10 
           1517     2.00815e+10 
           1525     1.97207e+10 
           1535     1.86524e+10 
           1545     1.83612e+10 
           1555     1.77846e+10 
           1565      1.7918e+10 
           1575     1.77975e+10 
           1585     1.74807e+10 
           1595     1.72311e+10 
           1605     1.65987e+10 
           1615     1.62162e+10 
           1625     1.60942e+10 
           1635     1.59092e+10 
           1645     1.53113e+10 
           1655     1.53964e+10 
           1665     1.51481e+10 
           1672     1.48625e+10 
           1677     1.49911e+10 
           1685     1.47097e+10 
           1695     1.43505e+10 
           1705     1.40012e+10 
           1715     1.36245e+10 
           1725      1.3372e+10 
           1735     1.32784e+10 
           1745     1.30203e+10 
           1755     1.28527e+10 
           1765     1.24257e+10 
           1775     1.22455e+10 
           1785      1.2085e+10 
           1795     1.19881e+10 
           1805     1.18337e+10 
           1815     1.15104e+10 
           1825     1.13642e+10 
           1835     1.11555e+10 
           1845     1.06432e+10 
           1855     1.04238e+10 
           1865     1.03936e+10 
           1875     1.03603e+10 
           1885      9.86899e+9 
           1895      9.51301e+9 
           1905      9.68299e+9 
           1915      9.34297e+9 
           1925      9.12314e+9 
           1935      9.16935e+9 
           1945      9.15477e+9 
           1955       8.7006e+9 
           1967      8.79437e+9 
           1976      8.83186e+9 
           1984      8.52754e+9 
           1995      8.26622e+9 
           2005      8.31995e+9 
           2015      8.26931e+9 
           2025      8.20355e+9 
           2035      7.95728e+9 
           2045      7.83758e+9 
           2055      7.50029e+9 
           2065      7.41271e+9 
           2074      7.47735e+9 
           2078      7.28832e+9 
           2085      7.27439e+9 
           2095      7.11765e+9 
           2105      7.18001e+9 
           2115      7.12726e+9 
           2125      7.06168e+9 
           2135      6.94262e+9 
           2145       6.8068e+9 
           2155      6.73988e+9 
           2165      6.64819e+9 
           2175        6.543e+9 
           2185      6.45405e+9 
           2195      6.37372e+9 
           2205      6.28001e+9 
           2215      6.18742e+9 
           2225      6.09433e+9 
           2235      6.00108e+9 
           2245      5.92965e+9 
           2255      5.83242e+9 
           2265      5.76312e+9 
           2275      5.68236e+9 
           2285      5.60272e+9 
           2295      5.44327e+9 
           2305      5.44032e+9 
           2315      5.36474e+9 
           2325      5.29305e+9 
           2335      5.20987e+9 
           2345       5.1482e+9 
           2355      5.08216e+9 
           2365       5.0134e+9 
           2375      4.94142e+9 
           2385      4.87007e+9 
           2395      4.80801e+9 
           2405      4.74544e+9 
           2415      4.67838e+9 
           2425      4.62335e+9 
           2435        4.554e+9 
           2445      4.49817e+9 
           2455      4.44166e+9 
           2465      4.38425e+9 
           2475      4.32577e+9 
           2485      4.26973e+9 
           2495      4.09105e+9 
           2505      4.15529e+9 
           2513      4.07227e+9 
           2518      4.07964e+9 
           2525      4.05185e+9 
           2535      4.00131e+9 
           2545      3.92101e+9 
           2555      3.89055e+9 
           2565      3.84613e+9 
           2575      3.80307e+9 
           2585      3.75623e+9 
           2595      3.70966e+9 
           2605      3.68495e+9 
           2615      3.63947e+9 
           2625      3.59523e+9 
           2635      3.54911e+9 
           2645      3.50428e+9 
           2655      3.45736e+9 
           2665      3.40483e+9 
           2675      3.35842e+9 
           2685      3.34003e+9 
           2695      3.26799e+9 
           2705      3.25638e+9 
           2715      3.21838e+9 
           2725      3.15051e+9 
           2735      3.13905e+9 
           2745      3.10097e+9 
           2755      3.06619e+9 
           2765      3.00113e+9 
           2775      2.99735e+9 
           2785      2.96085e+9 
           2795      2.88675e+9 
           2805      2.87837e+9 
           2815      2.85957e+9 
           2825      2.79093e+9 
           2835      2.75914e+9 
           2845      2.76128e+9 
           2855       2.7281e+9 
           2865      2.69757e+9 
           2875      2.66685e+9 
           2885      2.63703e+9 
           2895       2.6068e+9 
           2910      2.56136e+9 
           2930      2.50391e+9 
           2950      2.42566e+9 
           2970      2.39515e+9 
           2990      2.34155e+9 
           3010      2.28925e+9 
           3030      2.24132e+9 
           3050       2.1936e+9 
           3070        2.147e+9 
           3090      2.09393e+9 
           3110       2.0561e+9 
           3130      2.01345e+9 
           3150      1.97183e+9 
           3170      1.93053e+9 
           3190      1.87063e+9 
           3210      1.85091e+9 
           3230      1.81217e+9 
           3250      1.77524e+9 
           3270      1.74136e+9 
           3290      1.70348e+9 
           3310       1.6723e+9 
           3330      1.63878e+9 
           3350      1.60313e+9 
           3370      1.57454e+9 
           3390      1.54398e+9 
           3410      1.51394e+9 
           3430       1.4776e+9 
           3450      1.44336e+9 
           3470      1.41989e+9 
           3490      1.39277e+9 
           3510      1.36817e+9 
           3530      1.34391e+9 
           3550      1.31958e+9 
           3570      1.30439e+9 
           3590      1.26809e+9 
           3610      1.25113e+9 
           3630      1.22229e+9 
           3640      1.22274e+9 
           3650      1.19962e+9 
           3670      1.18351e+9 
           3690      1.16305e+9 
           3710      1.12454e+9 
           3730      1.08641e+9 
           3750      1.07303e+9 
           3770       1.0419e+9 
           3790      1.08208e+9 
           3810      1.12647e+9 
           3830      9.80315e+8 
           3850      1.16187e+9 
           3870      1.18868e+9 
           3890      9.17593e+8 
           3910      1.16976e+9 
           3930      1.16827e+9 
           3950       1.1331e+9 
           3970      8.52063e+8 
           3990      1.08158e+9 
           4010      1.09213e+9 
           4030      1.01442e+9 
           4050      1.07097e+9 
           4070      1.03909e+9 
           4090      9.27134e+8 
           4110      8.04571e+8 
           4130      9.71458e+8 
           4150      9.69795e+8 
           4170      9.65281e+8 
           4190      9.51711e+8 
           4210      9.36993e+8 
           4230      9.20616e+8 
           4250      9.03525e+8 
           4270      8.83841e+8 
           4290      8.69355e+8 
           4310      8.45183e+8 
           4330      7.41286e+8 
           4350      6.73803e+8 
           4370      7.99999e+8 
           4390      7.70325e+8 
           4410      7.86521e+8 
           4430      7.73926e+8 
           4450      7.63561e+8 
           4470      7.05912e+8 
           4490      7.37459e+8 
           4510      7.28896e+8 
           4530      7.17205e+8 
           4550      7.04999e+8 
           4570      6.93449e+8 
           4590      6.82573e+8 
           4610      6.72143e+8 
           4630      6.61815e+8 
           4650      6.47962e+8 
           4670      6.40611e+8 
           4690      6.30774e+8 
           4710      6.10773e+8 
           4730       6.1195e+8 
           4750      6.02133e+8 
           4770      5.93948e+8 
           4790      5.83974e+8 
           4810      5.73022e+8 
           4830      5.58128e+8 
           4850      5.01003e+8 
           4870      4.45685e+8 
           4890      5.29974e+8 
           4910       5.2951e+8 
           4930      5.07227e+8 
           4950       5.1765e+8 
           4970      5.10869e+8 
           4990      5.03333e+8 
           5010       4.8805e+8 
           5030      4.88689e+8 
           5050      4.78074e+8 
           5070      4.74779e+8 
           5090        4.679e+8 
           5110      4.61171e+8 
           5130      4.54533e+8 
           5150      4.48041e+8 
           5170      4.41749e+8 
           5190      4.35567e+8 
           5210      4.29301e+8 
           5230      4.23435e+8 
           5250      4.17508e+8 
           5270      4.11687e+8 
           5290      4.05995e+8 
           5310      4.00364e+8 
           5330      3.94845e+8 
           5350      3.89385e+8 
           5370      3.84125e+8 
           5390      3.78868e+8 
           5410      3.73716e+8 
           5430      3.68643e+8 
           5450      3.63672e+8 
           5470      3.58801e+8 
           5490      3.54004e+8 
           5510      3.49293e+8 
           5530      3.44639e+8 
           5550      3.40081e+8 
           5570      3.35567e+8 
           5590      3.31168e+8 
           5610        3.268e+8 
           5630      3.22545e+8 
           5650      3.18248e+8 
           5670      3.14061e+8 
           5690      3.09926e+8 
           5710      3.06083e+8 
           5730       3.0216e+8 
           5750      2.98148e+8 
           5770      2.94489e+8 
           5790      2.90738e+8 
           5810      2.87044e+8 
           5830      2.83393e+8 
           5850      2.79818e+8 
           5870      2.65768e+8 
           5890      2.71796e+8 
           5910      2.69409e+8 
           5930      2.66041e+8 
           5950      2.62702e+8 
           5970      2.59518e+8 
           5990      2.56276e+8 
           6010      2.53144e+8 
           6030      2.50038e+8 
           6050      2.46988e+8 
           6070      2.43983e+8 
           6090      2.41022e+8 
           6110      2.38104e+8 
           6130       2.3523e+8 
           6150      2.32348e+8 
           6170      2.29597e+8 
           6190      2.26857e+8 
           6210      2.24148e+8 
           6230      2.21488e+8 
           6250      2.18848e+8 
           6270      2.16275e+8 
           6290      2.13721e+8 
           6310      2.11195e+8 
           6330      2.08735e+8 
           6350      2.06235e+8 
           6370      2.03875e+8 
           6390      2.01521e+8 
           6410      1.99183e+8 
           6430      1.96898e+8 
           6450      1.94629e+8 
           6470      1.92356e+8 
           6490      1.90099e+8 
           6510      1.87395e+8 
           6530      1.84067e+8 
           6550      1.72917e+8 
           6570      1.52464e+8 
           6590      1.75951e+8 
           6610      1.76724e+8 
           6630      1.75351e+8 
           6650      1.73736e+8 
           6670      1.69452e+8 
           6690      1.67615e+8 
           6710       1.6804e+8 
           6730      1.66153e+8 
           6750      1.64351e+8 
           6770      1.62543e+8 
           6790      1.60705e+8 
           6810       1.5899e+8 
           6830      1.57253e+8 
           6850      1.55557e+8 
           6870      1.53863e+8 
           6890      1.52185e+8 
           6910       1.5054e+8 
           6930      1.48935e+8 
           6950      1.47338e+8 
           6970      1.45765e+8 
           6990      1.44207e+8 
           7010      1.42672e+8 
           7030      1.41153e+8 
           7050      1.39663e+8 
           7070      1.35671e+8 
           7090      1.36735e+8 
           7110      1.35297e+8 
           7130      1.33879e+8 
           7150      1.32475e+8 
           7170      1.31085e+8 
           7190      1.29737e+8 
           7210      1.28395e+8 
           7230      1.26792e+8 
           7250      1.25743e+8 
           7270       1.2446e+8 
           7290      1.22048e+8 
           7310       1.2191e+8 
           7330      1.20678e+8 
           7350       1.1945e+8 
           7370      1.18241e+8 
           7390      1.17043e+8 
           7410      1.15863e+8 
           7430      1.14694e+8 
           7450      1.13557e+8 
           7470      1.12389e+8 
           7490      1.11293e+8 
           7510      1.10146e+8 
           7530      1.09084e+8 
           7550      1.08004e+8 
           7570      1.06935e+8 
           7590      1.05881e+8 
           7610      1.04831e+8 
           7630       1.0381e+8 
           7650      1.02791e+8 
           7670      1.01789e+8 
           7690      1.00795e+8 
           7710      9.98099e+7 
           7730      9.88465e+7 
           7750      9.78854e+7 
           7770      9.68954e+7 
           7790      9.60074e+7 
           7810      9.50345e+7 
           7830      9.41748e+7 
           7850      9.33532e+7 
           7870      9.24536e+7 
           7890      9.15195e+7 
           7910      9.07261e+7 
           7930      8.98676e+7 
           7950      8.89988e+7 
           7970      8.80426e+7 
           7990       8.7213e+7 
           8010      8.63376e+7 
           8030      8.55108e+7 
           8050      8.47085e+7 
           8070      8.39247e+7 
           8090      8.30671e+7 
           8110      8.23314e+7 
           8130      8.16589e+7 
           8150      8.08503e+7 
           8170       8.0184e+7 
           8190      7.93492e+7 
           8210      7.84544e+7 
           8230      7.79067e+7 
           8250      7.72306e+7 
           8270      7.61855e+7 
           8290      7.58073e+7 
           8310      7.51647e+7 
           8330       7.4435e+7 
           8350      7.34304e+7 
           8370        7.301e+7 
           8390      7.24643e+7 
           8410      7.18165e+7 
           8430      7.11315e+7 
           8450      7.00091e+7 
           8470      6.98889e+7 
           8490      6.91053e+7 
           8510      6.86196e+7 
           8530      6.78477e+7 
           8550      6.71751e+7 
           8570      6.69645e+7 
