# Kurucz ODFNEW /NOVER (2003)
# teff = 8250 K (value for the effective temperature for the model. Temperatures are given in K)
# logg = 4 log(cm/s2) (value for Log(G) for the model.)
# meta = 0  (value for the Metallicity for the model.)
# lh = 1.25  (l/Hp where l is the  mixing length of the convective element and Hp is the pressure scale height)
# vtur = 2 km/s (Microturbulence velocity)
# alpha = 0  (Alpha)
#
# column 1: WAVELENGTH (ANGSTROM), Wavelength in Angstrom
# column 2: FLUX (ERG/CM2/S/A), Flux in erg/cm2/s/A
            328     4.69441e-23 
            338     5.65569e-22 
            348     5.37141e-21 
            357     3.63519e-20 
            366     2.23196e-19 
            375     1.25228e-18 
            385     7.71708e-18 
            395     4.32276e-17 
            405     2.21711e-16 
            414     7.17935e-17 
            422     2.20854e-16 
            430     6.49711e-16 
            441     2.67552e-15 
            451     9.07925e-15 
            460     2.59705e-14 
            470     7.93673e-14 
            480     2.30616e-13 
            490     6.39546e-13 
            500     1.69543e-12 
            506     3.95216e-12 
            512     7.72978e-12 
            520      1.5717e-11 
            530     3.72009e-11 
            540      8.3498e-11 
            550     1.84317e-10 
            560     3.91734e-10 
            570     8.08328e-10 
            580      1.60289e-9 
            590      3.17087e-9 
            600      6.04577e-9 
            610      1.12715e-8 
            620       2.0528e-8 
            630      3.66061e-8 
            640      6.39787e-8 
            650      1.09764e-7 
            658      1.66775e-7 
            665      2.37977e-7 
            675      3.90583e-7 
            685      6.30635e-7 
            695      1.00253e-6 
            705      1.56384e-6 
            716       2.5274e-6 
            726      3.84287e-6 
            735      5.54126e-6 
            745      8.22048e-6 
            755      1.20575e-5 
            765      1.74845e-5 
            775       2.5076e-5 
            785      3.56106e-5 
            795      4.95588e-5 
            805      6.92969e-5 
            815      9.57896e-5 
            825     0.000130843 
            835     0.000177146 
            845     0.000237896 
            855     0.000316854 
            865     0.000418759 
            875     0.000547608 
            885     0.000715147 
            895     0.000924863 
            905      0.00118245 
            915        0.505096 
            925         1.72139 
            935          2.2573 
            945         2.92803 
            955         3.98207 
            965         5.08482 
            975         6.11644 
            985         7.78484 
            995         9.33809 
           1005         12.1886 
           1015         14.9723 
           1025         17.1016 
           1035         22.1295 
           1045         27.0639 
           1055         32.7747 
           1065         38.7483 
           1075         47.2727 
           1085         56.9082 
           1095         66.5971 
           1105         176.522 
           1115         517.144 
           1125         726.833 
           1135         995.819 
           1145         1219.59 
           1155         1322.17 
           1165         1742.88 
           1175         2011.07 
           1185         2101.59 
           1195         1200.53 
           1205         1114.99 
           1215         274.874 
           1225          1251.7 
           1235         2847.16 
           1245         5784.77 
           1255         12361.8 
           1265         12293.3 
           1275         18559.2 
           1285         25897.5 
           1295         31079.2 
           1305         26704.7 
           1315         38563.4 
           1325         45182.9 
           1335         49129.3 
           1345         59973.9 
           1355         60965.3 
           1365         66268.5 
           1375         71941.5 
           1385         76370.1 
           1395         86474.4 
           1405         95868.2 
           1415         99035.6 
           1425          110181 
           1435          110032 
           1442          127062 
           1447          135014 
           1455          150861 
           1465          152145 
           1475          165107 
           1485          181017 
           1495          201948 
           1505          219848 
           1512          219696 
           1517          238041 
           1525          252349 
           1535          551098 
           1545      1.49139e+6 
           1555      1.32027e+6 
           1565      1.17934e+6 
           1575      2.11614e+6 
           1585      2.90694e+6 
           1595       3.3507e+6 
           1605      3.40121e+6 
           1615      3.82301e+6 
           1625      3.67196e+6 
           1635      5.12537e+6 
           1645       9.4098e+6 
           1655      5.08449e+6 
           1665      1.00745e+7 
           1672      4.92072e+6 
           1677      1.23697e+7 
           1685      1.63842e+7 
           1695      1.22149e+7 
           1705      1.41088e+7 
           1715      1.87761e+7 
           1725      1.92326e+7 
           1735      2.36471e+7 
           1745      2.22794e+7 
           1755      2.73127e+7 
           1765      1.84929e+7 
           1775      2.51031e+7 
           1785      2.46453e+7 
           1795      3.10864e+7 
           1805      2.60205e+7 
           1815      2.77038e+7 
           1825      2.43799e+7 
           1835      2.30364e+7 
           1845      1.98401e+7 
           1855      2.29244e+7 
           1865      2.58321e+7 
           1875       2.5043e+7 
           1885       2.5712e+7 
           1895      2.74693e+7 
           1905      2.48449e+7 
           1915      2.72632e+7 
           1925      2.67753e+7 
           1935      2.00347e+7 
           1945      2.86972e+7 
           1955      2.89396e+7 
           1967      3.16849e+7 
           1976      3.08402e+7 
           1984       2.9231e+7 
           1995      2.85224e+7 
           2005      2.65021e+7 
           2015      2.57767e+7 
           2025      2.39398e+7 
           2035      2.73849e+7 
           2045      2.99886e+7 
           2055      2.81444e+7 
           2065      2.69775e+7 
           2074      3.15398e+7 
           2078      3.32925e+7 
           2085      3.18171e+7 
           2095      2.97425e+7 
           2105      2.73793e+7 
           2115      2.81156e+7 
           2125      2.92081e+7 
           2135      2.28506e+7 
           2145      2.76384e+7 
           2155      2.76697e+7 
           2165       2.5349e+7 
           2175      2.50679e+7 
           2185      2.65837e+7 
           2195      2.88895e+7 
           2205      2.74247e+7 
           2215      2.39181e+7 
           2225      2.35605e+7 
           2235      2.82003e+7 
           2245      2.49918e+7 
           2255      2.30415e+7 
           2265      2.30823e+7 
           2275      2.52222e+7 
           2285      2.67047e+7 
           2295      2.40385e+7 
           2305      2.49386e+7 
           2315      2.39061e+7 
           2325      2.32186e+7 
           2335      2.00456e+7 
           2345      1.64948e+7 
           2355      2.30907e+7 
           2365      1.72205e+7 
           2375      2.04053e+7 
           2385      1.48494e+7 
           2395      1.76069e+7 
           2405      1.69879e+7 
           2415      1.77848e+7 
           2425      2.20415e+7 
           2435      2.11816e+7 
           2445      2.31148e+7 
           2455      2.27356e+7 
           2465      2.27052e+7 
           2475       2.0861e+7 
           2485      2.14304e+7 
           2495      2.01751e+7 
           2505       2.5145e+7 
           2513      2.04174e+7 
           2518      2.08617e+7 
           2525      1.85705e+7 
           2535      1.73919e+7 
           2545      1.67704e+7 
           2555       1.9455e+7 
           2565      1.90431e+7 
           2575      2.20255e+7 
           2585      2.21909e+7 
           2595      2.13242e+7 
           2605      1.98451e+7 
           2615      1.87169e+7 
           2625      2.27247e+7 
           2635      2.35092e+7 
           2645      2.86762e+7 
           2655       2.9235e+7 
           2665      2.43954e+7 
           2675       2.6701e+7 
           2685      2.64946e+7 
           2695      2.43522e+7 
           2705      2.57459e+7 
           2715      2.32941e+7 
           2725      2.38108e+7 
           2735      2.62695e+7 
           2745      1.92339e+7 
           2755      2.08486e+7 
           2765      2.22601e+7 
           2775      2.55456e+7 
           2785      2.31787e+7 
           2795      1.17561e+7 
           2805      1.48336e+7 
           2815      2.64654e+7 
           2825      2.84833e+7 
           2835      2.69501e+7 
           2845      2.55248e+7 
           2855      2.34056e+7 
           2865      2.70051e+7 
           2875      2.62478e+7 
           2885      2.66636e+7 
           2895      2.51029e+7 
           2910      2.94564e+7 
           2930      2.78476e+7 
           2950      2.76046e+7 
           2970      2.88216e+7 
           2990      2.89821e+7 
           3010      2.95401e+7 
           3030        2.919e+7 
           3050      2.90988e+7 
           3070        2.936e+7 
           3090       2.9865e+7 
           3110      2.88831e+7 
           3130      2.87366e+7 
           3150      2.96983e+7 
           3170      2.95291e+7 
           3190      2.76621e+7 
           3210      2.86058e+7 
           3230      2.73214e+7 
           3250      2.84292e+7 
           3270      2.90436e+7 
           3290      2.92495e+7 
           3310      2.97083e+7 
           3330      2.89774e+7 
           3350      2.85895e+7 
           3370      2.82465e+7 
           3390      2.83653e+7 
           3410      2.86235e+7 
           3430      2.88091e+7 
           3450      2.85757e+7 
           3470      2.81941e+7 
           3490      2.81212e+7 
           3510      2.87034e+7 
           3530      2.85414e+7 
           3550      2.91743e+7 
           3570      2.79258e+7 
           3590      2.77257e+7 
           3610      2.78047e+7 
           3630      2.80241e+7 
           3640      2.76431e+7 
           3650      2.87669e+7 
           3670      2.85409e+7 
           3690      2.73105e+7 
           3710      2.81998e+7 
           3730      2.87105e+7 
           3750      3.56195e+7 
           3770      3.81053e+7 
           3790      4.66791e+7 
           3810      5.45522e+7 
           3830      4.30844e+7 
           3850      6.06325e+7 
           3870      6.86957e+7 
           3890      3.93532e+7 
           3910       6.8628e+7 
           3930      6.26773e+7 
           3950      6.83123e+7 
           3970      3.66023e+7 
           3990      6.73258e+7 
           4010       7.7946e+7 
           4030      7.83642e+7 
           4050      7.72798e+7 
           4070      7.24171e+7 
           4090      5.57704e+7 
           4110      4.25234e+7 
           4130      6.85017e+7 
           4150      7.39656e+7 
           4170      7.41114e+7 
           4190      7.33047e+7 
           4210      7.31859e+7 
           4230      7.10448e+7 
           4250      7.11015e+7 
           4270      6.82241e+7 
           4290      6.82015e+7 
           4310      6.16198e+7 
           4330      4.68478e+7 
           4350      3.99157e+7 
           4370      6.17779e+7 
           4390      6.45511e+7 
           4410      6.40231e+7 
           4430      6.33849e+7 
           4450      6.43023e+7 
           4470      6.38092e+7 
           4490      6.29057e+7 
           4510      6.40696e+7 
           4530      6.18437e+7 
           4550      6.06971e+7 
           4570      6.20899e+7 
           4590      6.00586e+7 
           4610      6.08522e+7 
           4630       5.9115e+7 
           4650      5.93655e+7 
           4670      5.89738e+7 
           4690      5.67369e+7 
           4710      5.46327e+7 
           4730      5.68069e+7 
           4750      5.64647e+7 
           4770      5.54475e+7 
           4790      5.46094e+7 
           4810      5.30555e+7 
           4830      4.98718e+7 
           4850      3.82279e+7 
           4870      3.06538e+7 
           4890      4.65081e+7 
           4910      4.97631e+7 
           4930      4.95013e+7 
           4950      5.02275e+7 
           4970       5.0425e+7 
           4990      4.88808e+7 
           5010      4.74047e+7 
           5030      4.82584e+7 
           5050      4.73347e+7 
           5070      4.78311e+7 
           5090      4.71681e+7 
           5110      4.69453e+7 
           5130      4.60388e+7 
           5150      4.50911e+7 
           5170       4.4041e+7 
           5190      4.36225e+7 
           5210      4.37115e+7 
           5230      4.31161e+7 
           5250       4.3689e+7 
           5270      4.13382e+7 
           5290      4.26094e+7 
           5310       4.1935e+7 
           5330      4.06289e+7 
           5350      4.14669e+7 
           5370      4.08594e+7 
           5390      4.04504e+7 
           5410      3.95946e+7 
           5430      3.96484e+7 
           5450      3.96065e+7 
           5470      3.91437e+7 
           5490      3.89002e+7 
           5510      3.85849e+7 
           5530       3.8055e+7 
           5550      3.79769e+7 
           5570      3.73768e+7 
           5590       3.6941e+7 
           5610      3.67762e+7 
           5630      3.66509e+7 
           5650      3.62255e+7 
           5670      3.57056e+7 
           5690       3.5569e+7 
           5710      3.52221e+7 
           5730      3.52027e+7 
           5750      3.46699e+7 
           5770      3.44368e+7 
           5790      3.40667e+7 
           5810      3.38102e+7 
           5830      3.35543e+7 
           5850      3.31656e+7 
           5870      3.28842e+7 
           5890      3.21672e+7 
           5910      3.22928e+7 
           5930      3.20068e+7 
           5950      3.16973e+7 
           5970      3.14525e+7 
           5990      3.10706e+7 
           6010      3.06712e+7 
           6030      3.05075e+7 
           6050      3.02824e+7 
           6070      3.01067e+7 
           6090      2.97732e+7 
           6110      2.94424e+7 
           6130      2.89658e+7 
           6150       2.8459e+7 
           6170      2.83767e+7 
           6190      2.84985e+7 
           6210      2.82615e+7 
           6230      2.78881e+7 
           6250      2.72586e+7 
           6270      2.75459e+7 
           6290       2.7312e+7 
           6310      2.68903e+7 
           6330      2.67394e+7 
           6350      2.63078e+7 
           6370      2.61428e+7 
           6390      2.60588e+7 
           6410      2.56489e+7 
           6430      2.55269e+7 
           6450      2.50247e+7 
           6470      2.49864e+7 
           6490      2.45115e+7 
           6510      2.42171e+7 
           6530      2.33083e+7 
           6550      2.00112e+7 
           6570       1.5983e+7 
           6590      2.18674e+7 
           6610      2.30778e+7 
           6630      2.32799e+7 
           6650       2.3215e+7 
           6670      2.30421e+7 
           6690      2.29466e+7 
           6710      2.27691e+7 
           6730      2.25965e+7 
           6750      2.23297e+7 
           6770      2.22777e+7 
           6790      2.20829e+7 
           6810      2.19006e+7 
           6830      2.16837e+7 
           6850      2.15123e+7 
           6870      2.13752e+7 
           6890      2.12077e+7 
           6910       2.1029e+7 
           6930      2.08459e+7 
           6950      2.06863e+7 
           6970      2.05088e+7 
           6990      2.03654e+7 
           7010      2.00707e+7 
           7030      1.99803e+7 
           7050      1.98565e+7 
           7070      1.97119e+7 
           7090      1.95589e+7 
           7110      1.90645e+7 
           7130      1.91466e+7 
           7150       1.9022e+7 
           7170       1.8875e+7 
           7190      1.87009e+7 
           7210      1.85893e+7 
           7230      1.84398e+7 
           7250      1.82622e+7 
           7270      1.81954e+7 
           7290      1.79709e+7 
           7310      1.78678e+7 
           7330      1.77318e+7 
           7350      1.76403e+7 
           7370      1.75142e+7 
           7390      1.73195e+7 
           7410      1.71191e+7 
           7430      1.69609e+7 
           7450      1.68815e+7 
           7470       1.6673e+7 
           7490      1.65996e+7 
           7510      1.65306e+7 
           7530      1.64283e+7 
           7550      1.63487e+7 
           7570      1.62026e+7 
           7590      1.60918e+7 
           7610      1.59663e+7 
           7630      1.58498e+7 
           7650      1.57052e+7 
           7670      1.55261e+7 
           7690      1.54448e+7 
           7710      1.53248e+7 
           7730      1.52589e+7 
           7750      1.51175e+7 
           7770      1.47196e+7 
           7790      1.49384e+7 
           7810       1.4812e+7 
           7830      1.46485e+7 
           7850      1.45043e+7 
           7870      1.44027e+7 
           7890      1.42747e+7 
           7910      1.41833e+7 
           7930      1.40622e+7 
           7950      1.39408e+7 
           7970      1.39676e+7 
           7990      1.37379e+7 
           8010      1.37328e+7 
           8030      1.36142e+7 
           8050      1.35367e+7 
           8070      1.34344e+7 
           8090      1.33313e+7 
           8110      1.32684e+7 
           8130      1.31844e+7 
           8150      1.30869e+7 
           8170       1.2993e+7 
           8190      1.27308e+7 
           8210      1.26895e+7 
           8230      1.25929e+7 
           8250      1.25302e+7 
           8270      1.25755e+7 
           8290      1.24776e+7 
           8310      1.23756e+7 
           8330      1.21865e+7 
           8350      1.22184e+7 
           8370      1.21477e+7 
           8390      1.20176e+7 
           8410      1.19478e+7 
           8430      1.18371e+7 
           8450      1.16006e+7 
           8470      1.15233e+7 
           8490      1.16243e+7 
           8510      1.10262e+7 
           8530      1.15404e+7 
           8550      1.02574e+7 
           8570      1.15791e+7 
           8590      1.08432e+7 
           8610      1.05845e+7 
           8630      1.15376e+7 
           8650      1.10936e+7 
           8670      9.20312e+6 
           8690      1.10919e+7 
           8710      1.15565e+7 
           8730      1.10953e+7 
           8750      8.89537e+6 
           8770         1.06e+7 
           8790      1.14276e+7 
           8810      1.14699e+7 
           8830      1.10832e+7 
           8850       9.9504e+6 
           8870      8.48824e+6 
           8890      1.06166e+7 
           8910      1.11081e+7 
           8930      1.11821e+7 
           8950      1.12277e+7 
           8970      1.09684e+7 
           8990      1.03873e+7 
           9010      8.28776e+6 
           9030      9.09334e+6 
           9050      1.03945e+7 
           9070      1.04838e+7 
           9090      1.04176e+7 
           9110      1.06497e+7 
           9130      1.06745e+7 
           9150      1.06171e+7 
           9170      1.04289e+7 
           9190      1.00887e+7 
           9210      9.27877e+6 
           9230      7.27564e+6 
           9250      8.90942e+6 
           9270      9.58604e+6 
           9290      1.00189e+7 
           9310      1.00728e+7 
           9330      1.00366e+7 
           9350      1.00083e+7 
           9370      9.96137e+6 
