# Kurucz ODFNEW /NOVER (2003)
# teff = 7250 K (value for the effective temperature for the model. Temperatures are given in K)
# logg = 0.5 log(cm/s2) (value for Log(G) for the model.)
# meta = -1  (value for the Metallicity for the model.)
# lh = 1.25  (l/Hp where l is the  mixing length of the convective element and Hp is the pressure scale height)
# vtur = 2 km/s (Microturbulence velocity)
# alpha = 0.4  (Alpha)
#
# column 1: WAVELENGTH (ANGSTROM), Wavelength in Angstrom
# column 2: FLUX (ERG/CM2/S/A), Flux in erg/cm2/s/A
            395     2.29843e-24 
            405     6.13171e-23 
            414     3.62913e-22 
            422     1.58911e-21 
            430     6.55354e-21 
            441     4.21203e-20 
            451     2.10682e-19 
            460     8.43244e-19 
            470      3.6914e-18 
            480     1.51619e-17 
            490     4.19313e-18 
            500     1.42484e-17 
            506     3.68554e-16 
            512     9.33503e-16 
            520     2.41795e-15 
            530     7.74099e-15 
            540      2.2959e-14 
            550     6.74265e-14 
            560     1.87332e-13 
            570     3.03413e-14 
            580     7.23815e-14 
            590      1.7093e-13 
            600     3.87089e-13 
            610     8.51534e-13 
            620     1.82151e-12 
            630     3.79539e-12 
            640      7.7156e-12 
            650      1.5318e-11 
            658     2.60774e-11 
            665     4.10486e-11 
            675     7.71269e-11 
            685     1.41997e-10 
            695      2.5642e-10 
            705     4.54008e-10 
            716     8.35681e-10 
            726      1.42822e-9 
            735      2.28217e-9 
            745      3.78559e-9 
            755      6.18701e-9 
            765      9.96758e-9 
            775      1.58394e-8 
            785      2.48428e-8 
            795      3.83277e-8 
            805      5.87687e-8 
            815      8.89211e-8 
            825      1.32946e-7 
            835      1.96603e-7 
            845       2.8775e-7 
            855      4.16862e-7 
            865      5.98105e-7 
            875      8.49336e-7 
            885      1.19749e-6 
            895      1.67214e-6 
            905      2.31302e-6 
            915      0.00725808 
            925       0.0245831 
            935       0.0312829 
            945       0.0445313 
            955       0.0648271 
            965        0.083528 
            975       0.0960108 
            985        0.143256 
            995        0.176617 
           1005        0.240955 
           1015        0.292622 
           1025        0.360585 
           1035        0.493022 
           1045        0.635044 
           1055        0.800456 
           1065        0.970866 
           1075         1.22627 
           1085         1.52087 
           1095         1.81382 
           1105         6.29474 
           1115         20.5724 
           1125         28.0285 
           1135         35.1982 
           1145         39.3877 
           1155         37.2882 
           1165          40.906 
           1175         37.0228 
           1185          70.443 
           1195         10.8519 
           1205         7.27267 
           1215         1.95231 
           1225         8.78042 
           1235         24.1785 
           1245         57.7335 
           1255         114.483 
           1265          150.07 
           1275         264.606 
           1285         425.594 
           1295         595.278 
           1305         542.235 
           1315         970.872 
           1325         1294.61 
           1335         1555.79 
           1345          2074.9 
           1355         2362.73 
           1365         2752.44 
           1375          3240.6 
           1385         3910.61 
           1395         4679.83 
           1405          5445.9 
           1415            5938 
           1425         6959.19 
           1435         7310.39 
           1442         8599.49 
           1447         9422.69 
           1455         10762.4 
           1465         11393.2 
           1475         12821.2 
           1485         14676.8 
           1495         17103.5 
           1505         19218.8 
           1512         19955.8 
           1517         21834.8 
           1525         23354.2 
           1535          101236 
           1545          311307 
           1555          297797 
           1565          271239 
           1575          437883 
           1585          504790 
           1595          688206 
           1605          612691 
           1615          605272 
           1625          576659 
           1635          705818 
           1645          924245 
           1655          548405 
           1665          916933 
           1672          343271 
           1677      1.15383e+6 
           1685      1.64532e+6 
           1695      1.78463e+6 
           1705      1.66954e+6 
           1715      2.09203e+6 
           1725      2.19369e+6 
           1735      2.59223e+6 
           1745       2.3993e+6 
           1755      2.95608e+6 
           1765      2.46193e+6 
           1775      2.94998e+6 
           1785      2.76923e+6 
           1795       3.6231e+6 
           1805      3.00236e+6 
           1815      3.40383e+6 
           1825      2.91249e+6 
           1835      2.92995e+6 
           1845      2.78705e+6 
           1855      3.11268e+6 
           1865      3.30651e+6 
           1875      3.34195e+6 
           1885      3.50549e+6 
           1895      3.71303e+6 
           1905      3.36272e+6 
           1915      3.76306e+6 
           1925      3.93969e+6 
           1935      3.35062e+6 
           1945      4.20584e+6 
           1955      4.28426e+6 
           1967      4.53155e+6 
           1976      4.42129e+6 
           1984      4.34752e+6 
           1995      4.27065e+6 
           2005       4.1753e+6 
           2015      3.99552e+6 
           2025      3.79933e+6 
           2035      4.33657e+6 
           2045      4.70684e+6 
           2055      4.23187e+6 
           2065      4.17243e+6 
           2074      5.03304e+6 
           2078      5.23302e+6 
           2085      5.04082e+6 
           2095      4.85582e+6 
           2105      4.59274e+6 
           2115      4.67372e+6 
           2125      4.79169e+6 
           2135      3.75207e+6 
           2145      4.57321e+6 
           2155      4.70358e+6 
           2165      4.38157e+6 
           2175      4.43248e+6 
           2185      4.60458e+6 
           2195      5.08003e+6 
           2205      4.87638e+6 
           2215      4.28804e+6 
           2225      4.25704e+6 
           2235      5.13573e+6 
           2245      4.58075e+6 
           2255      4.25343e+6 
           2265      4.24848e+6 
           2275      4.83517e+6 
           2285      5.02772e+6 
           2295      4.63875e+6 
           2305      4.89363e+6 
           2315      4.75577e+6 
           2325      4.58226e+6 
           2335      3.69915e+6 
           2345      3.05321e+6 
           2355      4.45987e+6 
           2365      3.15806e+6 
           2375      4.05881e+6 
           2385       2.6064e+6 
           2395      3.33906e+6 
           2405      3.18597e+6 
           2415      3.69526e+6 
           2425      4.93386e+6 
           2435      4.82918e+6 
           2445      5.15187e+6 
           2455      5.03841e+6 
           2465      5.00208e+6 
           2475      4.71765e+6 
           2485      4.99693e+6 
           2495      4.87313e+6 
           2505      5.77838e+6 
           2513       4.8238e+6 
           2518      5.06687e+6 
           2525      4.46317e+6 
           2535      4.31148e+6 
           2545      4.46763e+6 
           2555      4.98732e+6 
           2565      4.73527e+6 
           2575      5.27951e+6 
           2585      5.03911e+6 
           2595      4.74334e+6 
           2605      4.32021e+6 
           2615       4.1381e+6 
           2625      5.01808e+6 
           2635      5.50019e+6 
           2645      7.04507e+6 
           2655      7.03219e+6 
           2665      6.17961e+6 
           2675      6.56889e+6 
           2685      6.56081e+6 
           2695      6.22953e+6 
           2705      6.43326e+6 
           2715      5.86159e+6 
           2725       5.9815e+6 
           2735      6.50493e+6 
           2745      4.60308e+6 
           2755      5.15507e+6 
           2765      5.55247e+6 
           2775      6.25565e+6 
           2785      5.15292e+6 
           2795       1.9324e+6 
           2805      2.51088e+6 
           2815      6.02683e+6 
           2825      6.97131e+6 
           2835      6.87862e+6 
           2845      6.71632e+6 
           2855      6.24784e+6 
           2865      7.05476e+6 
           2875      6.86767e+6 
           2885      7.08991e+6 
           2895      6.80008e+6 
           2910      7.83924e+6 
           2930      7.58426e+6 
           2950      7.59952e+6 
           2970      7.96091e+6 
           2990      8.11476e+6 
           3010      8.35989e+6 
           3030      8.35535e+6 
           3050      8.32429e+6 
           3070      8.26615e+6 
           3090      8.62981e+6 
           3110      8.38713e+6 
           3130      8.40988e+6 
           3150      8.73511e+6 
           3170      8.78419e+6 
           3190      8.31566e+6 
           3210      8.71763e+6 
           3230      8.44643e+6 
           3250      8.79612e+6 
           3270      8.91645e+6 
           3290      9.14528e+6 
           3310      9.32015e+6 
           3330      9.11137e+6 
           3350      8.98075e+6 
           3370      9.03734e+6 
           3390      9.16082e+6 
           3410      9.49397e+6 
           3430      9.67145e+6 
           3450      9.61471e+6 
           3470      9.49544e+6 
           3490      9.46424e+6 
           3510      9.76217e+6 
           3530      9.92396e+6 
           3550      1.00824e+7 
           3570      9.79652e+6 
           3590      9.83002e+6 
           3610      9.94284e+6 
           3630        1.005e+7 
           3640      9.90956e+6 
           3650      1.02218e+7 
           3670      1.03233e+7 
           3690      1.17384e+7 
           3710      1.64666e+7 
           3730      2.72673e+7 
           3750      3.92388e+7 
           3770       3.9571e+7 
           3790      4.50451e+7 
           3810       4.9071e+7 
           3830      4.02517e+7 
           3850      4.99908e+7 
           3870      5.10702e+7 
           3890      3.94104e+7 
           3910      4.90499e+7 
           3930      3.54169e+7 
           3950      4.80205e+7 
           3970      3.25843e+7 
           3990      4.89698e+7 
           4010      4.91409e+7 
           4030      4.83481e+7 
           4050      4.81566e+7 
           4070      4.73251e+7 
           4090      4.61157e+7 
           4110      3.74497e+7 
           4130      4.61743e+7 
           4150      4.64806e+7 
           4170      4.48703e+7 
           4190      4.48807e+7 
           4210      4.46062e+7 
           4230      4.39053e+7 
           4250      4.36203e+7 
           4270      4.30019e+7 
           4290      4.24156e+7 
           4310      4.04248e+7 
           4330      3.84829e+7 
           4350      3.38036e+7 
           4370      4.12891e+7 
           4390      4.00537e+7 
           4410      3.91818e+7 
           4430      3.98846e+7 
           4450       3.9466e+7 
           4470      3.91928e+7 
           4490      3.87398e+7 
           4510      3.87952e+7 
           4530      3.77704e+7 
           4550      3.68659e+7 
           4570      3.77002e+7 
           4590      3.67018e+7 
           4610      3.75469e+7 
           4630      3.64482e+7 
           4650      3.66493e+7 
           4670      3.62653e+7 
           4690      3.58779e+7 
           4710      3.47621e+7 
           4730      3.53039e+7 
           4750       3.5216e+7 
           4770      3.45868e+7 
           4790       3.4228e+7 
           4810      3.38951e+7 
           4830       3.3489e+7 
           4850      3.07165e+7 
           4870      2.53341e+7 
           4890       3.2376e+7 
           4910      3.23066e+7 
           4930      3.16621e+7 
           4950       3.1765e+7 
           4970      3.16822e+7 
           4990      3.10127e+7 
           5010      3.01382e+7 
           5030      3.04276e+7 
           5050      3.01236e+7 
           5070      3.00329e+7 
           5090       2.9777e+7 
           5110      2.95026e+7 
           5130      2.89351e+7 
           5150       2.8637e+7 
           5170      2.78943e+7 
           5190      2.75707e+7 
           5210      2.77425e+7 
           5230      2.72497e+7 
           5250      2.74813e+7 
           5270      2.64877e+7 
           5290       2.6969e+7 
           5310      2.64282e+7 
           5330       2.6018e+7 
           5350      2.63648e+7 
           5370       2.5965e+7 
           5390      2.56624e+7 
           5410       2.5401e+7 
           5430      2.51145e+7 
           5450      2.51195e+7 
           5470      2.49211e+7 
           5490      2.46936e+7 
           5510        2.447e+7 
           5530      2.41233e+7 
           5550       2.4143e+7 
           5570      2.38752e+7 
           5590       2.3613e+7 
           5610      2.34557e+7 
           5630      2.32965e+7 
           5650      2.29796e+7 
           5670      2.27827e+7 
           5690      2.26682e+7 
           5710       2.2468e+7 
           5730      2.23115e+7 
           5750      2.20916e+7 
           5770      2.19138e+7 
           5790      2.17087e+7 
           5810      2.15261e+7 
           5830      2.13387e+7 
           5850      2.11468e+7 
           5870      2.09691e+7 
           5890      2.05793e+7 
           5910      2.06085e+7 
           5930      2.04312e+7 
           5950      2.02366e+7 
           5970      2.00886e+7 
           5990      1.98685e+7 
           6010       1.9723e+7 
           6030      1.95664e+7 
           6050      1.93941e+7 
           6070      1.92522e+7 
           6090      1.90761e+7 
           6110       1.8896e+7 
           6130      1.87037e+7 
           6150      1.83711e+7 
           6170       1.8367e+7 
           6190      1.82966e+7 
           6210      1.81458e+7 
           6230      1.79576e+7 
           6250      1.76182e+7 
           6270      1.77072e+7 
           6290      1.75595e+7 
           6310      1.73613e+7 
           6330      1.72565e+7 
           6350      1.70097e+7 
           6370      1.68854e+7 
           6390      1.68371e+7 
           6410      1.66515e+7 
           6430      1.65499e+7 
           6450      1.62808e+7 
           6470       1.6291e+7 
           6490      1.60387e+7 
           6510      1.59456e+7 
           6530      1.57774e+7 
           6550      1.46442e+7 
           6570      1.16131e+7 
           6590      1.52503e+7 
           6610      1.53168e+7 
           6630      1.52759e+7 
           6650      1.51825e+7 
           6670      1.50577e+7 
           6690      1.49425e+7 
           6710      1.48252e+7 
           6730      1.47006e+7 
           6750      1.45764e+7 
           6770      1.44912e+7 
           6790      1.43659e+7 
           6810      1.42654e+7 
           6830      1.41352e+7 
           6850      1.40375e+7 
           6870      1.39375e+7 
           6890      1.38305e+7 
           6910      1.37245e+7 
           6930      1.36156e+7 
           6950      1.35148e+7 
           6970      1.34094e+7 
           6990      1.33104e+7 
           7010      1.31617e+7 
           7030       1.3103e+7 
           7050       1.3009e+7 
           7070      1.29122e+7 
           7090      1.28169e+7 
           7110      1.26548e+7 
           7130      1.26113e+7 
           7150      1.25106e+7 
           7170      1.24263e+7 
           7190      1.23266e+7 
           7210      1.22286e+7 
           7230      1.21329e+7 
           7250      1.20546e+7 
           7270      1.19763e+7 
           7290      1.18702e+7 
           7310      1.17708e+7 
           7330      1.16948e+7 
           7350      1.16159e+7 
           7370      1.15487e+7 
           7390       1.1456e+7 
           7410      1.13537e+7 
           7430      1.12681e+7 
           7450      1.11941e+7 
           7470      1.10904e+7 
           7490      1.10279e+7 
           7510      1.09532e+7 
           7530      1.08878e+7 
           7550      1.08196e+7 
           7570      1.07263e+7 
           7590      1.06627e+7 
           7610      1.05866e+7 
           7630      1.05124e+7 
           7650      1.04253e+7 
           7670      1.03511e+7 
           7690      1.02808e+7 
           7710      1.01914e+7 
           7730      1.01419e+7 
           7750      1.00695e+7 
           7770      9.80935e+6 
           7790      9.93349e+6 
           7810      9.86168e+6 
           7830      9.78678e+6 
           7850      9.70947e+6 
           7870      9.62734e+6 
           7890      9.54349e+6 
           7910      9.51215e+6 
           7930      9.43967e+6 
           7950      9.36422e+6 
           7970      9.32795e+6 
           7990      9.20991e+6 
           8010      9.19744e+6 
           8030      9.13124e+6 
           8050      9.07197e+6 
           8070      9.00797e+6 
           8090      8.94737e+6 
           8110       8.8884e+6 
           8130       8.8299e+6 
           8150      8.77017e+6 
           8170      8.71035e+6 
           8190      8.60552e+6 
           8210      8.58712e+6 
           8230      8.52931e+6 
           8250      8.45424e+6 
           8270       8.4514e+6 
           8290      8.37723e+6 
           8310      8.27422e+6 
           8330      8.14767e+6 
           8350      8.21405e+6 
           8370      7.97534e+6 
           8390      8.07918e+6 
           8410      8.05998e+6 
           8430      8.30698e+6 
           8450      8.16166e+6 
           8470      7.94987e+6 
           8490       8.6217e+6 
           8510      7.78011e+6 
           8530      8.78127e+6 
           8550      7.36272e+6 
           8570      9.00212e+6 
           8590      8.56151e+6 
           8610      8.31902e+6 
           8630      9.25423e+6 
           8650       9.1123e+6 
           8670      7.33573e+6 
           8690      9.04457e+6 
           8710      9.14659e+6 
           8730      9.01724e+6 
           8750      7.51564e+6 
           8770      8.79606e+6 
           8790      8.91016e+6 
           8810      8.81878e+6 
           8830      8.73781e+6 
           8850      8.44247e+6 
           8870       7.2835e+6 
           8890      8.55448e+6 
           8910      8.50094e+6 
           8930       8.4407e+6 
           8950      8.45334e+6 
           8970      8.39134e+6 
           8990      8.27806e+6 
           9010       7.1197e+6 
           9030      7.78214e+6 
           9050      8.14474e+6 
           9070      7.99209e+6 
           9090      7.86851e+6 
           9110      7.94566e+6 
           9130       7.9475e+6 
           9150      7.90424e+6 
           9170      7.84516e+6 
           9190      7.77492e+6 
           9210      7.58974e+6 
           9230      6.32887e+6 
           9250      7.38863e+6 
           9270      7.42123e+6 
           9290      7.53903e+6 
           9310      7.49233e+6 
           9330      7.43731e+6 
           9350      7.39346e+6 
           9370      7.34734e+6 
           9390      7.28403e+6 
           9410      7.12376e+6 
           9430      7.16729e+6 
           9450        7.145e+6 
           9470      7.10687e+6 
           9490      7.06147e+6 
