# Kurucz ODFNEW /NOVER (2003)
# teff = 29000 K (value for the effective temperature for the model. Temperatures are given in K)
# logg = 5 log(cm/s2) (value for Log(G) for the model.)
# meta = -2  (value for the Metallicity for the model.)
# lh = 1.25  (l/Hp where l is the  mixing length of the convective element and Hp is the pressure scale height)
# vtur = 2 km/s (Microturbulence velocity)
# alpha = 0  (Alpha)
#
# column 1: WAVELENGTH (ANGSTROM), Wavelength in Angstrom
# column 2: FLUX (ERG/CM2/S/A), Flux in erg/cm2/s/A
          147.2      1.28527e-9 
            151      4.71899e-9 
          155.2        1.844e-8 
          158.8      5.60192e-8 
            162       1.4431e-7 
            166      4.46987e-7 
          170.3      1.41965e-6 
          173.4      3.14977e-6 
          176.8      7.30036e-6 
          180.2      1.63781e-5 
          181.7       2.3171e-5 
          186.1      6.20377e-5 
            191     0.000175699 
          193.9     0.000317218 
          198.4     0.000765622 
          201.8      0.00144981 
            205      0.00259134 
          210.5       0.0067447 
          216.2       0.0172171 
          219.8       0.0303047 
            223       0.0492978 
          226.8       0.0862757 
            230         2.21373 
            234          5.3339 
            240         10.7191 
          246.5         22.0263 
          252.4         41.3933 
          256.8         59.5889 
            260         87.4335 
            264         126.555 
          268.5         190.679 
          273.5         294.993 
          278.5         449.415 
            284         702.491 
            290         1116.62 
            296         1737.28 
            301         2452.58 
            308         3731.39 
            318         7611.78 
            328         13827.3 
            338         24355.3 
            348         41252.2 
            357         64536.7 
            366         98994.3 
            375          146625 
            385          224144 
            395          332579 
            405          482898 
            414          665886 
            422          869686 
            430      1.12281e+6 
            441      1.57944e+6 
            451      2.11756e+6 
            460      2.70957e+6 
            470      3.53808e+6 
            480      4.54544e+6 
            490      5.77552e+6 
            500      7.25912e+6 
            506      3.55121e+7 
            512      1.39093e+8 
            520      1.52015e+8 
            530      1.80814e+8 
            540      1.77138e+8 
            550      2.16025e+8 
            560      2.30651e+8 
            570      2.52834e+8 
            580      2.45624e+8 
            590      2.85843e+8 
            600      3.08008e+8 
            610      3.33124e+8 
            620      3.53081e+8 
            630      3.79435e+8 
            640      3.95308e+8 
            650      4.28063e+8 
            658      4.49877e+8 
            665      4.67869e+8 
            675      4.86199e+8 
            685      5.05868e+8 
            695      5.55035e+8 
            705      5.74646e+8 
            716      6.13658e+8 
            726       6.4242e+8 
            735      6.75941e+8 
            745      7.10867e+8 
            755      7.44041e+8 
            765      7.75571e+8 
            775      8.13077e+8 
            785      8.50572e+8 
            795      8.81166e+8 
            805      9.17661e+8 
            815      9.50239e+8 
            825      9.89612e+8 
            835      9.97281e+8 
            845      1.05581e+9 
            855      1.08815e+9 
            865      1.12849e+9 
            875      1.16853e+9 
            885      1.20581e+9 
            895      1.24124e+9 
            905      1.26658e+9 
            915      1.45963e+9 
            925      6.10208e+9 
            935     1.41828e+10 
            945     3.67771e+10 
            955     5.02829e+10 
            965     6.85352e+10 
            975     2.92669e+10 
            985     7.73009e+10 
            995     7.23645e+10 
           1005     7.68584e+10 
           1015      6.8206e+10 
           1025     2.36026e+10 
           1035     6.14879e+10 
           1045     7.19392e+10 
           1055     7.05074e+10 
           1065     6.55459e+10 
           1075     6.58415e+10 
           1085     5.95164e+10 
           1095     6.34928e+10 
           1105     6.08895e+10 
           1115     5.93991e+10 
           1125     5.58028e+10 
           1135     5.67774e+10 
           1145     5.42037e+10 
           1155     5.38227e+10 
           1165     5.25641e+10 
           1175     4.57082e+10 
           1185     4.92353e+10 
           1195     4.68292e+10 
           1205     4.09466e+10 
           1215     1.58544e+10 
           1225     3.87719e+10 
           1235     4.31903e+10 
           1245     4.22805e+10 
           1255     4.19156e+10 
           1265     4.09212e+10 
           1275     4.01752e+10 
           1285     3.92284e+10 
           1295     3.68637e+10 
           1305     3.66128e+10 
           1315     3.64981e+10 
           1325     3.52412e+10 
           1335     3.40493e+10 
           1345     3.38698e+10 
           1355     3.32547e+10 
           1365     3.23245e+10 
           1375     3.16607e+10 
           1385     3.09479e+10 
           1395       2.929e+10 
           1405     2.88956e+10 
           1415     2.88009e+10 
           1425     2.81217e+10 
           1435     2.76378e+10 
           1442     2.73086e+10 
           1447     2.69834e+10 
           1455     2.64918e+10 
           1465     2.58891e+10 
           1475     2.53315e+10 
           1485     2.48086e+10 
           1495     2.42655e+10 
           1505     2.35865e+10 
           1512     2.32582e+10 
           1517     2.30462e+10 
           1525     2.26268e+10 
           1535     2.17846e+10 
           1545     2.12384e+10 
           1555      2.0737e+10 
           1565     2.06851e+10 
           1575     2.03945e+10 
           1585     2.00345e+10 
           1595     1.96463e+10 
           1605     1.90206e+10 
           1615     1.86182e+10 
           1625     1.83883e+10 
           1635     1.79992e+10 
           1645     1.72297e+10 
           1655     1.74581e+10 
           1665     1.71594e+10 
           1672     1.68745e+10 
           1677     1.68544e+10 
           1685     1.65674e+10 
           1695     1.62216e+10 
           1705     1.58764e+10 
           1715     1.54997e+10 
           1725     1.52268e+10 
           1735     1.50418e+10 
           1745     1.47461e+10 
           1755     1.44978e+10 
           1765     1.41248e+10 
           1775     1.39279e+10 
           1785     1.37285e+10 
           1795     1.35058e+10 
           1805      1.3293e+10 
           1815     1.30165e+10 
           1825     1.28007e+10 
           1835     1.25766e+10 
           1845     1.22159e+10 
           1855     1.18908e+10 
           1865     1.17669e+10 
           1875      1.1691e+10 
           1885     1.13234e+10 
           1895     1.10144e+10 
           1905     1.10288e+10 
           1915     1.07013e+10 
           1925     1.04958e+10 
           1935     1.04299e+10 
           1945     1.03488e+10 
           1955      9.98395e+9 
           1967      9.96669e+9 
           1976      9.89444e+9 
           1984      9.66742e+9 
           1995      9.39016e+9 
           2005       9.3985e+9 
           2015      9.28781e+9 
           2025      9.16535e+9 
           2035      8.97242e+9 
           2045      8.82841e+9 
           2055       8.4161e+9 
           2065      8.24326e+9 
           2074      8.24947e+9 
           2078      8.09281e+9 
           2085      8.09385e+9 
           2095      7.99093e+9 
           2105      8.02775e+9 
           2115      7.95825e+9 
           2125      7.85708e+9 
           2135      7.73224e+9 
           2145       7.6021e+9 
           2155       7.5008e+9 
           2165      7.38626e+9 
           2175      7.27939e+9 
           2185      7.16746e+9 
           2195      7.07291e+9 
           2205      6.96892e+9 
           2215      6.85714e+9 
           2225      6.76483e+9 
           2235      6.66415e+9 
           2245      6.57225e+9 
           2255      6.46319e+9 
           2265      6.38444e+9 
           2275      6.29342e+9 
           2285      6.20383e+9 
           2295      6.04831e+9 
           2305      6.01623e+9 
           2315      5.94208e+9 
           2325      5.85922e+9 
           2335      5.77481e+9 
           2345      5.69798e+9 
           2355       5.6196e+9 
           2365        5.542e+9 
           2375      5.46471e+9 
           2385      5.37911e+9 
           2395      5.31563e+9 
           2405      5.24423e+9 
           2415      5.17253e+9 
           2425      5.10446e+9 
           2435      5.03409e+9 
           2445      4.96748e+9 
           2455      4.90215e+9 
           2465      4.83691e+9 
           2475      4.77251e+9 
           2485      4.70946e+9 
           2495      4.56788e+9 
           2505      4.58461e+9 
           2513      4.50476e+9 
           2518       4.5065e+9 
           2525      4.46748e+9 
           2535      4.40974e+9 
           2545      4.34584e+9 
           2555      4.29463e+9 
           2565      4.24168e+9 
           2575      4.18801e+9 
           2585      4.13509e+9 
           2595      4.08275e+9 
           2605      4.05446e+9 
           2615      4.00324e+9 
           2625        3.953e+9 
           2635       3.9019e+9 
           2645      3.85118e+9 
           2655      3.79961e+9 
           2665      3.74431e+9 
           2675      3.69078e+9 
           2685      3.66752e+9 
           2695       3.5929e+9 
           2705      3.57745e+9 
           2715      3.53392e+9 
           2725      3.46004e+9 
           2735       3.4437e+9 
           2745      3.40635e+9 
           2755      3.36613e+9 
           2765      3.29398e+9 
           2775      3.28658e+9 
           2785      3.24718e+9 
           2795      3.19703e+9 
           2805      3.16776e+9 
           2815      3.13336e+9 
           2825      3.05887e+9 
           2835      3.03372e+9 
           2845      3.02444e+9 
           2855      2.98891e+9 
           2865      2.95427e+9 
           2875      2.92013e+9 
           2885      2.88657e+9 
           2895      2.85326e+9 
           2910      2.80417e+9 
           2930      2.74061e+9 
           2950      2.65436e+9 
           2970      2.61898e+9 
           2990      2.56047e+9 
           3010      2.50352e+9 
           3030      2.44908e+9 
           3050      2.39568e+9 
           3070      2.34366e+9 
           3090       2.2916e+9 
           3110       2.2438e+9 
           3130      2.19764e+9 
           3150      2.15114e+9 
           3170      2.10553e+9 
           3190      2.04001e+9 
           3210      2.01649e+9 
           3230      1.97495e+9 
           3250      1.93381e+9 
           3270      1.89635e+9 
           3290      1.85471e+9 
           3310      1.82005e+9 
           3330      1.78324e+9 
           3350      1.74402e+9 
           3370      1.71253e+9 
           3390      1.67861e+9 
           3410      1.64547e+9 
           3430      1.60568e+9 
           3450      1.56826e+9 
           3470      1.54254e+9 
           3490      1.51278e+9 
           3510      1.48538e+9 
           3530       1.4585e+9 
           3550      1.43171e+9 
           3570      1.41482e+9 
           3590      1.37572e+9 
           3610      1.35673e+9 
           3630      1.32521e+9 
           3640      1.32516e+9 
           3650      1.30041e+9 
           3670      1.28205e+9 
           3690      1.25936e+9 
           3710      1.21831e+9 
           3730      1.17823e+9 
           3750      1.16165e+9 
           3770      1.12649e+9 
           3790      1.16593e+9 
           3810      1.21242e+9 
           3830       1.0568e+9 
           3850       1.2465e+9 
           3870        1.274e+9 
           3890       9.8902e+8 
           3910      1.25122e+9 
           3930      1.25072e+9 
           3950      1.21208e+9 
           3970      9.17532e+8 
           3990      1.15666e+9 
           4010      1.16544e+9 
           4030      1.08457e+9 
           4050      1.14182e+9 
           4070      1.11296e+9 
           4090       9.9508e+8 
           4110      8.63872e+8 
           4130      1.03858e+9 
           4150      1.03448e+9 
           4170      1.02852e+9 
           4190      1.01435e+9 
           4210      9.97103e+8 
           4230       9.7999e+8 
           4250      9.62988e+8 
           4270      9.44401e+8 
           4290      9.26855e+8 
           4310      9.02231e+8 
           4330      7.94011e+8 
           4350      7.22879e+8 
           4370      8.53559e+8 
           4390      8.21247e+8 
           4410      8.38862e+8 
           4430      8.23453e+8 
           4450      8.12796e+8 
           4470      7.52614e+8 
           4490      7.85484e+8 
           4510      7.74885e+8 
           4530      7.62385e+8 
           4550       7.4991e+8 
           4570      7.37986e+8 
           4590      7.26222e+8 
           4610      7.14776e+8 
           4630        7.035e+8 
           4650      6.91415e+8 
           4670      6.81498e+8 
           4690      6.69601e+8 
           4710      6.50732e+8 
           4730      6.50258e+8 
           4750      6.40102e+8 
           4770       6.3059e+8 
           4790      6.20228e+8 
           4810      6.08779e+8 
           4830      5.93688e+8 
           4850        5.343e+8 
           4870      4.75977e+8 
           4890      5.63311e+8 
           4910       5.6231e+8 
           4930       5.3911e+8 
           4950      5.49738e+8 
           4970      5.41922e+8 
           4990       5.3394e+8 
           5010      5.18324e+8 
           5030      5.18364e+8 
           5050      5.07456e+8 
           5070      5.03461e+8 
           5090      4.96182e+8 
           5110      4.89031e+8 
           5130      4.82004e+8 
           5150      4.75086e+8 
           5170      4.68345e+8 
           5190      4.61707e+8 
           5210      4.55171e+8 
           5230      4.48763e+8 
           5250      4.42467e+8 
           5270       4.3628e+8 
           5290        4.302e+8 
           5310      4.24227e+8 
           5330      4.18357e+8 
           5350      4.12589e+8 
           5370      4.06922e+8 
           5390       4.0134e+8 
           5410      3.95791e+8 
           5430      3.90479e+8 
           5450      3.85196e+8 
           5470      3.79992e+8 
           5490      3.74878e+8 
           5510      3.69854e+8 
           5530      3.64904e+8 
           5550      3.60041e+8 
           5570      3.55262e+8 
           5590      3.50554e+8 
           5610      3.45929e+8 
           5630      3.41384e+8 
           5650      3.36906e+8 
           5670      3.32482e+8 
           5690      3.28113e+8 
           5710      3.23912e+8 
           5730      3.19727e+8 
           5750      3.15581e+8 
           5770      3.11553e+8 
           5790      3.07561e+8 
           5810      3.03639e+8 
           5830      2.99775e+8 
           5850      2.95967e+8 
           5870      2.81392e+8 
           5890      2.87639e+8 
           5910      2.84919e+8 
           5930      2.81351e+8 
           5950      2.77834e+8 
           5970       2.7439e+8 
           5990      2.70986e+8 
           6010      2.67632e+8 
           6030      2.64336e+8 
           6050      2.61089e+8 
           6070      2.57899e+8 
           6090      2.54745e+8 
           6110      2.51647e+8 
           6130      2.48594e+8 
           6150      2.45585e+8 
           6170       2.4263e+8 
           6190      2.39718e+8 
           6210      2.36838e+8 
           6230      2.34009e+8 
           6250      2.31221e+8 
           6270      2.28484e+8 
           6290      2.25776e+8 
           6310      2.23108e+8 
           6330      2.20487e+8 
           6350      2.17895e+8 
           6370      2.15341e+8 
           6390      2.12832e+8 
           6410       2.1036e+8 
           6430      2.07924e+8 
           6450      2.05513e+8 
           6470      2.03129e+8 
           6490       2.0077e+8 
           6510      1.97894e+8 
           6530      1.94448e+8 
           6550      1.83015e+8 
           6570      1.61733e+8 
           6590      1.86091e+8 
           6610      1.86597e+8 
           6630      1.85121e+8 
           6650      1.83379e+8 
           6670      1.78885e+8 
           6690      1.76942e+8 
           6710      1.77311e+8 
           6730      1.75336e+8 
           6750      1.73397e+8 
           6770      1.71486e+8 
           6790      1.69579e+8 
           6810      1.67731e+8 
           6830      1.65886e+8 
           6850      1.64076e+8 
           6870      1.62292e+8 
           6890      1.60526e+8 
           6910      1.58785e+8 
           6930       1.5707e+8 
           6950      1.55379e+8 
           6970      1.53706e+8 
           6990      1.52056e+8 
           7010      1.50431e+8 
           7030      1.48829e+8 
           7050      1.47243e+8 
           7070       1.4308e+8 
           7090      1.44147e+8 
           7110      1.42622e+8 
           7130      1.41127e+8 
           7150      1.39645e+8 
           7170      1.38171e+8 
           7190      1.36741e+8 
           7210      1.35316e+8 
           7230      1.33819e+8 
           7250      1.32523e+8 
           7270      1.31153e+8 
           7290       1.2862e+8 
           7310       1.2846e+8 
           7330      1.27157e+8 
           7350      1.25859e+8 
           7370      1.24573e+8 
           7390      1.23307e+8 
           7410      1.22059e+8 
           7430      1.20823e+8 
           7450      1.19618e+8 
           7470      1.18411e+8 
           7490      1.17222e+8 
           7510      1.16011e+8 
           7530      1.14891e+8 
           7550      1.13747e+8 
           7570      1.12615e+8 
           7590      1.11499e+8 
           7610      1.10393e+8 
           7630      1.09304e+8 
           7650      1.08231e+8 
           7670      1.07168e+8 
           7690      1.06114e+8 
           7710      1.05083e+8 
           7730      1.04054e+8 
           7750      1.03041e+8 
           7770      1.02043e+8 
           7790      1.01061e+8 
           7810      1.00031e+8 
           7830      9.91214e+7 
           7850      9.82624e+7 
           7870      9.73135e+7 
           7890      9.63487e+7 
           7910      9.54707e+7 
           7930      9.45644e+7 
           7950       9.3666e+7 
           7970      9.26627e+7 
           7990      9.18277e+7 
           8010      9.08588e+7 
           8030      8.99686e+7 
           8050       8.9121e+7 
           8070       8.8298e+7 
           8090      8.73899e+7 
           8110      8.66559e+7 
           8130      8.58995e+7 
           8150      8.50644e+7 
           8170       8.4338e+7 
           8190      8.34716e+7 
           8210      8.25177e+7 
           8230      8.19447e+7 
           8250      8.12213e+7 
           8270      8.01459e+7 
           8290      7.97213e+7 
           8310       7.9038e+7 
           8330       7.8268e+7 
           8350      7.72235e+7 
           8370      7.67742e+7 
           8390      7.61892e+7 
           8410      7.55077e+7 
           8430      7.47894e+7 
           8450      7.36285e+7 
           8470      7.34702e+7 
           8490      7.26489e+7 
           8510      7.21361e+7 
           8530      7.13219e+7 
           8550      7.06228e+7 
           8570      7.03756e+7 
           8590      6.84349e+7 
