# Kurucz ODFNEW /NOVER (2003)
# teff = 23000 K (value for the effective temperature for the model. Temperatures are given in K)
# logg = 4 log(cm/s2) (value for Log(G) for the model.)
# meta = -4  (value for the Metallicity for the model.)
# lh = 1.25  (l/Hp where l is the  mixing length of the convective element and Hp is the pressure scale height)
# vtur = 2 km/s (Microturbulence velocity)
# alpha = 0.4  (Alpha)
#
# column 1: WAVELENGTH (ANGSTROM), Wavelength in Angstrom
# column 2: FLUX (ERG/CM2/S/A), Flux in erg/cm2/s/A
          147.2     1.26795e-16 
            151     7.33169e-16 
          155.2     4.60483e-15 
          158.8     2.05519e-14 
            162     7.33563e-14 
            166      3.3525e-13 
          170.3     1.58189e-12 
          173.4      4.6082e-12 
          176.8     1.42384e-11 
          180.2     4.20943e-11 
          181.7     6.70048e-11 
          186.1     2.50492e-10 
            191      1.00986e-9 
          193.9      2.22628e-9 
          198.4      7.23731e-9 
          201.8      1.70061e-8 
            205      3.69845e-8 
          210.5      1.32701e-7 
          216.2      4.64141e-7 
          219.8      9.88142e-7 
            223        1.893e-6 
          226.8      3.99505e-6 
            230      1.02799e-5 
            234      2.24988e-5 
            240      6.30165e-5 
          246.5     0.000181376 
          252.4     0.000452561 
          256.8     0.000859586 
            260       0.0013715 
            264      0.00239342 
          268.5      0.00438281 
          273.5      0.00837543 
          278.5       0.0156288 
            284       0.0302132 
            290       0.0601602 
            296        0.116245 
            301         0.19714 
            308        0.397999 
            318         1.04021 
            328         2.53941 
            338         5.85651 
            348         12.8289 
            357         24.9436 
            366         46.8282 
            375         85.0518 
            385           159.3 
            395         288.128 
            405          504.74 
            414         814.977 
            422         1224.13 
            430          1808.2 
            441         3013.74 
            451          4680.2 
            460         6829.38 
            470         10197.4 
            480           14942 
            490         21514.8 
            500         30466.9 
            506          178745 
            512          538571 
            520          673850 
            530          969237 
            540      1.04869e+6 
            550      1.46383e+6 
            560      1.76688e+6 
            570      2.11532e+6 
            580      2.15276e+6 
            590      2.81059e+6 
            600      3.50861e+6 
            610      4.11061e+6 
            620      4.77654e+6 
            630       5.5229e+6 
            640      6.34848e+6 
            650       7.2736e+6 
            658      8.07799e+6 
            665      8.83245e+6 
            675      9.98824e+6 
            685      1.12371e+7 
            695      1.26529e+7 
            705      1.41467e+7 
            716       1.5928e+7 
            726       1.7678e+7 
            735      1.93802e+7 
            745       2.1385e+7 
            755      2.35227e+7 
            765      2.57938e+7 
            775      2.82096e+7 
            785      3.07632e+7 
            795      3.34567e+7 
            805      3.62978e+7 
            815      3.92795e+7 
            825      4.24123e+7 
            835      4.54339e+7 
            845      4.91129e+7 
            855      5.26733e+7 
            865      5.63968e+7 
            875      6.02521e+7 
            885      6.42565e+7 
            895      6.83971e+7 
            905      7.25423e+7 
            915      1.28139e+8 
            925       1.0019e+9 
            935      3.33337e+9 
            945     1.10539e+10 
            955     1.58821e+10 
            965     2.09198e+10 
            975      9.35577e+9 
            985      2.4253e+10 
            995     2.38513e+10 
           1005     2.42033e+10 
           1015     2.16718e+10 
           1025      6.56984e+9 
           1035     1.96322e+10 
           1045     2.22845e+10 
           1055      2.2038e+10 
           1065     2.13517e+10 
           1075     2.10277e+10 
           1085     2.00153e+10 
           1095     2.02764e+10 
           1105     1.95448e+10 
           1115     1.92206e+10 
           1125     1.86899e+10 
           1135     1.85817e+10 
           1145     1.81548e+10 
           1155     1.78161e+10 
           1165     1.74377e+10 
           1175     1.62556e+10 
           1185     1.65989e+10 
           1195     1.58588e+10 
           1205     1.39159e+10 
           1215      4.30519e+9 
           1225     1.29611e+10 
           1235     1.47034e+10 
           1245     1.46222e+10 
           1255     1.44171e+10 
           1265     1.41458e+10 
           1275     1.39084e+10 
           1285     1.36341e+10 
           1295     1.31294e+10 
           1305     1.29433e+10 
           1315       1.284e+10 
           1325     1.25744e+10 
           1335     1.21447e+10 
           1345     1.21066e+10 
           1355     1.18836e+10 
           1365       1.166e+10 
           1375     1.14462e+10 
           1385     1.12352e+10 
           1395     1.09283e+10 
           1405     1.07512e+10 
           1415     1.06261e+10 
           1425     1.04337e+10 
           1435     1.02416e+10 
           1442     1.01107e+10 
           1447     1.00181e+10 
           1455      9.87261e+9 
           1465      9.69599e+9 
           1475      9.52323e+9 
           1485      9.35287e+9 
           1495      9.18805e+9 
           1505      9.02461e+9 
           1512      8.91833e+9 
           1517      8.84131e+9 
           1525      8.71866e+9 
           1535       8.5653e+9 
           1545      8.40396e+9 
           1555      8.26225e+9 
           1565      8.13808e+9 
           1575      7.99953e+9 
           1585      7.86352e+9 
           1595      7.73073e+9 
           1605      7.59711e+9 
           1615      7.47039e+9 
           1625      7.35019e+9 
           1635      7.22702e+9 
           1645      7.03291e+9 
           1655      7.00141e+9 
           1665      6.88929e+9 
           1672      6.81017e+9 
           1677       6.7581e+9 
           1685      6.67113e+9 
           1695      6.56458e+9 
           1705      6.46046e+9 
           1715      6.35613e+9 
           1725      6.25543e+9 
           1735      6.15725e+9 
           1745      6.06053e+9 
           1755      5.96659e+9 
           1765      5.87075e+9 
           1775      5.78255e+9 
           1785      5.69441e+9 
           1795      5.60845e+9 
           1805      5.52405e+9 
           1815      5.44093e+9 
           1825      5.35986e+9 
           1835       5.2808e+9 
           1845      5.20146e+9 
           1855      5.10809e+9 
           1865      5.03905e+9 
           1875      4.97634e+9 
           1885      4.90003e+9 
           1895      4.82139e+9 
           1905      4.76021e+9 
           1915       4.6832e+9 
           1925      4.61728e+9 
           1935      4.55489e+9 
           1945      4.49274e+9 
           1955      4.42521e+9 
           1967      4.35551e+9 
           1976      4.30203e+9 
           1984      4.25296e+9 
           1995      4.18508e+9 
           2005      4.13172e+9 
           2015       4.0755e+9 
           2025      4.01983e+9 
           2035      3.96477e+9 
           2045      3.91077e+9 
           2055      3.84729e+9 
           2065      3.79413e+9 
           2074      3.75321e+9 
           2078      3.73075e+9 
           2085       3.7034e+9 
           2095      3.65286e+9 
           2105      3.60616e+9 
           2115      3.55883e+9 
           2125      3.51232e+9 
           2135      3.46635e+9 
           2145      3.42109e+9 
           2155      3.37667e+9 
           2165      3.33285e+9 
           2175      3.28978e+9 
           2185      3.24766e+9 
           2195      3.20617e+9 
           2205      3.16538e+9 
           2215      3.12534e+9 
           2225       3.0859e+9 
           2235      3.04666e+9 
           2245      3.00814e+9 
           2255      2.97011e+9 
           2265      2.93293e+9 
           2275      2.89643e+9 
           2285      2.86045e+9 
           2295      2.82227e+9 
           2305      2.78983e+9 
           2315      2.75558e+9 
           2325      2.72183e+9 
           2335      2.68854e+9 
           2345      2.65587e+9 
           2355      2.62378e+9 
           2365      2.59221e+9 
           2375      2.56108e+9 
           2385      2.53031e+9 
           2395      2.50035e+9 
           2405      2.47075e+9 
           2415      2.44161e+9 
           2425       2.4128e+9 
           2435      2.38425e+9 
           2445      2.35616e+9 
           2455       2.3285e+9 
           2465      2.30121e+9 
           2475      2.27441e+9 
           2485      2.24803e+9 
           2495      2.21371e+9 
           2505      2.19643e+9 
           2513      2.17579e+9 
           2518      2.16371e+9 
           2525      2.14641e+9 
           2535      2.12206e+9 
           2545      2.09786e+9 
           2555      2.07443e+9 
           2565      2.05118e+9 
           2575      2.02818e+9 
           2585      2.00553e+9 
           2595      1.98305e+9 
           2605      1.97768e+9 
           2615      1.95559e+9 
           2625      1.93279e+9 
           2635      1.90719e+9 
           2645      1.88596e+9 
           2655      1.86226e+9 
           2665      1.83914e+9 
           2675      1.81741e+9 
           2685      1.80949e+9 
           2695      1.77653e+9 
           2705      1.77042e+9 
           2715      1.75132e+9 
           2725      1.71845e+9 
           2735      1.71366e+9 
           2745      1.69535e+9 
           2755      1.67721e+9 
           2765      1.64519e+9 
           2775      1.64172e+9 
           2785      1.62437e+9 
           2795      1.60635e+9 
           2805      1.59013e+9 
           2815      1.57367e+9 
           2825      1.54046e+9 
           2835      1.53453e+9 
           2845      1.52493e+9 
           2855      1.50909e+9 
           2865      1.49352e+9 
           2875      1.47814e+9 
           2885      1.46293e+9 
           2895      1.44794e+9 
           2910       1.4258e+9 
           2930      1.39701e+9 
           2950       1.3593e+9 
           2970      1.34165e+9 
           2990      1.31496e+9 
           3010      1.28893e+9 
           3030       1.2636e+9 
           3050       1.2389e+9 
           3070      1.21478e+9 
           3090      1.19129e+9 
           3110      1.16839e+9 
           3130       1.1475e+9 
           3150      1.12558e+9 
           3170      1.10381e+9 
           3190      1.07405e+9 
           3210      1.06243e+9 
           3230      1.04242e+9 
           3250      1.02289e+9 
           3270      1.00523e+9 
           3290      9.85321e+8 
           3310      9.68807e+8 
           3330      9.51226e+8 
           3350      9.32315e+8 
           3370      9.17268e+8 
           3390      9.00871e+8 
           3410      8.84827e+8 
           3430      8.65156e+8 
           3450      8.46798e+8 
           3470      8.34531e+8 
           3490      8.19921e+8 
           3510      8.08708e+8 
           3530      7.96214e+8 
           3550      7.82754e+8 
           3570       7.7324e+8 
           3590      7.55645e+8 
           3610      7.44405e+8 
           3630      7.30278e+8 
           3640      7.28802e+8 
           3650      7.21505e+8 
           3670      7.12572e+8 
           3690      6.96015e+8 
           3710      6.73504e+8 
           3730      6.49946e+8 
           3750      6.96397e+8 
           3770       7.0191e+8 
           3790      7.43068e+8 
           3810       7.7829e+8 
           3830      6.74363e+8 
           3850       8.0241e+8 
           3870      8.08501e+8 
           3890      6.39281e+8 
           3910      7.95493e+8 
           3930        7.851e+8 
           3950      7.70288e+8 
           3970      5.94438e+8 
           3990      7.39445e+8 
           4010      7.34313e+8 
           4030      6.91645e+8 
           4050      7.17882e+8 
           4070      7.03612e+8 
           4090      6.46909e+8 
           4110      5.60497e+8 
           4130      6.59971e+8 
           4150      6.54062e+8 
           4170      6.48497e+8 
           4190      6.39788e+8 
           4210      6.29324e+8 
           4230      6.19071e+8 
           4250      6.09003e+8 
           4270      5.99117e+8 
           4290      5.88979e+8 
           4310      5.76448e+8 
           4330      5.20761e+8 
           4350       4.7296e+8 
           4370      5.48082e+8 
           4390      5.27911e+8 
           4410      5.35531e+8 
           4430      5.24525e+8 
           4450      5.18965e+8 
           4470      4.87822e+8 
           4490       5.0264e+8 
           4510      4.95247e+8 
           4530      4.87652e+8 
           4550       4.8019e+8 
           4570      4.72876e+8 
           4590      4.65706e+8 
           4610      4.58678e+8 
           4630      4.51772e+8 
           4650      4.45002e+8 
           4670      4.38365e+8 
           4690      4.31774e+8 
           4710      4.19947e+8 
           4730      4.19148e+8 
           4750      4.12971e+8 
           4770      4.06899e+8 
           4790      4.00963e+8 
           4810      3.94639e+8 
           4830      3.86808e+8 
           4850      3.55997e+8 
           4870      3.16259e+8 
           4890      3.68977e+8 
           4910      3.66227e+8 
           4930      3.53155e+8 
           4950      3.57149e+8 
           4970      3.52115e+8 
           4990      3.47165e+8 
           5010       3.3805e+8 
           5030      3.37511e+8 
           5050      3.30736e+8 
           5070       3.2819e+8 
           5090      3.23653e+8 
           5110      3.19192e+8 
           5130      3.14804e+8 
           5150      3.10503e+8 
           5170      3.06259e+8 
           5190      3.02099e+8 
           5210      2.98007e+8 
           5230      2.93983e+8 
           5250      2.90039e+8 
           5270      2.86146e+8 
           5290      2.82331e+8 
           5310      2.78564e+8 
           5330      2.74873e+8 
           5350      2.71243e+8 
           5370      2.67671e+8 
           5390      2.64145e+8 
           5410       2.6069e+8 
           5430      2.57291e+8 
           5450      2.53935e+8 
           5470      2.50646e+8 
           5490      2.47411e+8 
           5510      2.44228e+8 
           5530      2.41085e+8 
           5550      2.38005e+8 
           5570      2.34975e+8 
           5590      2.31983e+8 
           5610      2.29051e+8 
           5630      2.26155e+8 
           5650      2.23317e+8 
           5670      2.20514e+8 
           5690      2.17757e+8 
           5710      2.15044e+8 
           5730      2.12375e+8 
           5750      2.09738e+8 
           5770      2.07155e+8 
           5790      2.04602e+8 
           5810      2.02091e+8 
           5830      1.99621e+8 
           5850      1.97191e+8 
           5870      1.88764e+8 
           5890      1.92208e+8 
           5910      1.90111e+8 
           5930      1.87824e+8 
           5950      1.85563e+8 
           5970       1.8335e+8 
           5990      1.81161e+8 
           6010      1.79009e+8 
           6030       1.7688e+8 
           6050      1.74797e+8 
           6070      1.72737e+8 
           6090        1.707e+8 
           6110      1.68706e+8 
           6130      1.66735e+8 
           6150      1.64786e+8 
           6170      1.62878e+8 
           6190      1.60992e+8 
           6210      1.59126e+8 
           6230        1.573e+8 
           6250      1.55495e+8 
           6270      1.53718e+8 
           6290      1.51962e+8 
           6310      1.50233e+8 
           6330      1.48533e+8 
           6350      1.46852e+8 
           6370      1.45198e+8 
           6390      1.43561e+8 
           6410      1.41952e+8 
           6430      1.40368e+8 
           6450      1.38802e+8 
           6470      1.37261e+8 
           6490      1.35737e+8 
           6510      1.34157e+8 
           6530      1.32118e+8 
           6550      1.26114e+8 
           6570      1.11679e+8 
           6590      1.27129e+8 
           6610      1.26801e+8 
           6630       1.2566e+8 
           6650      1.24394e+8 
           6670      1.21786e+8 
           6690      1.20495e+8 
           6710      1.20414e+8 
           6730      1.19125e+8 
           6750       1.1785e+8 
           6770      1.16587e+8 
           6790      1.15354e+8 
           6810      1.14125e+8 
           6830      1.12917e+8 
           6850      1.11728e+8 
           6870      1.10552e+8 
           6890      1.09395e+8 
           6910       1.0825e+8 
           6930      1.07116e+8 
           6950      1.06001e+8 
           6970      1.04905e+8 
           6990      1.03812e+8 
           7010      1.02746e+8 
           7030      1.01689e+8 
           7050      1.00643e+8 
           7070      9.79566e+7 
           7090      9.85964e+7 
           7110      9.75879e+7 
           7130      9.65965e+7 
           7150      9.56147e+7 
           7170      9.46277e+7 
           7190      9.36939e+7 
           7210      9.27545e+7 
           7230      9.18241e+7 
           7250      9.09024e+7 
           7270      8.99967e+7 
           7290      8.83552e+7 
           7310      8.81967e+7 
           7330      8.73374e+7 
           7350      8.64792e+7 
           7370      8.56221e+7 
           7390      8.47798e+7 
           7410      8.39523e+7 
           7430      8.31256e+7 
           7450      8.23269e+7 
           7470      8.15289e+7 
           7490      8.07381e+7 
           7510      7.99213e+7 
           7530      7.91784e+7 
           7550      7.84158e+7 
           7570      7.76601e+7 
           7590      7.69179e+7 
           7610      7.61823e+7 
           7630      7.54534e+7 
           7650      7.47311e+7 
           7670      7.40217e+7 
           7690      7.33186e+7 
           7710      7.26282e+7 
           7730      7.19439e+7 
           7750      7.12595e+7 
           7770      7.05936e+7 
           7790      6.99336e+7 
           7810        6.923e+7 
           7830      6.86371e+7 
           7850        6.808e+7 
           7870      6.74485e+7 
           7890      6.67742e+7 
           7910      6.62021e+7 
           7930       6.5587e+7 
           7950       6.4864e+7 
           7970      6.42068e+7 
           7990      6.36379e+7 
           8010      6.30387e+7 
           8030      6.24621e+7 
           8050       6.1908e+7 
           8070      6.14106e+7 
           8090      6.07217e+7 
           8110      6.02736e+7 
           8130      5.97951e+7 
           8150       5.9156e+7 
           8170      5.87482e+7 
           8190      5.81302e+7 
           8210      5.75344e+7 
           8230       5.7205e+7 
           8250      5.67121e+7 
           8270      5.59039e+7 
           8290      5.56564e+7 
           8310      5.51924e+7 
           8330      5.46834e+7 
           8350      5.39133e+7 
           8370      5.36188e+7 
           8390      5.32324e+7 
           8410      5.27526e+7 
           8430      5.22158e+7 
           8450       5.1417e+7 
           8470      5.11876e+7 
           8490      5.07722e+7 
           8510      5.00968e+7 
           8530      4.99927e+7 
           8550      4.85676e+7 
           8570      4.98312e+7 
           8590      4.75026e+7 
