# Kurucz ODFNEW /NOVER (2003)
# teff = 29000 K (value for the effective temperature for the model. Temperatures are given in K)
# logg = 4 log(cm/s2) (value for Log(G) for the model.)
# meta = 0.2  (value for the Metallicity for the model.)
# lh = 1.25  (l/Hp where l is the  mixing length of the convective element and Hp is the pressure scale height)
# vtur = 2 km/s (Microturbulence velocity)
# alpha = 0  (Alpha)
#
# column 1: WAVELENGTH (ANGSTROM), Wavelength in Angstrom
# column 2: FLUX (ERG/CM2/S/A), Flux in erg/cm2/s/A
          147.2     5.32325e-10 
            151      1.77964e-9 
          155.2      6.32918e-9 
          158.8      1.78554e-8 
            162      4.33359e-8 
            166      1.25417e-7 
          170.3      3.71766e-7 
          173.4       7.9087e-7 
          176.8      1.75383e-6 
          180.2      3.77912e-6 
          181.7      5.25403e-6 
          186.1      1.34394e-5 
            191      3.64492e-5 
          193.9      6.42802e-5 
          198.4     0.000150175 
          201.8     0.000278297 
            205     0.000488318 
          210.5      0.00123654 
          216.2      0.00308202 
          219.8      0.00536288 
            223      0.00864457 
          226.8       0.0152755 
            230         2.25995 
            234         4.88243 
            240         9.30509 
          246.5          18.749 
          252.4         34.6004 
          256.8         51.1616 
            260         84.6582 
            264         128.793 
          268.5         200.289 
          273.5         306.849 
          278.5         450.663 
            284         913.378 
            290         1442.01 
            296         2180.72 
            301         3052.47 
            308         5992.63 
            318         13013.6 
            328           22278 
            338         41364.9 
            348         70646.1 
            357          272161 
            366          593544 
            375          790911 
            385      1.24755e+6 
            395      2.66518e+6 
            405      3.54118e+6 
            414      5.13498e+6 
            422      6.29201e+6 
            430      8.22061e+6 
            441      1.10198e+7 
            451      1.32227e+7 
            460       1.5546e+7 
            470      2.02076e+7 
            480      2.53573e+7 
            490      3.10986e+7 
            500      3.79156e+7 
            506      1.02477e+8 
            512      8.64148e+8 
            520      8.37457e+8 
            530      7.95893e+8 
            540      7.64828e+8 
            550      1.04092e+9 
            560      1.26906e+9 
            570      1.34922e+9 
            580      1.22347e+9 
            590      1.40995e+9 
            600      1.25723e+9 
            610      1.53972e+9 
            620      1.75399e+9 
            630      1.71991e+9 
            640      1.55309e+9 
            650      1.33937e+9 
            658      1.48442e+9 
            665      1.80585e+9 
            675      1.96763e+9 
            685      1.69961e+9 
            695      2.37499e+9 
            705      2.03431e+9 
            716      2.60206e+9 
            726      2.53723e+9 
            735      2.58036e+9 
            745      2.72143e+9 
            755      2.76428e+9 
            765       2.8856e+9 
            775      3.03378e+9 
            785      3.19253e+9 
            795      3.21095e+9 
            805      3.15307e+9 
            815      3.13833e+9 
            825      3.39216e+9 
            835       2.7052e+9 
            845      3.28023e+9 
            855      3.25533e+9 
            865      3.40943e+9 
            875      3.52203e+9 
            885      3.69805e+9 
            895      3.78114e+9 
            905       3.6784e+9 
            915      4.60413e+9 
            925     2.23248e+10 
            935     3.90965e+10 
            945     5.39682e+10 
            955     5.83873e+10 
            965     6.45909e+10 
            975      1.7116e+10 
            985     4.81403e+10 
            995     4.68503e+10 
           1005     5.20918e+10 
           1015     5.51294e+10 
           1025     4.11861e+10 
           1035     4.97171e+10 
           1045     6.33008e+10 
           1055     5.85458e+10 
           1065     4.84104e+10 
           1075     5.26191e+10 
           1085     4.80406e+10 
           1095     5.18864e+10 
           1105     4.89275e+10 
           1115     4.79478e+10 
           1125     3.67733e+10 
           1135     4.65536e+10 
           1145     4.39854e+10 
           1155     4.28938e+10 
           1165     4.15999e+10 
           1175     2.36834e+10 
           1185     3.76937e+10 
           1195     3.66988e+10 
           1205     3.21979e+10 
           1215      2.6316e+10 
           1225     3.43911e+10 
           1235     3.73636e+10 
           1245     3.54655e+10 
           1255     3.53977e+10 
           1265     3.64835e+10 
           1275     3.77697e+10 
           1285     3.76929e+10 
           1295     3.19957e+10 
           1305     3.32061e+10 
           1315       3.696e+10 
           1325     3.50287e+10 
           1335      3.3857e+10 
           1345     3.38344e+10 
           1355     3.32465e+10 
           1365     3.14752e+10 
           1375     3.02798e+10 
           1385     2.89938e+10 
           1395     2.00539e+10 
           1405     2.18077e+10 
           1415     2.65826e+10 
           1425     2.45522e+10 
           1435     2.61486e+10 
           1442     2.62686e+10 
           1447     2.59812e+10 
           1455     2.47247e+10 
           1465     2.32702e+10 
           1475     2.39046e+10 
           1485     2.37187e+10 
           1495     2.29929e+10 
           1505     2.13311e+10 
           1512     1.98421e+10 
           1517     2.03254e+10 
           1525     2.01484e+10 
           1535     1.68681e+10 
           1545     1.51337e+10 
           1555     1.48914e+10 
           1565     1.67982e+10 
           1575     1.79904e+10 
           1585      1.8109e+10 
           1595      1.7893e+10 
           1605     1.74982e+10 
           1615     1.66755e+10 
           1625     1.69103e+10 
           1635     1.75609e+10 
           1645     1.76334e+10 
           1655     1.74815e+10 
           1665     1.74339e+10 
           1672     1.61252e+10 
           1677     1.88878e+10 
           1685     1.77775e+10 
           1695     1.68681e+10 
           1705     1.66449e+10 
           1715     1.56739e+10 
           1725     1.51648e+10 
           1735     1.57364e+10 
           1745      1.5533e+10 
           1755     1.54531e+10 
           1765     1.53378e+10 
           1775     1.44265e+10 
           1785     1.47512e+10 
           1795     1.47043e+10 
           1805     1.47569e+10 
           1815     1.36661e+10 
           1825     1.38583e+10 
           1835     1.36361e+10 
           1845     1.24827e+10 
           1855      1.2898e+10 
           1865     1.30179e+10 
           1875     1.30198e+10 
           1885     1.18483e+10 
           1895     1.11916e+10 
           1905     1.18956e+10 
           1915     1.13721e+10 
           1925     1.06168e+10 
           1935     1.14209e+10 
           1945      1.1723e+10 
           1955     1.03763e+10 
           1967     1.11887e+10 
           1976     1.17045e+10 
           1984     1.09087e+10 
           1995     1.07112e+10 
           2005     1.10216e+10 
           2015     1.09728e+10 
           2025     1.11431e+10 
           2035      1.0266e+10 
           2045     1.03208e+10 
           2055       9.1171e+9 
           2065      8.95304e+9 
           2074      9.46317e+9 
           2078      8.87365e+9 
           2085      9.39652e+9 
           2095      9.29158e+9 
           2105      9.66602e+9 
           2115        9.702e+9 
           2125      9.70434e+9 
           2135      9.53265e+9 
           2145      9.14266e+9 
           2155      9.40034e+9 
           2165      9.17787e+9 
           2175      9.16136e+9 
           2185      8.90488e+9 
           2195      9.02254e+9 
           2205      8.93701e+9 
           2215      8.73134e+9 
           2225      8.58759e+9 
           2235      8.40759e+9 
           2245      8.39863e+9 
           2255       8.1628e+9 
           2265      8.19149e+9 
           2275      8.09052e+9 
           2285      7.95708e+9 
           2295        6.969e+9 
           2305      7.63028e+9 
           2315      7.50334e+9 
           2325      7.44869e+9 
           2335      7.29589e+9 
           2345      7.32081e+9 
           2355      7.19084e+9 
           2365       7.1012e+9 
           2375      6.92397e+9 
           2385      6.78523e+9 
           2395      6.72738e+9 
           2405       6.6735e+9 
           2415      6.57959e+9 
           2425      6.54338e+9 
           2435        6.383e+9 
           2445      6.35106e+9 
           2455      6.30255e+9 
           2465      6.20688e+9 
           2475      6.09932e+9 
           2485      5.91129e+9 
           2495      4.44575e+9 
           2505      5.63153e+9 
           2513      5.48519e+9 
           2518      5.63954e+9 
           2525      5.70534e+9 
           2535      5.66593e+9 
           2545      5.47928e+9 
           2555      5.46971e+9 
           2565      5.40401e+9 
           2575      5.36229e+9 
           2585       5.2989e+9 
           2595      5.23458e+9 
           2605      5.19159e+9 
           2615      5.09124e+9 
           2625      5.05723e+9 
           2635      5.00242e+9 
           2645       4.9133e+9 
           2655      4.87053e+9 
           2665      4.69762e+9 
           2675      4.65703e+9 
           2685      4.67655e+9 
           2695      4.51114e+9 
           2705       4.4294e+9 
           2715      4.41518e+9 
           2725      4.40597e+9 
           2735       4.3374e+9 
           2745       4.3012e+9 
           2755      4.26552e+9 
           2765       4.1916e+9 
           2775      4.20934e+9 
           2785      4.13127e+9 
           2795       3.9787e+9 
           2805      4.00678e+9 
           2815      4.01027e+9 
           2825      3.94832e+9 
           2835      3.82672e+9 
           2845      3.85958e+9 
           2855      3.78628e+9 
           2865      3.75604e+9 
           2875      3.71314e+9 
           2885      3.66952e+9 
           2895      3.62092e+9 
           2910      3.53155e+9 
           2930      3.49373e+9 
           2950      3.38279e+9 
           2970      3.32304e+9 
           2990      3.23301e+9 
           3010      3.11563e+9 
           3030      3.07567e+9 
           3050      3.03206e+9 
           3070      2.98645e+9 
           3090      2.86225e+9 
           3110      2.85372e+9 
           3130      2.77249e+9 
           3150      2.72612e+9 
           3170      2.65509e+9 
           3190      2.60247e+9 
           3210      2.55321e+9 
           3230      2.48886e+9 
           3250       2.4548e+9 
           3270      2.38878e+9 
           3290      2.34364e+9 
           3310      2.29629e+9 
           3330      2.23937e+9 
           3350      2.19592e+9 
           3370       2.1496e+9 
           3390      2.12097e+9 
           3410      2.07786e+9 
           3430      2.03602e+9 
           3450      1.98621e+9 
           3470       1.9494e+9 
           3490      1.90853e+9 
           3510      1.87473e+9 
           3530      1.84874e+9 
           3550      1.80998e+9 
           3570      1.77914e+9 
           3590      1.72921e+9 
           3610      1.69966e+9 
           3630      1.66981e+9 
           3640      1.66235e+9 
           3650      1.61446e+9 
           3670      1.59361e+9 
           3690      1.56053e+9 
           3710      1.50058e+9 
           3730       1.4515e+9 
           3750      1.48602e+9 
           3770       1.4624e+9 
           3790      1.51365e+9 
           3810      1.55235e+9 
           3830       1.3901e+9 
           3850      1.55028e+9 
           3870      1.50808e+9 
           3890      1.31558e+9 
           3910      1.50856e+9 
           3930        1.457e+9 
           3950      1.43113e+9 
           3970      1.21472e+9 
           3990       1.3937e+9 
           4010      1.37585e+9 
           4030      1.31734e+9 
           4050       1.3291e+9 
           4070      1.26695e+9 
           4090      1.19934e+9 
           4110      1.09729e+9 
           4130      1.21236e+9 
           4150      1.20112e+9 
           4170      1.19541e+9 
           4190      1.17735e+9 
           4210      1.16243e+9 
           4230      1.14026e+9 
           4250      1.10717e+9 
           4270      1.07945e+9 
           4290       1.0613e+9 
           4310      1.02911e+9 
           4330      9.68844e+8 
           4350      9.00945e+8 
           4370       9.8149e+8 
           4390      9.73877e+8 
           4410      9.63321e+8 
           4430      9.57426e+8 
           4450      9.38908e+8 
           4470      9.05147e+8 
           4490       9.1235e+8 
           4510      8.98256e+8 
           4530      8.87166e+8 
           4550      8.71941e+8 
           4570      8.59708e+8 
           4590       8.4356e+8 
           4610      8.24203e+8 
           4630      8.09453e+8 
           4650       7.7421e+8 
           4670      7.85938e+8 
           4690      7.76714e+8 
           4710       7.5264e+8 
           4730      7.57032e+8 
           4750      7.43925e+8 
           4770      7.41392e+8 
           4790      7.28728e+8 
           4810      7.14327e+8 
           4830      7.00204e+8 
           4850      6.66413e+8 
           4870      6.04323e+8 
           4890      6.70066e+8 
           4910      6.62087e+8 
           4930      6.41938e+8 
           4950      6.39483e+8 
           4970      6.36421e+8 
           4990       6.2614e+8 
           5010      6.01594e+8 
           5030       6.0559e+8 
           5050      5.94524e+8 
           5070      5.90649e+8 
           5090      5.80753e+8 
           5110      5.71483e+8 
           5130      5.60265e+8 
           5150      5.53436e+8 
           5170      5.47119e+8 
           5190      5.40491e+8 
           5210      5.32907e+8 
           5230      5.25189e+8 
           5250      5.17204e+8 
           5270       5.0904e+8 
           5290      5.03462e+8 
           5310      4.96082e+8 
           5330      4.89688e+8 
           5350      4.82651e+8 
           5370       4.7628e+8 
           5390      4.69004e+8 
           5410      4.62196e+8 
           5430      4.57022e+8 
           5450      4.50465e+8 
           5470      4.44318e+8 
           5490      4.38187e+8 
           5510       4.3294e+8 
           5530       4.2629e+8 
           5550      4.21585e+8 
           5570      4.15648e+8 
           5590      4.10039e+8 
           5610       4.0493e+8 
           5630      3.99705e+8 
           5650      3.93599e+8 
           5670      3.86797e+8 
           5690      3.78788e+8 
           5710      3.75919e+8 
           5730      3.71682e+8 
           5750       3.6558e+8 
           5770      3.62812e+8 
           5790      3.57759e+8 
           5810      3.53169e+8 
           5830      3.47724e+8 
           5850      3.44316e+8 
           5870      3.32155e+8 
           5890      3.33585e+8 
           5910      3.30878e+8 
           5930      3.26593e+8 
           5950      3.22624e+8 
           5970      3.20582e+8 
           5990      3.15085e+8 
           6010      3.12199e+8 
           6030      3.07655e+8 
           6050      3.04183e+8 
           6070      3.00965e+8 
           6090      2.97387e+8 
           6110      2.93627e+8 
           6130       2.9026e+8 
           6150      2.85467e+8 
           6170      2.82382e+8 
           6190      2.79567e+8 
           6210      2.76509e+8 
           6230      2.73261e+8 
           6250      2.69432e+8 
           6270       2.6647e+8 
           6290      2.63502e+8 
           6310      2.60141e+8 
           6330      2.57371e+8 
           6350       2.5394e+8 
           6370      2.51401e+8 
           6390      2.48326e+8 
           6410      2.45422e+8 
           6430      2.42686e+8 
           6450       2.3977e+8 
           6470      2.36139e+8 
           6490      2.33595e+8 
           6510      2.31131e+8 
           6530      2.27835e+8 
           6550      2.21116e+8 
           6570      1.98302e+8 
           6590      2.18639e+8 
           6610      2.18146e+8 
           6630      2.16018e+8 
           6650      2.13408e+8 
           6670      2.09336e+8 
           6690      2.07042e+8 
           6710      2.06413e+8 
           6730      2.03516e+8 
           6750      2.01939e+8 
           6770      1.99811e+8 
           6790      1.96241e+8 
           6810      1.95172e+8 
           6830      1.92956e+8 
           6850      1.91068e+8 
           6870      1.88912e+8 
           6890      1.86523e+8 
           6910      1.84214e+8 
           6930      1.82917e+8 
           6950      1.80938e+8 
           6970      1.78986e+8 
           6990      1.77022e+8 
           7010      1.75063e+8 
           7030      1.73039e+8 
           7050      1.71309e+8 
           7070      1.67024e+8 
           7090      1.67732e+8 
           7110      1.64904e+8 
           7130      1.63291e+8 
           7150      1.62438e+8 
           7170      1.60705e+8 
           7190      1.59091e+8 
           7210      1.57427e+8 
           7230      1.53826e+8 
           7250      1.53767e+8 
           7270      1.52537e+8 
           7290      1.49829e+8 
           7310      1.49349e+8 
           7330      1.47771e+8 
           7350      1.46312e+8 
           7370       1.4484e+8 
           7390      1.43353e+8 
           7410      1.41887e+8 
           7430      1.40435e+8 
           7450      1.38997e+8 
           7470       1.3695e+8 
           7490      1.36019e+8 
           7510      1.34767e+8 
           7530      1.33335e+8 
           7550      1.32147e+8 
           7570      1.30818e+8 
           7590      1.29424e+8 
           7610      1.27964e+8 
           7630      1.26886e+8 
           7650      1.25638e+8 
           7670      1.24445e+8 
           7690      1.23136e+8 
           7710      1.21922e+8 
           7730      1.20648e+8 
           7750      1.19613e+8 
           7770       1.1833e+8 
           7790      1.17313e+8 
           7810       1.1612e+8 
           7830      1.15042e+8 
           7850      1.13974e+8 
           7870       1.1266e+8 
           7890      1.11429e+8 
           7910      1.10566e+8 
           7930      1.09463e+8 
           7950      1.08514e+8 
           7970      1.07419e+8 
           7990      1.06427e+8 
           8010      1.05333e+8 
           8030      1.04312e+8 
           8050      1.03422e+8 
           8070      1.02465e+8 
           8090        1.014e+8 
           8110      9.98986e+7 
           8130       9.9647e+7 
           8150      9.86198e+7 
           8170      9.78497e+7 
           8190      9.64007e+7 
           8210      9.53727e+7 
           8230      9.43257e+7 
           8250       9.3963e+7 
           8270      9.22257e+7 
           8290      9.21266e+7 
           8310       9.1389e+7 
           8330      9.05218e+7 
           8350      8.92998e+7 
           8370      8.86907e+7 
           8390      8.80971e+7 
           8410      8.72099e+7 
           8430      8.64361e+7 
           8450      8.51358e+7 
           8470      8.47919e+7 
           8490      8.39643e+7 
           8510      8.28679e+7 
           8530      8.25574e+7 
           8550      8.08884e+7 
           8570      8.17937e+7 
           8590      7.89779e+7 
