# Kurucz ODFNEW /NOVER (2003)
# teff = 25000 K (value for the effective temperature for the model. Temperatures are given in K)
# logg = 4.5 log(cm/s2) (value for Log(G) for the model.)
# meta = -1.5  (value for the Metallicity for the model.)
# lh = 1.25  (l/Hp where l is the  mixing length of the convective element and Hp is the pressure scale height)
# vtur = 2 km/s (Microturbulence velocity)
# alpha = 0  (Alpha)
#
# column 1: WAVELENGTH (ANGSTROM), Wavelength in Angstrom
# column 2: FLUX (ERG/CM2/S/A), Flux in erg/cm2/s/A
          147.2     4.65891e-14 
            151     2.20311e-13 
          155.2      1.1277e-12 
          158.8     4.27621e-12 
            162     1.33302e-11 
            166     5.20019e-11 
          170.3     2.09382e-10 
          173.4     5.47862e-10 
          176.8      1.51267e-9 
          180.2      4.01986e-9 
          181.7      6.11487e-9 
          186.1       2.0127e-8 
            191      7.10417e-8 
          193.9      1.45312e-7 
          198.4      4.22587e-7 
          201.8      9.16419e-7 
            205      1.85411e-6 
          210.5      5.91413e-6 
          216.2      1.84502e-5 
          219.8      3.66459e-5 
            223      6.61407e-5 
          226.8      0.00013038 
            230      0.00142082 
            234      0.00323422 
            240      0.00783741 
          246.5       0.0194409 
          252.4       0.0430042 
          256.8       0.0724996 
            260        0.111392 
            264        0.179462 
          268.5        0.301322 
          273.5        0.524535 
          278.5        0.896042 
            284         1.57846 
            290         2.84769 
            296         5.00365 
            301         7.85135 
            308         13.9856 
            318         32.7952 
            328         70.2866 
            338         144.424 
            348         283.126 
            357         502.359 
            366         866.565 
            375         1440.69 
            385         2474.91 
            395         4113.42 
            405          6656.3 
            414         10063.8 
            422         14238.5 
            430         19849.5 
            441         30885.1 
            451         45155.4 
            460         62402.5 
            470         88191.2 
            480          122404 
            490          167590 
            500          226128 
            506      1.31464e+6 
            512      4.31751e+6 
            520       5.1941e+6 
            530      6.76718e+6 
            540       7.2824e+6 
            550      9.74814e+6 
            560      1.11958e+7 
            570      1.32951e+7 
            580      1.33994e+7 
            590      1.69555e+7 
            600      1.98495e+7 
            610       2.2869e+7 
            620      2.55821e+7 
            630      2.89974e+7 
            640      3.14646e+7 
            650      3.53189e+7 
            658      3.92188e+7 
            665      4.22029e+7 
            675       4.5554e+7 
            685      4.97125e+7 
            695      5.67194e+7 
            705      6.12886e+7 
            716      6.78465e+7 
            726      7.33123e+7 
            735      7.92755e+7 
            745      8.66303e+7 
            755      9.37156e+7 
            765      1.00744e+8 
            775      1.08862e+8 
            785       1.1708e+8 
            795      1.24518e+8 
            805      1.32978e+8 
            815      1.41056e+8 
            825      1.50996e+8 
            835      1.56824e+8 
            845      1.68314e+8 
            855       1.7732e+8 
            865      1.88434e+8 
            875      1.99907e+8 
            885      2.11182e+8 
            895      2.21845e+8 
            905      2.29711e+8 
            915      3.18177e+8 
            925      1.68427e+9 
            935      4.79452e+9 
            945     1.49721e+10 
            955     2.25263e+10 
            965     3.03685e+10 
            975     1.02165e+10 
            985     3.52642e+10 
            995     3.39767e+10 
           1005     3.55512e+10 
           1015     3.11765e+10 
           1025      8.97589e+9 
           1035     2.67925e+10 
           1045     3.52917e+10 
           1055     3.42298e+10 
           1065     3.08947e+10 
           1075     3.23613e+10 
           1085     2.95972e+10 
           1095     3.15422e+10 
           1105     2.98934e+10 
           1115     2.95126e+10 
           1125     2.73025e+10 
           1135     2.84135e+10 
           1145     2.64938e+10 
           1155     2.70684e+10 
           1165     2.66168e+10 
           1175     2.22388e+10 
           1185     2.51199e+10 
           1195      2.3231e+10 
           1205     1.90575e+10 
           1215      6.50831e+9 
           1225     1.87957e+10 
           1235     2.20948e+10 
           1245     2.19134e+10 
           1255     2.15409e+10 
           1265     2.10993e+10 
           1275     2.10732e+10 
           1285     2.06039e+10 
           1295     1.86695e+10 
           1305     1.86855e+10 
           1315      1.9285e+10 
           1325     1.85446e+10 
           1335     1.77497e+10 
           1345     1.78402e+10 
           1355     1.77467e+10 
           1365       1.708e+10 
           1375     1.67826e+10 
           1385     1.65034e+10 
           1395     1.53414e+10 
           1405     1.53535e+10 
           1415     1.53945e+10 
           1425     1.50805e+10 
           1435     1.48978e+10 
           1442     1.48321e+10 
           1447     1.46314e+10 
           1455     1.43757e+10 
           1465     1.39839e+10 
           1475     1.37471e+10 
           1485     1.34512e+10 
           1495      1.3198e+10 
           1505     1.26921e+10 
           1512     1.23524e+10 
           1517     1.23647e+10 
           1525     1.21917e+10 
           1535     1.15317e+10 
           1545     1.14834e+10 
           1555     1.10773e+10 
           1565     1.12201e+10 
           1575     1.11733e+10 
           1585     1.09843e+10 
           1595     1.08362e+10 
           1605     1.04677e+10 
           1615     1.02679e+10 
           1625     1.02109e+10 
           1635     1.01456e+10 
           1645      9.83706e+9 
           1655      9.78662e+9 
           1665      9.69062e+9 
           1672      9.45697e+9 
           1677      9.57185e+9 
           1685      9.40608e+9 
           1695      9.17308e+9 
           1705      8.94968e+9 
           1715      8.70715e+9 
           1725       8.5818e+9 
           1735       8.5137e+9 
           1745      8.34947e+9 
           1755      8.28871e+9 
           1765      7.97145e+9 
           1775      7.89444e+9 
           1785      7.83308e+9 
           1795      7.76674e+9 
           1805      7.68474e+9 
           1815      7.45048e+9 
           1825      7.38523e+9 
           1835      7.25147e+9 
           1845      6.90204e+9 
           1855      6.75962e+9 
           1865      6.76553e+9 
           1875      6.78335e+9 
           1885      6.41714e+9 
           1895      6.17251e+9 
           1905       6.3265e+9 
           1915      6.09972e+9 
           1925      5.95976e+9 
           1935      6.01624e+9 
           1945      6.02793e+9 
           1955      5.70965e+9 
           1967       5.8068e+9 
           1976      5.85851e+9 
           1984      5.63641e+9 
           1995      5.47049e+9 
           2005      5.51324e+9 
           2015      5.49623e+9 
           2025      5.47507e+9 
           2035       5.2913e+9 
           2045      5.22157e+9 
           2055      5.07096e+9 
           2065      5.03663e+9 
           2074      5.10355e+9 
           2078       4.9472e+9 
           2085      4.94247e+9 
           2095      4.80982e+9 
           2105      4.83581e+9 
           2115      4.79238e+9 
           2125      4.77158e+9 
           2135       4.6893e+9 
           2145      4.58754e+9 
           2155      4.56348e+9 
           2165      4.50912e+9 
           2175      4.43765e+9 
           2185      4.38419e+9 
           2195       4.3362e+9 
           2205       4.2748e+9 
           2215      4.22001e+9 
           2225      4.15377e+9 
           2235      4.09436e+9 
           2245      4.05378e+9 
           2255      3.99116e+9 
           2265       3.9488e+9 
           2275      3.89611e+9 
           2285      3.85025e+9 
           2295       3.7499e+9 
           2305        3.747e+9 
           2315      3.69023e+9 
           2325      3.64518e+9 
           2335      3.58749e+9 
           2345      3.54661e+9 
           2355      3.51058e+9 
           2365      3.46297e+9 
           2375      3.41771e+9 
           2385      3.37156e+9 
           2395      3.32993e+9 
           2405      3.28888e+9 
           2415      3.24497e+9 
           2425       3.2139e+9 
           2435      3.16831e+9 
           2445      3.13167e+9 
           2455      3.09708e+9 
           2465      3.05694e+9 
           2475      3.01974e+9 
           2485      2.98212e+9 
           2495      2.89503e+9 
           2505       2.9072e+9 
           2513      2.84899e+9 
           2518      2.86276e+9 
           2525       2.8384e+9 
           2535      2.80298e+9 
           2545      2.75767e+9 
           2555      2.73699e+9 
           2565      2.70487e+9 
           2575      2.67669e+9 
           2585       2.6453e+9 
           2595      2.61388e+9 
           2605      2.60001e+9 
           2615      2.57113e+9 
           2625      2.54212e+9 
           2635      2.50957e+9 
           2645      2.48158e+9 
           2655      2.44999e+9 
           2665      2.41387e+9 
           2675      2.38474e+9 
           2685      2.37464e+9 
           2695      2.32453e+9 
           2705       2.3187e+9 
           2715      2.29281e+9 
           2725      2.24679e+9 
           2735      2.24183e+9 
           2745      2.20927e+9 
           2755      2.18746e+9 
           2765      2.14638e+9 
           2775      2.14425e+9 
           2785       2.1195e+9 
           2795      2.07094e+9 
           2805      2.06372e+9 
           2815      2.05108e+9 
           2825      2.00425e+9 
           2835      1.98039e+9 
           2845      1.98394e+9 
           2855      1.96217e+9 
           2865      1.94184e+9 
           2875      1.92065e+9 
           2885      1.90021e+9 
           2895      1.87969e+9 
           2910      1.84919e+9 
           2930      1.80959e+9 
           2950      1.75722e+9 
           2970      1.73513e+9 
           2990      1.69809e+9 
           3010      1.66275e+9 
           3030         1.63e+9 
           3050       1.5967e+9 
           3070      1.56433e+9 
           3090      1.53054e+9 
           3110      1.50168e+9 
           3130       1.4729e+9 
           3150      1.44389e+9 
           3170      1.41448e+9 
           3190      1.37411e+9 
           3210      1.35949e+9 
           3230      1.33259e+9 
           3250      1.30668e+9 
           3270      1.28314e+9 
           3290      1.25648e+9 
           3310      1.23474e+9 
           3330      1.21129e+9 
           3350       1.1861e+9 
           3370      1.16616e+9 
           3390      1.14447e+9 
           3410      1.12328e+9 
           3430      1.09709e+9 
           3450      1.07276e+9 
           3470      1.05645e+9 
           3490      1.03717e+9 
           3510       1.0208e+9 
           3530      1.00479e+9 
           3550      9.87134e+8 
           3570      9.75661e+8 
           3590      9.51053e+8 
           3610      9.37336e+8 
           3630      9.18201e+8 
           3640      9.17371e+8 
           3650       9.0087e+8 
           3670      8.89372e+8 
           3690      8.72757e+8 
           3710      8.42681e+8 
           3730      8.07457e+8 
           3750       8.2622e+8 
           3770       8.2018e+8 
           3790      8.66676e+8 
           3810      9.06574e+8 
           3830      7.85901e+8 
           3850      9.37319e+8 
           3870      9.53212e+8 
           3890      7.40657e+8 
           3910       9.3886e+8 
           3930      9.30646e+8 
           3950      9.09487e+8 
           3970      6.89117e+8 
           3990      8.70069e+8 
           4010      8.71767e+8 
           4030      8.14191e+8 
           4050      8.53598e+8 
           4070      8.32858e+8 
           4090      7.52756e+8 
           4110      6.52292e+8 
           4130      7.79393e+8 
           4150      7.75267e+8 
           4170      7.70557e+8 
           4190      7.60107e+8 
           4210      7.47864e+8 
           4230      7.35209e+8 
           4250       7.2259e+8 
           4270      7.07635e+8 
           4290      6.96999e+8 
           4310      6.80243e+8 
           4330      6.04068e+8 
           4350      5.49052e+8 
           4370       6.4516e+8 
           4390      6.20803e+8 
           4410      6.32502e+8 
           4430      6.20604e+8 
           4450      6.13649e+8 
           4470      5.71517e+8 
           4490      5.93252e+8 
           4510      5.85576e+8 
           4530      5.76286e+8 
           4550      5.67155e+8 
           4570      5.58215e+8 
           4590      5.49749e+8 
           4610      5.41249e+8 
           4630       5.3291e+8 
           4650      5.23754e+8 
           4670       5.1679e+8 
           4690      5.09069e+8 
           4710      4.93971e+8 
           4730      4.93389e+8 
           4750      4.85603e+8 
           4770      4.79437e+8 
           4790      4.72092e+8 
           4810      4.63615e+8 
           4830      4.53292e+8 
           4850      4.11219e+8 
           4870      3.65755e+8 
           4890      4.31397e+8 
           4910      4.29624e+8 
           4930      4.12676e+8 
           4950      4.19603e+8 
           4970      4.13762e+8 
           4990      4.07789e+8 
           5010       3.9597e+8 
           5030      3.96207e+8 
           5050      3.87757e+8 
           5070      3.85143e+8 
           5090      3.79723e+8 
           5110      3.74391e+8 
           5130      3.69029e+8 
           5150      3.63896e+8 
           5170      3.58972e+8 
           5190      3.54029e+8 
           5210      3.49054e+8 
           5230      3.44364e+8 
           5250      3.39654e+8 
           5270       3.3502e+8 
           5290      3.30472e+8 
           5310      3.25996e+8 
           5330      3.21605e+8 
           5350      3.17244e+8 
           5370      3.13056e+8 
           5390       3.0887e+8 
           5410      3.04763e+8 
           5430      3.00695e+8 
           5450      2.96729e+8 
           5470      2.92838e+8 
           5490      2.88996e+8 
           5510      2.85226e+8 
           5530      2.81504e+8 
           5550      2.77852e+8 
           5570      2.74245e+8 
           5590      2.70719e+8 
           5610      2.67212e+8 
           5630      2.63808e+8 
           5650      2.60374e+8 
           5670      2.57005e+8 
           5690      2.53689e+8 
           5710      2.50621e+8 
           5730      2.47463e+8 
           5750       2.4432e+8 
           5770      2.41305e+8 
           5790      2.38293e+8 
           5810      2.35316e+8 
           5830      2.32385e+8 
           5850      2.29522e+8 
           5870      2.18842e+8 
           5890      2.23277e+8 
           5910      2.21142e+8 
           5930      2.18432e+8 
           5950      2.15753e+8 
           5970      2.13179e+8 
           5990      2.10571e+8 
           6010      2.08045e+8 
           6030      2.05538e+8 
           6050       2.0308e+8 
           6070       2.0066e+8 
           6090      1.98268e+8 
           6110      1.95912e+8 
           6130      1.93594e+8 
           6150      1.91271e+8 
           6170      1.89043e+8 
           6190       1.8683e+8 
           6210      1.84642e+8 
           6230      1.82488e+8 
           6250      1.80367e+8 
           6270      1.78279e+8 
           6290      1.76214e+8 
           6310      1.74181e+8 
           6330       1.7218e+8 
           6350      1.70162e+8 
           6370      1.68241e+8 
           6390      1.66341e+8 
           6410      1.64443e+8 
           6430      1.62592e+8 
           6450      1.60752e+8 
           6470      1.58905e+8 
           6490      1.57131e+8 
           6510      1.55065e+8 
           6530      1.52553e+8 
           6550      1.44405e+8 
           6570       1.2759e+8 
           6590      1.46161e+8 
           6610      1.46408e+8 
           6630      1.45277e+8 
           6650      1.43825e+8 
           6670      1.40542e+8 
           6690      1.39047e+8 
           6710      1.39173e+8 
           6730      1.37648e+8 
           6750      1.36172e+8 
           6770      1.34695e+8 
           6790      1.33192e+8 
           6810       1.3181e+8 
           6830      1.30401e+8 
           6850      1.29006e+8 
           6870      1.27633e+8 
           6890      1.26275e+8 
           6910      1.24937e+8 
           6930      1.23613e+8 
           6950       1.2231e+8 
           6970      1.21027e+8 
           6990       1.1975e+8 
           7010        1.185e+8 
           7030      1.17263e+8 
           7050      1.16045e+8 
           7070      1.12842e+8 
           7090      1.13653e+8 
           7110      1.12478e+8 
           7130      1.11321e+8 
           7150      1.10176e+8 
           7170      1.09027e+8 
           7190      1.07941e+8 
           7210      1.06835e+8 
           7230      1.05474e+8 
           7250      1.04678e+8 
           7270      1.03618e+8 
           7290      1.01668e+8 
           7310      1.01528e+8 
           7330      1.00526e+8 
           7350      9.95197e+7 
           7370      9.85295e+7 
           7390      9.75485e+7 
           7410      9.65767e+7 
           7430      9.56207e+7 
           7450       9.4694e+7 
           7470      9.37488e+7 
           7490      9.28324e+7 
           7510      9.18844e+7 
           7530      9.10249e+7 
           7550      9.01335e+7 
           7570      8.92569e+7 
           7590      8.83947e+7 
           7610      8.75339e+7 
           7630      8.66873e+7 
           7650      8.58548e+7 
           7670      8.50299e+7 
           7690      8.42123e+7 
           7710      8.34084e+7 
           7730      8.26116e+7 
           7750       8.1822e+7 
           7770      8.10207e+7 
           7790      8.02762e+7 
           7810      7.94703e+7 
           7830      7.87699e+7 
           7850      7.81061e+7 
           7870      7.73751e+7 
           7890        7.659e+7 
           7910      7.59382e+7 
           7930      7.52322e+7 
           7950      7.44667e+7 
           7970      7.36427e+7 
           7990      7.29735e+7 
           8010      7.22866e+7 
           8030      7.16115e+7 
           8050      7.09538e+7 
           8070      7.03191e+7 
           8090      6.95919e+7 
           8110      6.90429e+7 
           8130      6.84699e+7 
           8150       6.7777e+7 
           8170      6.72593e+7 
           8190      6.65605e+7 
           8210      6.57895e+7 
           8230      6.53811e+7 
           8250      6.48154e+7 
           8270      6.39074e+7 
           8290      6.36214e+7 
           8310      6.30864e+7 
           8330      6.24906e+7 
           8350      6.16135e+7 
           8370      6.12871e+7 
           8390      6.08454e+7 
           8410       6.0306e+7 
           8430      5.97233e+7 
           8450      5.87656e+7 
           8470      5.86512e+7 
           8490      5.79937e+7 
           8510      5.75081e+7 
           8530      5.69799e+7 
           8550      5.60694e+7 
           8570      5.65056e+7 
