# Kurucz ODFNEW /NOVER (2003)
# teff = 31000 K (value for the effective temperature for the model. Temperatures are given in K)
# logg = 5 log(cm/s2) (value for Log(G) for the model.)
# meta = -4  (value for the Metallicity for the model.)
# lh = 1.25  (l/Hp where l is the  mixing length of the convective element and Hp is the pressure scale height)
# vtur = 2 km/s (Microturbulence velocity)
# alpha = 0.4  (Alpha)
#
# column 1: WAVELENGTH (ANGSTROM), Wavelength in Angstrom
# column 2: FLUX (ERG/CM2/S/A), Flux in erg/cm2/s/A
          147.2      1.46311e-6 
            151      4.75534e-6 
          155.2      1.63066e-5 
          158.8      4.44069e-5 
            162      0.00010401 
            166     0.000287059 
          170.3     0.000808221 
          173.4      0.00164812 
          176.8       0.0034926 
          180.2        0.007182 
          181.7      0.00978165 
          186.1       0.0234784 
            191       0.0591794 
          193.9       0.0999028 
          198.4        0.217955 
          201.8        0.383342 
            205        0.640337 
          210.5         1.48718 
          216.2         3.39208 
          219.8         5.57577 
            223          8.5476 
          226.8         13.9565 
            230         99.0108 
            234         315.097 
            240         580.981 
          246.5         1067.53 
          252.4         1795.36 
          256.8         2229.94 
            260         3295.99 
            264         4484.74 
          268.5         6266.09 
          273.5         8963.17 
          278.5         12697.5 
            284         18360.5 
            290         26998.6 
            296         38850.7 
            301         50637.5 
            308         70732.1 
            318          134521 
            328          223042 
            338          358283 
            348          559320 
            357          815155 
            366      1.16664e+6 
            375      1.63532e+6 
            385       2.3352e+6 
            395      3.26471e+6 
            405      4.48125e+6 
            414      5.87439e+6 
            422      7.38507e+6 
            430       9.1933e+6 
            441      1.22498e+7 
            451      1.56736e+7 
            460       1.9351e+7 
            470         2.42e+7 
            480      2.99176e+7 
            490       3.6617e+7 
            500      4.43652e+7 
            506      2.26477e+8 
            512      8.50021e+8 
            520      8.82806e+8 
            530      1.01906e+9 
            540      9.62792e+8 
            550      1.08645e+9 
            560      1.12045e+9 
            570      1.15987e+9 
            580      1.12101e+9 
            590      1.23387e+9 
            600      1.28601e+9 
            610      1.33713e+9 
            620      1.38608e+9 
            630      1.43915e+9 
            640      1.49055e+9 
            650      1.54856e+9 
            658      1.59336e+9 
            665      1.63394e+9 
            675      1.68957e+9 
            685      1.73911e+9 
            695      1.81351e+9 
            705      1.85899e+9 
            716      1.93826e+9 
            726      2.00052e+9 
            735      2.06187e+9 
            745        2.125e+9 
            755      2.18797e+9 
            765      2.25101e+9 
            775      2.31542e+9 
            785      2.37889e+9 
            795      2.44113e+9 
            805      2.50393e+9 
            815      2.56571e+9 
            825      2.62754e+9 
            835      2.65608e+9 
            845       2.7486e+9 
            855       2.8079e+9 
            865      2.86661e+9 
            875      2.92438e+9 
            885      2.98113e+9 
            895      3.03683e+9 
            905      3.09024e+9 
            915      3.41908e+9 
            925     1.27928e+10 
            935     2.59165e+10 
            945     5.58961e+10 
            955     6.99657e+10 
            965     9.23472e+10 
            975     4.99968e+10 
            985     1.00536e+11 
            995      9.2734e+10 
           1005     9.84657e+10 
           1015     9.11084e+10 
           1025     3.89235e+10 
           1035     8.35524e+10 
           1045     8.83845e+10 
           1055      8.6656e+10 
           1065     8.40232e+10 
           1075     8.18805e+10 
           1085     7.48835e+10 
           1095     7.80621e+10 
           1105     7.57948e+10 
           1115     7.40201e+10 
           1125     7.13914e+10 
           1135     7.03671e+10 
           1145     6.85025e+10 
           1155     6.67595e+10 
           1165     6.51104e+10 
           1175     6.06233e+10 
           1185      6.1638e+10 
           1195      5.9661e+10 
           1205     5.45885e+10 
           1215     2.52671e+10 
           1225     5.10808e+10 
           1235     5.39471e+10 
           1245     5.29843e+10 
           1255     5.19663e+10 
           1265     5.07642e+10 
           1275     4.95632e+10 
           1285     4.84092e+10 
           1295     4.68849e+10 
           1305     4.60585e+10 
           1315     4.50884e+10 
           1325     4.40327e+10 
           1335     4.28682e+10 
           1345     4.20457e+10 
           1355     4.10847e+10 
           1365     4.01452e+10 
           1375     3.92406e+10 
           1385     3.83638e+10 
           1395     3.71033e+10 
           1405     3.63766e+10 
           1415     3.58888e+10 
           1425      3.5116e+10 
           1435     3.43593e+10 
           1442     3.38399e+10 
           1447     3.34661e+10 
           1455     3.28802e+10 
           1465     3.21696e+10 
           1475     3.14838e+10 
           1485     3.08203e+10 
           1495     3.01667e+10 
           1505     2.95293e+10 
           1512     2.90999e+10 
           1517     2.87987e+10 
           1525     2.83224e+10 
           1535     2.77388e+10 
           1545     2.69973e+10 
           1555     2.64767e+10 
           1565     2.60825e+10 
           1575      2.5555e+10 
           1585     2.50386e+10 
           1595      2.4536e+10 
           1605     2.40426e+10 
           1615      2.3571e+10 
           1625     2.31134e+10 
           1635     2.24243e+10 
           1645     2.13172e+10 
           1655     2.18058e+10 
           1665     2.13843e+10 
           1672     2.10951e+10 
           1677     2.08945e+10 
           1685     2.05745e+10 
           1695      2.0183e+10 
           1705     1.97979e+10 
           1715     1.94191e+10 
           1725     1.90553e+10 
           1735     1.87049e+10 
           1745     1.83588e+10 
           1755     1.80254e+10 
           1765     1.76971e+10 
           1775     1.73775e+10 
           1785     1.70663e+10 
           1795     1.67633e+10 
           1805     1.64636e+10 
           1815     1.61683e+10 
           1825     1.58785e+10 
           1835     1.55974e+10 
           1845     1.53214e+10 
           1855     1.50494e+10 
           1865     1.47888e+10 
           1875     1.45371e+10 
           1885     1.42847e+10 
           1895     1.40357e+10 
           1905     1.38016e+10 
           1915     1.35633e+10 
           1925     1.33363e+10 
           1935     1.31153e+10 
           1945     1.28991e+10 
           1955     1.26808e+10 
           1967     1.24292e+10 
           1976     1.22429e+10 
           1984     1.20802e+10 
           1995     1.18603e+10 
           2005     1.16692e+10 
           2015     1.14803e+10 
           2025     1.12956e+10 
           2035     1.11157e+10 
           2045     1.09406e+10 
           2055     1.01992e+10 
           2065      9.98846e+9 
           2074      9.86605e+9 
           2078      9.82636e+9 
           2085      9.79948e+9 
           2095       9.8495e+9 
           2105      9.90493e+9 
           2115      9.79801e+9 
           2125      9.65262e+9 
           2135      9.49959e+9 
           2145      9.35882e+9 
           2155      9.22187e+9 
           2165      9.06133e+9 
           2175      8.95032e+9 
           2185      8.78257e+9 
           2195      8.68162e+9 
           2205      8.55346e+9 
           2215       8.3881e+9 
           2225      8.30146e+9 
           2235      8.17907e+9 
           2245      8.05928e+9 
           2255      7.90202e+9 
           2265      7.82579e+9 
           2275      7.71201e+9 
           2285       7.5992e+9 
           2295      7.47018e+9 
           2305      7.34098e+9 
           2315      7.27348e+9 
           2325      7.16923e+9 
           2335      7.06788e+9 
           2345       6.9673e+9 
           2355      6.86886e+9 
           2365       6.7725e+9 
           2375      6.67766e+9 
           2385      6.55204e+9 
           2395      6.49369e+9 
           2405      6.40405e+9 
           2415      6.31598e+9 
           2425       6.2296e+9 
           2435      6.14467e+9 
           2445      6.06092e+9 
           2455      5.97845e+9 
           2465      5.89731e+9 
           2475      5.81734e+9 
           2485      5.73871e+9 
           2495      5.60771e+9 
           2505      5.58344e+9 
           2513      5.46759e+9 
           2518      5.48915e+9 
           2525      5.43814e+9 
           2535      5.36642e+9 
           2545      5.29577e+9 
           2555       5.2267e+9 
           2565      5.15882e+9 
           2575      5.09202e+9 
           2585      5.02637e+9 
           2595      4.96169e+9 
           2605      4.92111e+9 
           2615      4.85793e+9 
           2625      4.79557e+9 
           2635      4.73314e+9 
           2645      4.67108e+9 
           2655      4.60801e+9 
           2665      4.54299e+9 
           2675      4.47782e+9 
           2685      4.44301e+9 
           2695       4.3602e+9 
           2705      4.33261e+9 
           2715      4.27867e+9 
           2725       4.1939e+9 
           2735        4.158e+9 
           2745      4.12196e+9 
           2755      4.07144e+9 
           2765      3.98829e+9 
           2775      3.97305e+9 
           2785       3.9248e+9 
           2795      3.87699e+9 
           2805      3.83039e+9 
           2815       3.7844e+9 
           2825      3.70044e+9 
           2835      3.67321e+9 
           2845      3.65046e+9 
           2855      3.60718e+9 
           2865       3.5646e+9 
           2875      3.52267e+9 
           2885      3.48127e+9 
           2895       3.4404e+9 
           2910      3.38029e+9 
           2930      3.30218e+9 
           2950       3.2008e+9 
           2970      3.15272e+9 
           2990      3.08118e+9 
           3010      3.01176e+9 
           3030      2.94436e+9 
           3050      2.87894e+9 
           3070      2.81537e+9 
           3090      2.75351e+9 
           3110      2.69321e+9 
           3130       2.6369e+9 
           3150      2.57987e+9 
           3170      2.52429e+9 
           3190      2.44694e+9 
           3210      2.41325e+9 
           3230      2.36501e+9 
           3250      2.31488e+9 
           3270      2.26868e+9 
           3290      2.21859e+9 
           3310      2.17553e+9 
           3330      2.13075e+9 
           3350       2.0836e+9 
           3370      2.04475e+9 
           3390      2.00338e+9 
           3410      1.96314e+9 
           3430      1.91661e+9 
           3450      1.87208e+9 
           3470      1.84011e+9 
           3490      1.80389e+9 
           3510      1.77012e+9 
           3530      1.73694e+9 
           3550      1.70403e+9 
           3570      1.68207e+9 
           3590      1.63634e+9 
           3610      1.61239e+9 
           3630      1.57483e+9 
           3640      1.57307e+9 
           3650       1.5525e+9 
           3670      1.52917e+9 
           3690      1.50168e+9 
           3710      1.45386e+9 
           3730       1.4104e+9 
           3750      1.38612e+9 
           3770       1.3415e+9 
           3790      1.37669e+9 
           3810      1.42368e+9 
           3830      1.25201e+9 
           3850      1.45118e+9 
           3870      1.47616e+9 
           3890      1.17138e+9 
           3910      1.44466e+9 
           3930      1.43946e+9 
           3950      1.39812e+9 
           3970        1.085e+9 
           3990       1.3358e+9 
           4010      1.33926e+9 
           4030      1.25432e+9 
           4050      1.30845e+9 
           4070      1.27845e+9 
           4090      1.15671e+9 
           4110      1.01287e+9 
           4130      1.19447e+9 
           4150        1.186e+9 
           4170       1.1781e+9 
           4190      1.15975e+9 
           4210      1.13913e+9 
           4230      1.12024e+9 
           4250      1.10087e+9 
           4270      1.08174e+9 
           4290      1.06009e+9 
           4310      1.03401e+9 
           4330      9.22087e+8 
           4350      8.43946e+8 
           4370      9.78689e+8 
           4390      9.43382e+8 
           4410      9.59195e+8 
           4430      9.40744e+8 
           4450      9.28292e+8 
           4470      8.65722e+8 
           4490      8.97045e+8 
           4510      8.83995e+8 
           4530      8.69634e+8 
           4550      8.54909e+8 
           4570      8.41778e+8 
           4590      8.28271e+8 
           4610      8.15038e+8 
           4630      8.02072e+8 
           4650       7.8935e+8 
           4670      7.76886e+8 
           4690       7.6118e+8 
           4710       7.4313e+8 
           4730      7.40901e+8 
           4750      7.29382e+8 
           4770      7.18079e+8 
           4790      7.06742e+8 
           4810      6.93778e+8 
           4830      6.77903e+8 
           4850      6.16765e+8 
           4870      5.53128e+8 
           4890      6.43708e+8 
           4910      6.40881e+8 
           4930      6.16069e+8 
           4950      6.25707e+8 
           4970      6.16395e+8 
           4990      6.07258e+8 
           5010      5.90622e+8 
           5030      5.89464e+8 
           5050      5.77521e+8 
           5070      5.72344e+8 
           5090      5.64016e+8 
           5110       5.5583e+8 
           5130      5.47782e+8 
           5150      5.39885e+8 
           5170      5.32136e+8 
           5190      5.24519e+8 
           5210      5.17043e+8 
           5230      5.09708e+8 
           5250      5.02484e+8 
           5270      4.95408e+8 
           5290      4.88438e+8 
           5310      4.81599e+8 
           5330      4.74888e+8 
           5350      4.68278e+8 
           5370      4.61804e+8 
           5390      4.55427e+8 
           5410      4.48822e+8 
           5430      4.43018e+8 
           5450      4.36969e+8 
           5470      4.31022e+8 
           5490      4.25175e+8 
           5510      4.19414e+8 
           5530      4.13762e+8 
           5550      4.08205e+8 
           5570      4.02741e+8 
           5590      3.97368e+8 
           5610      3.92086e+8 
           5630      3.86881e+8 
           5650      3.81775e+8 
           5670      3.76754e+8 
           5690      3.71806e+8 
           5710      3.66941e+8 
           5730       3.6217e+8 
           5750      3.57467e+8 
           5770      3.52832e+8 
           5790      3.48286e+8 
           5810      3.43805e+8 
           5830        3.394e+8 
           5850      3.35058e+8 
           5870      3.19658e+8 
           5890      3.25712e+8 
           5910      3.22454e+8 
           5930      3.18397e+8 
           5950      3.14387e+8 
           5970      3.10445e+8 
           5990       3.0657e+8 
           6010      3.02749e+8 
           6030      2.98993e+8 
           6050       2.9529e+8 
           6070       2.9165e+8 
           6090      2.88062e+8 
           6110      2.84534e+8 
           6130      2.81057e+8 
           6150      2.77628e+8 
           6170      2.74248e+8 
           6190      2.70925e+8 
           6210      2.67659e+8 
           6230      2.64438e+8 
           6250      2.61263e+8 
           6270      2.58133e+8 
           6290      2.55056e+8 
           6310      2.52023e+8 
           6330      2.49032e+8 
           6350      2.46083e+8 
           6370      2.43185e+8 
           6390      2.40327e+8 
           6410      2.37509e+8 
           6430      2.34731e+8 
           6450      2.31992e+8 
           6470        2.293e+8 
           6490      2.26636e+8 
           6510      2.23548e+8 
           6530      2.19813e+8 
           6550      2.08129e+8 
           6570      1.85428e+8 
           6590      2.10728e+8 
           6610      2.10696e+8 
           6630      2.08998e+8 
           6650      2.06823e+8 
           6670      2.02037e+8 
           6690      1.99812e+8 
           6710       1.9992e+8 
           6730      1.97685e+8 
           6750      1.95473e+8 
           6770      1.93301e+8 
           6790      1.91151e+8 
           6810      1.89039e+8 
           6830      1.86948e+8 
           6850      1.84894e+8 
           6870      1.82861e+8 
           6890      1.80865e+8 
           6910      1.78889e+8 
           6930       1.7694e+8 
           6950      1.75018e+8 
           6970      1.73123e+8 
           6990      1.71255e+8 
           7010      1.69413e+8 
           7030      1.67589e+8 
           7050      1.65798e+8 
           7070      1.61364e+8 
           7090      1.62276e+8 
           7110      1.60552e+8 
           7130      1.58853e+8 
           7150      1.57177e+8 
           7170      1.55502e+8 
           7190       1.5388e+8 
           7210      1.52267e+8 
           7230      1.50676e+8 
           7250      1.49108e+8 
           7270      1.47554e+8 
           7290      1.44796e+8 
           7310      1.44499e+8 
           7330      1.43017e+8 
           7350      1.41549e+8 
           7370      1.40089e+8 
           7390      1.38655e+8 
           7410      1.37242e+8 
           7430      1.35843e+8 
           7450      1.34476e+8 
           7470      1.33109e+8 
           7490      1.31768e+8 
           7510      1.30399e+8 
           7530      1.29122e+8 
           7550      1.27825e+8 
           7570      1.26545e+8 
           7590      1.25284e+8 
           7610      1.24035e+8 
           7630      1.22803e+8 
           7650      1.21589e+8 
           7670      1.20385e+8 
           7690      1.19193e+8 
           7710      1.18024e+8 
           7730      1.16866e+8 
           7750      1.15717e+8 
           7770      1.14592e+8 
           7790      1.13477e+8 
           7810      1.12322e+8 
           7830      1.11282e+8 
           7850        1.103e+8 
           7870      1.09235e+8 
           7890      1.08143e+8 
           7910      1.07146e+8 
           7930      1.06121e+8 
           7950      1.05105e+8 
           7970      1.04026e+8 
           7990      1.03111e+8 
           8010      1.02097e+8 
           8030      1.01064e+8 
           8050      1.00085e+8 
           8070      9.91617e+7 
           8090      9.80619e+7 
           8110      9.72752e+7 
           8130      9.63925e+7 
           8150      9.54379e+7 
           8170      9.46213e+7 
           8190      9.36374e+7 
           8210      9.26787e+7 
           8230      9.20008e+7 
           8250      9.11844e+7 
           8270      9.00223e+7 
           8290      8.94953e+7 
           8310      8.87159e+7 
           8330      8.78506e+7 
           8350      8.67117e+7 
           8370      8.61741e+7 
           8390      8.55015e+7 
           8410      8.47331e+7 
           8430      8.39233e+7 
           8450      8.26718e+7 
           8470      8.24289e+7 
           8490      8.15288e+7 
           8510      8.09327e+7 
           8530      8.00152e+7 
           8550      7.92651e+7 
           8570      7.89058e+7 
           8590      7.68999e+7 
