# Kurucz ODFNEW /NOVER (2003)
# teff = 25000 K (value for the effective temperature for the model. Temperatures are given in K)
# logg = 5 log(cm/s2) (value for Log(G) for the model.)
# meta = -2.5  (value for the Metallicity for the model.)
# lh = 1.25  (l/Hp where l is the  mixing length of the convective element and Hp is the pressure scale height)
# vtur = 2 km/s (Microturbulence velocity)
# alpha = 0.4  (Alpha)
#
# column 1: WAVELENGTH (ANGSTROM), Wavelength in Angstrom
# column 2: FLUX (ERG/CM2/S/A), Flux in erg/cm2/s/A
          147.2     3.03031e-14 
            151     1.46477e-13 
          155.2     7.66298e-13 
          158.8     2.95752e-12 
            162     9.35507e-12 
            166      3.7111e-11 
          170.3     1.51954e-10 
          173.4     4.02032e-10 
          176.8       1.1239e-9 
          180.2      3.02212e-9 
          181.7      4.62016e-9 
          186.1      1.54202e-8 
            191      5.52366e-8 
          193.9      1.13959e-7 
          198.4      3.35838e-7 
          201.8      7.35378e-7 
            205      1.50064e-6 
          210.5      4.85273e-6 
          216.2      1.53408e-5 
          219.8      3.07391e-5 
            223      5.59037e-5 
          226.8     0.000111162 
            230     0.000484493 
            234      0.00105603 
            240      0.00264881 
          246.5      0.00680394 
          252.4       0.0154552 
          256.8       0.0271455 
            260       0.0415885 
            264       0.0683827 
          268.5        0.117326 
          273.5        0.209099 
          278.5        0.365202 
            284        0.658212 
            290         1.21799 
            296         2.19289 
            301         3.51552 
            308         6.53669 
            318         15.5633 
            328         34.5729 
            338         73.0316 
            348         147.349 
            357         267.168 
            366         469.857 
            375         801.493 
            385         1406.07 
            395         2389.94 
            405          3948.4 
            414         6065.18 
            422         8729.02 
            430         12370.9 
            441           19557 
            451         29008.4 
            460         40683.6 
            470         58254.1 
            480         81997.5 
            490          113637 
            500          155122 
            506          813150 
            512      2.81314e+6 
            520       3.4605e+6 
            530       4.7285e+6 
            540      5.03494e+6 
            550      6.72857e+6 
            560      7.82506e+6 
            570      9.20094e+6 
            580      9.34667e+6 
            590      1.18095e+7 
            600      1.40217e+7 
            610      1.60442e+7 
            620      1.81436e+7 
            630      2.05649e+7 
            640      2.29321e+7 
            650      2.59208e+7 
            658      2.83441e+7 
            665      3.05268e+7 
            675      3.35863e+7 
            685      3.69596e+7 
            695      4.13819e+7 
            705      4.52924e+7 
            716      5.00005e+7 
            726        5.456e+7 
            735      5.92788e+7 
            745      6.44857e+7 
            755        6.991e+7 
            765      7.54907e+7 
            775      8.15398e+7 
            785       8.7741e+7 
            795      9.40594e+7 
            805      1.00812e+8 
            815      1.07706e+8 
            825      1.14963e+8 
            835       1.2099e+8 
            845      1.29935e+8 
            855       1.3754e+8 
            865      1.45979e+8 
            875      1.54353e+8 
            885         1.63e+8 
            895      1.71743e+8 
            905      1.79247e+8 
            915      2.40196e+8 
            925      1.04337e+9 
            935      2.80565e+9 
            945     1.06603e+10 
            955     1.94659e+10 
            965     2.75088e+10 
            975      9.80041e+9 
            985     3.76219e+10 
            995      3.7847e+10 
           1005     3.90595e+10 
           1015     3.11275e+10 
           1025      6.20803e+9 
           1035     2.68797e+10 
           1045     3.63473e+10 
           1055     3.62471e+10 
           1065     3.42045e+10 
           1075     3.43274e+10 
           1085     3.17023e+10 
           1095      3.3088e+10 
           1105     3.15817e+10 
           1115     3.08753e+10 
           1125     2.93001e+10 
           1135      2.9595e+10 
           1145     2.81973e+10 
           1155      2.8065e+10 
           1165     2.74256e+10 
           1175     2.45724e+10 
           1185     2.57699e+10 
           1195     2.36227e+10 
           1205     1.85378e+10 
           1215      4.58488e+9 
           1225     1.70525e+10 
           1235     2.19503e+10 
           1245     2.20578e+10 
           1255     2.18189e+10 
           1265     2.12231e+10 
           1275     2.10716e+10 
           1285     2.06087e+10 
           1295     1.92765e+10 
           1305      1.9116e+10 
           1315     1.92355e+10 
           1325     1.86087e+10 
           1335     1.79843e+10 
           1345     1.79141e+10 
           1355     1.76147e+10 
           1365     1.71364e+10 
           1375     1.68233e+10 
           1385      1.6486e+10 
           1395     1.57504e+10 
           1405     1.55297e+10 
           1415     1.54129e+10 
           1425     1.51349e+10 
           1435     1.48284e+10 
           1442      1.4644e+10 
           1447     1.44894e+10 
           1455     1.42488e+10 
           1465     1.39531e+10 
           1475     1.36758e+10 
           1485     1.33964e+10 
           1495     1.31325e+10 
           1505     1.27907e+10 
           1512     1.26589e+10 
           1517     1.25484e+10 
           1525     1.23408e+10 
           1535     1.20089e+10 
           1545     1.18008e+10 
           1555     1.15451e+10 
           1565     1.14247e+10 
           1575     1.12298e+10 
           1585     1.10186e+10 
           1595     1.08232e+10 
           1605     1.05656e+10 
           1615     1.03671e+10 
           1625     1.02284e+10 
           1635     1.00471e+10 
           1645       9.7403e+9 
           1655      9.69708e+9 
           1665      9.53461e+9 
           1672      9.38325e+9 
           1677      9.34279e+9 
           1685      9.20758e+9 
           1695      9.03815e+9 
           1705      8.87231e+9 
           1715      8.70395e+9 
           1725      8.55762e+9 
           1735      8.42459e+9 
           1745      8.27858e+9 
           1755      8.14952e+9 
           1765      7.95344e+9 
           1775      7.85451e+9 
           1785      7.73352e+9 
           1795       7.6214e+9 
           1805      7.50007e+9 
           1815      7.36802e+9 
           1825      7.25345e+9 
           1835      7.13456e+9 
           1845      6.98228e+9 
           1855       6.7998e+9 
           1865        6.717e+9 
           1875      6.67984e+9 
           1885      6.52826e+9 
           1895      6.37383e+9 
           1905      6.35183e+9 
           1915      6.19403e+9 
           1925      6.10006e+9 
           1935      6.03737e+9 
           1945      5.97595e+9 
           1955      5.82921e+9 
           1967      5.77924e+9 
           1976      5.71948e+9 
           1984      5.62311e+9 
           1995      5.49416e+9 
           2005      5.46723e+9 
           2015      5.39723e+9 
           2025      5.32421e+9 
           2035      5.23563e+9 
           2045      5.15878e+9 
           2055      5.04331e+9 
           2065       4.9725e+9 
           2074      4.94739e+9 
           2078      4.87113e+9 
           2085      4.86083e+9 
           2095      4.77789e+9 
           2105      4.73447e+9 
           2115      4.67481e+9 
           2125      4.61373e+9 
           2135      4.54789e+9 
           2145      4.48159e+9 
           2155      4.42241e+9 
           2165       4.3622e+9 
           2175      4.30116e+9 
           2185      4.24357e+9 
           2195      4.18646e+9 
           2205      4.12928e+9 
           2215      4.07365e+9 
           2225      4.01817e+9 
           2235      3.96404e+9 
           2245      3.91206e+9 
           2255      3.85936e+9 
           2265      3.80921e+9 
           2275      3.75876e+9 
           2285      3.70977e+9 
           2295      3.64361e+9 
           2305      3.61298e+9 
           2315      3.56567e+9 
           2325      3.51987e+9 
           2335      3.47327e+9 
           2345      3.42857e+9 
           2355      3.38627e+9 
           2365      3.34247e+9 
           2375      3.30002e+9 
           2385      3.25751e+9 
           2395      3.21677e+9 
           2405      3.17665e+9 
           2415      3.13632e+9 
           2425      3.09853e+9 
           2435       3.0594e+9 
           2445      3.02164e+9 
           2455      2.98488e+9 
           2465      2.94788e+9 
           2475      2.91187e+9 
           2485      2.87622e+9 
           2495      2.81732e+9 
           2505       2.8064e+9 
           2513      2.77502e+9 
           2518      2.76216e+9 
           2525      2.73919e+9 
           2535      2.70637e+9 
           2545      2.67077e+9 
           2555      2.64217e+9 
           2565      2.61079e+9 
           2575      2.58072e+9 
           2585      2.55048e+9 
           2595      2.52051e+9 
           2605      2.50958e+9 
           2615       2.4805e+9 
           2625      2.45153e+9 
           2635      2.42118e+9 
           2645      2.39241e+9 
           2655      2.36159e+9 
           2665      2.32873e+9 
           2675      2.29698e+9 
           2685      2.28722e+9 
           2695      2.24102e+9 
           2705      2.23535e+9 
           2715      2.20997e+9 
           2725      2.16328e+9 
           2735      2.16034e+9 
           2745      2.13523e+9 
           2755      2.11161e+9 
           2765       2.0671e+9 
           2775      2.06563e+9 
           2785      2.04261e+9 
           2795      2.00676e+9 
           2805      1.99358e+9 
           2815      1.97597e+9 
           2825      1.92806e+9 
           2835      1.91645e+9 
           2845      1.91199e+9 
           2855      1.89127e+9 
           2865      1.87084e+9 
           2875      1.85069e+9 
           2885      1.83082e+9 
           2895      1.81123e+9 
           2910      1.78228e+9 
           2930      1.74443e+9 
           2950      1.69177e+9 
           2970      1.67243e+9 
           2990      1.63762e+9 
           3010      1.60395e+9 
           3030      1.57115e+9 
           3050      1.53911e+9 
           3070      1.50793e+9 
           3090      1.47719e+9 
           3110      1.44793e+9 
           3130      1.42064e+9 
           3150      1.39245e+9 
           3170      1.36485e+9 
           3190      1.32369e+9 
           3210       1.3113e+9 
           3230      1.28551e+9 
           3250      1.26039e+9 
           3270       1.2378e+9 
           3290      1.21225e+9 
           3310      1.19114e+9 
           3330      1.16866e+9 
           3350      1.14437e+9 
           3370      1.12529e+9 
           3390      1.10438e+9 
           3410      1.08395e+9 
           3430      1.05933e+9 
           3450      1.03591e+9 
           3470      1.02025e+9 
           3490      1.00179e+9 
           3510      9.85054e+8 
           3530      9.68572e+8 
           3550       9.5204e+8 
           3570      9.41787e+8 
           3590      9.17233e+8 
           3610      9.05364e+8 
           3630      8.85665e+8 
           3640      8.85696e+8 
           3650      8.76382e+8 
           3670      8.65318e+8 
           3690      8.50706e+8 
           3710      8.22509e+8 
           3730      7.90994e+8 
           3750      7.87803e+8 
           3770      7.70137e+8 
           3790      8.11835e+8 
           3810      8.53008e+8 
           3830      7.33278e+8 
           3850      8.89841e+8 
           3870      9.17996e+8 
           3890      6.86235e+8 
           3910       9.0653e+8 
           3930      9.11937e+8 
           3950      8.80247e+8 
           3970      6.39232e+8 
           3990      8.38833e+8 
           4010      8.52111e+8 
           4030      7.86286e+8 
           4050        8.386e+8 
           4070      8.16824e+8 
           4090      7.15304e+8 
           4110      6.12148e+8 
           4130      7.60244e+8 
           4150      7.60962e+8 
           4170      7.58078e+8 
           4190      7.49206e+8 
           4210      7.36833e+8 
           4230      7.24471e+8 
           4250      7.12287e+8 
           4270      6.98564e+8 
           4290      6.85372e+8 
           4310       6.6554e+8 
           4330      5.72743e+8 
           4350      5.17755e+8 
           4370      6.29576e+8 
           4390      6.04461e+8 
           4410      6.22294e+8 
           4430      6.10679e+8 
           4450      6.03357e+8 
           4470      5.53586e+8 
           4490      5.83517e+8 
           4510      5.76538e+8 
           4530      5.67474e+8 
           4550      5.58548e+8 
           4570      5.49827e+8 
           4590      5.41345e+8 
           4610      5.33006e+8 
           4630      5.24809e+8 
           4650      5.16541e+8 
           4670      5.08844e+8 
           4690      5.01019e+8 
           4710      4.85344e+8 
           4730      4.86064e+8 
           4750      4.78691e+8 
           4770      4.71655e+8 
           4790      4.63422e+8 
           4810      4.55066e+8 
           4830      4.42617e+8 
           4850      3.90959e+8 
           4870      3.45169e+8 
           4890      4.19518e+8 
           4910      4.20748e+8 
           4930      4.02368e+8 
           4950      4.12377e+8 
           4970      4.06929e+8 
           4990      4.01087e+8 
           5010      3.88825e+8 
           5030      3.89626e+8 
           5050      3.81168e+8 
           5070      3.78753e+8 
           5090      3.73413e+8 
           5110      3.68173e+8 
           5130      3.63017e+8 
           5150      3.57959e+8 
           5170      3.52982e+8 
           5190      3.48099e+8 
           5210      3.43266e+8 
           5230      3.38566e+8 
           5250      3.33927e+8 
           5270      3.29377e+8 
           5290      3.24885e+8 
           5310      3.20491e+8 
           5330      3.16155e+8 
           5350        3.119e+8 
           5370      3.07713e+8 
           5390      3.03605e+8 
           5410      2.99562e+8 
           5430      2.95571e+8 
           5450      2.91668e+8 
           5470      2.87827e+8 
           5490      2.84046e+8 
           5510      2.80325e+8 
           5530      2.76663e+8 
           5550      2.73058e+8 
           5570      2.69522e+8 
           5590      2.66041e+8 
           5610      2.62604e+8 
           5630      2.59244e+8 
           5650      2.55913e+8 
           5670      2.52646e+8 
           5690       2.4943e+8 
           5710      2.46288e+8 
           5730      2.43172e+8 
           5750      2.40104e+8 
           5770      2.37096e+8 
           5790      2.34135e+8 
           5810      2.31209e+8 
           5830      2.28339e+8 
           5850      2.25515e+8 
           5870      2.13539e+8 
           5890      2.19118e+8 
           5910      2.17281e+8 
           5930      2.14629e+8 
           5950      2.12007e+8 
           5970      2.09426e+8 
           5990      2.06886e+8 
           6010      2.04395e+8 
           6030      2.01922e+8 
           6050      1.99499e+8 
           6070      1.97112e+8 
           6090      1.94764e+8 
           6110      1.92441e+8 
           6130      1.90165e+8 
           6150      1.87914e+8 
           6170      1.85698e+8 
           6190      1.83517e+8 
           6210       1.8137e+8 
           6230      1.79246e+8 
           6250      1.77156e+8 
           6270      1.75098e+8 
           6290      1.73072e+8 
           6310      1.71078e+8 
           6330      1.69105e+8 
           6350      1.67154e+8 
           6370      1.65243e+8 
           6390       1.6337e+8 
           6410      1.61509e+8 
           6430      1.59676e+8 
           6450      1.57873e+8 
           6470      1.56088e+8 
           6490      1.54126e+8 
           6510      1.51971e+8 
           6530      1.49072e+8 
           6550      1.38899e+8 
           6570      1.21873e+8 
           6590      1.42405e+8 
           6610      1.43399e+8 
           6630      1.42329e+8 
           6650      1.41168e+8 
           6670      1.37596e+8 
           6690       1.3616e+8 
           6710      1.36663e+8 
           6730      1.35178e+8 
           6750      1.33717e+8 
           6770       1.3227e+8 
           6790      1.30839e+8 
           6810      1.29438e+8 
           6830      1.28051e+8 
           6850      1.26678e+8 
           6870      1.25327e+8 
           6890      1.23989e+8 
           6910      1.22681e+8 
           6930      1.21377e+8 
           6950      1.20095e+8 
           6970      1.18833e+8 
           6990      1.17583e+8 
           7010      1.16353e+8 
           7030      1.15144e+8 
           7050      1.13938e+8 
           7070      1.10611e+8 
           7090      1.11592e+8 
           7110      1.10436e+8 
           7130      1.09298e+8 
           7150      1.08179e+8 
           7170      1.07056e+8 
           7190      1.05973e+8 
           7210      1.04893e+8 
           7230      1.03795e+8 
           7250      1.02771e+8 
           7270      1.01729e+8 
           7290       9.9754e+7 
           7310      9.96813e+7 
           7330      9.86893e+7 
           7350      9.77066e+7 
           7370      9.67262e+7 
           7390      9.57619e+7 
           7410      9.48134e+7 
           7430      9.38737e+7 
           7450      9.29563e+7 
           7470      9.20407e+7 
           7490      9.11334e+7 
           7510      9.02078e+7 
           7530      8.93572e+7 
           7550      8.84879e+7 
           7570      8.76265e+7 
           7590      8.67729e+7 
           7610      8.59336e+7 
           7630      8.51019e+7 
           7650      8.42777e+7 
           7670      8.34673e+7 
           7690      8.26706e+7 
           7710      8.18747e+7 
           7730      8.10922e+7 
           7750      8.03229e+7 
           7770      7.95543e+7 
           7790      7.88049e+7 
           7810      7.80127e+7 
           7830      7.73197e+7 
           7850      7.66817e+7 
           7870      7.59518e+7 
           7890      7.51981e+7 
           7910      7.45474e+7 
           7930      7.38483e+7 
           7950      7.31553e+7 
           7970      7.23676e+7 
           7990      7.16871e+7 
           8010      7.09831e+7 
           8030      7.03203e+7 
           8050      6.96632e+7 
           8070      6.90349e+7 
           8090      6.83371e+7 
           8110      6.77541e+7 
           8130      6.71989e+7 
           8150      6.65405e+7 
           8170      6.59894e+7 
           8190      6.53305e+7 
           8210      6.46996e+7 
           8230      6.42743e+7 
           8250       6.3714e+7 
           8270      6.28664e+7 
           8290      6.25579e+7 
           8310      6.20389e+7 
           8330      6.14482e+7 
           8350      6.06139e+7 
           8370      6.02815e+7 
           8390      5.98446e+7 
           8410      5.93206e+7 
           8430      5.87585e+7 
           8450       5.7837e+7 
           8470      5.77375e+7 
           8490      5.70895e+7 
           8510       5.6681e+7 
           8530      5.60634e+7 
           8550       5.5451e+7 
           8570      5.53926e+7 
