# Kurucz ODFNEW /NOVER (2003)
# teff = 10000 K (value for the effective temperature for the model. Temperatures are given in K)
# logg = 2.5 log(cm/s2) (value for Log(G) for the model.)
# meta = -0.5  (value for the Metallicity for the model.)
# lh = 1.25  (l/Hp where l is the  mixing length of the convective element and Hp is the pressure scale height)
# vtur = 2 km/s (Microturbulence velocity)
# alpha = 0.4  (Alpha)
#
# column 1: WAVELENGTH (ANGSTROM), Wavelength in Angstrom
# column 2: FLUX (ERG/CM2/S/A), Flux in erg/cm2/s/A
          273.5     2.38904e-23 
          278.5     1.29277e-22 
            284     5.97351e-22 
            290     2.86086e-21 
            296     1.27936e-20 
            301      4.2787e-20 
            308     2.17371e-19 
            318     1.96423e-18 
            328     1.55848e-17 
            338     1.09536e-16 
            348      6.9044e-16 
            357      3.3328e-15 
            366     1.48309e-14 
            375     6.13403e-14 
            385     2.75205e-13 
            395     1.14206e-12 
            405     4.42199e-12 
            414     1.41308e-11 
            422     3.80338e-11 
            430     9.83959e-11 
            441     3.45153e-10 
            451      1.02072e-9 
            460      2.59936e-9 
            470      7.03422e-9 
            480       1.8238e-8 
            490      4.54476e-8 
            500      1.08983e-7 
            506      3.01429e-7 
            512      5.73306e-7 
            520      1.06251e-6 
            530      2.25448e-6 
            540      4.57359e-6 
            550      9.22171e-6 
            560      1.79367e-5 
            570      3.40773e-5 
            580      6.25277e-5 
            590     0.000114815 
            600     0.000204323 
            610     0.000356997 
            620     0.000611323 
            630      0.00102891 
            640      0.00170016 
            650      0.00277193 
            658      0.00404909 
            665      0.00559346 
            675      0.00877278 
            685        0.013575 
            695       0.0207339 
            705       0.0312306 
            716       0.0483985 
            726       0.0711723 
            735        0.099722 
            745        0.143612 
            755         0.20472 
            765        0.288876 
            775        0.404048 
            785        0.559856 
            795        0.767496 
            805         1.04626 
            815         1.41384 
            825         1.89465 
            835         2.51306 
            845         3.32708 
            855          4.3612 
            865         5.67945 
            875         7.33949 
            885         9.44295 
            895          12.063 
            905          15.284 
            915         542.624 
            925         3991.69 
            935         6578.57 
            945         11886.3 
            955         31405.2 
            965         45694.2 
            975         20266.2 
            985          156357 
            995          223741 
           1005          227226 
           1015         99800.5 
           1025           32321 
           1035         94264.6 
           1045          408908 
           1055          647872 
           1065          669874 
           1075          907508 
           1085          984142 
           1095      1.07666e+6 
           1105      6.12659e+6 
           1115      2.55157e+7 
           1125      3.14004e+7 
           1135      3.64527e+7 
           1145       3.3247e+7 
           1155      3.50459e+7 
           1165      3.57764e+7 
           1175       2.7819e+7 
           1185      2.08729e+7 
           1195          204987 
           1205          190870 
           1215         44312.6 
           1225          193400 
           1235      1.00425e+6 
           1245      2.11373e+7 
           1255      4.29728e+7 
           1265      2.77281e+7 
           1275      7.20169e+7 
           1285      9.88512e+7 
           1295      7.92131e+7 
           1305      3.30402e+7 
           1315      9.10699e+7 
           1325      1.11009e+8 
           1335      9.60031e+7 
           1345      1.27022e+8 
           1355      1.20402e+8 
           1365      1.01407e+8 
           1375      1.14741e+8 
           1385      1.19406e+8 
           1395      1.22743e+8 
           1405      1.23644e+8 
           1415      1.13879e+8 
           1425      1.23262e+8 
           1435      1.14031e+8 
           1442      1.26011e+8 
           1447      1.38107e+8 
           1455      1.37498e+8 
           1465      1.27113e+8 
           1475      1.19047e+8 
           1485         1.27e+8 
           1495      1.35254e+8 
           1505      1.35676e+8 
           1512      1.26762e+8 
           1517      1.35486e+8 
           1525      1.21341e+8 
           1535      1.12349e+8 
           1545      1.37982e+8 
           1555      1.22104e+8 
           1565      1.14194e+8 
           1575      1.20991e+8 
           1585      1.32946e+8 
           1595      1.40712e+8 
           1605       1.3105e+8 
           1615      1.30974e+8 
           1625      1.19642e+8 
           1635      1.24925e+8 
           1645      1.29199e+8 
           1655      1.13696e+8 
           1665       1.2681e+8 
           1672      9.24539e+7 
           1677      1.20965e+8 
           1685      1.33205e+8 
           1695       1.2504e+8 
           1705      1.17467e+8 
           1715       1.1556e+8 
           1725      1.14738e+8 
           1735       1.2069e+8 
           1745      1.18949e+8 
           1755      1.30032e+8 
           1765       1.1311e+8 
           1775      1.24117e+8 
           1785      1.22884e+8 
           1795      1.33608e+8 
           1805      1.27264e+8 
           1815       1.2622e+8 
           1825       1.2173e+8 
           1835      1.17554e+8 
           1845      1.09673e+8 
           1855      1.13018e+8 
           1865      1.12936e+8 
           1875      1.20682e+8 
           1885      1.18811e+8 
           1895      1.15169e+8 
           1905      1.11118e+8 
           1915      1.14738e+8 
           1925      1.15714e+8 
           1935       1.1589e+8 
           1945      1.19043e+8 
           1955      1.16754e+8 
           1967      1.21078e+8 
           1976      1.20567e+8 
           1984      1.16447e+8 
           1995      1.12829e+8 
           2005      1.13908e+8 
           2015      1.06666e+8 
           2025      1.10411e+8 
           2035      1.09747e+8 
           2045      1.12757e+8 
           2055      1.05489e+8 
           2065      1.06201e+8 
           2074      1.10685e+8 
           2078      1.12659e+8 
           2085      1.12285e+8 
           2095      1.08366e+8 
           2105       1.0654e+8 
           2115      1.05796e+8 
           2125      1.06754e+8 
           2135      9.27644e+7 
           2145      1.02169e+8 
           2155      1.03754e+8 
           2165      9.93017e+7 
           2175      9.76898e+7 
           2185      9.66399e+7 
           2195      1.02408e+8 
           2205        9.818e+7 
           2215      9.03387e+7 
           2225      8.77326e+7 
           2235      9.70402e+7 
           2245      8.79405e+7 
           2255      8.64732e+7 
           2265      8.77602e+7 
           2275        9.301e+7 
           2285      9.52786e+7 
           2295      9.00513e+7 
           2305      8.74919e+7 
           2315      8.44319e+7 
           2325      8.45365e+7 
           2335      7.91362e+7 
           2345      7.41329e+7 
           2355      8.29195e+7 
           2365      7.44538e+7 
           2375      7.88039e+7 
           2385      6.95611e+7 
           2395      7.65475e+7 
           2405      7.25449e+7 
           2415      7.47358e+7 
           2425      7.91432e+7 
           2435      7.55718e+7 
           2445      8.08093e+7 
           2455      7.74645e+7 
           2465      7.75131e+7 
           2475      7.43111e+7 
           2485       7.9211e+7 
           2495      7.66104e+7 
           2505       8.2664e+7 
           2513      7.54214e+7 
           2518      7.70176e+7 
           2525      7.18936e+7 
           2535      7.13158e+7 
           2545      7.15824e+7 
           2555      7.52013e+7 
           2565      7.43871e+7 
           2575      7.91966e+7 
           2585      7.86302e+7 
           2595      7.74043e+7 
           2605      7.40243e+7 
           2615      7.37072e+7 
           2625      7.68699e+7 
           2635      7.72588e+7 
           2645      8.41607e+7 
           2655       8.2753e+7 
           2665      7.68075e+7 
           2675      7.99039e+7 
           2685      7.92105e+7 
           2695      7.63986e+7 
           2705      7.81156e+7 
           2715      7.46894e+7 
           2725      7.53395e+7 
           2735      8.03497e+7 
           2745       6.9821e+7 
           2755      6.98114e+7 
           2765      7.18549e+7 
           2775      7.62448e+7 
           2785      7.48191e+7 
           2795      5.58534e+7 
           2805      6.30833e+7 
           2815      7.68033e+7 
           2825      7.72896e+7 
           2835       7.4486e+7 
           2845      7.20271e+7 
           2855      7.05158e+7 
           2865      7.38476e+7 
           2875      7.19127e+7 
           2885      7.34836e+7 
           2895      7.12147e+7 
           2910      7.68754e+7 
           2930      7.38811e+7 
           2950      7.38221e+7 
           2970      7.43388e+7 
           2990      7.43168e+7 
           3010      7.54282e+7 
           3030      7.45424e+7 
           3050      7.33413e+7 
           3070      7.19931e+7 
           3090      7.28475e+7 
           3110      7.10411e+7 
           3130      7.05245e+7 
           3150      7.08733e+7 
           3170      7.01393e+7 
           3190      6.80224e+7 
           3210      6.88811e+7 
           3230      6.74819e+7 
           3250      6.76918e+7 
           3270       6.7578e+7 
           3290      6.77752e+7 
           3310      6.76841e+7 
           3330      6.62349e+7 
           3350      6.51644e+7 
           3370      6.51893e+7 
           3390      6.44716e+7 
           3410      6.51884e+7 
           3430      6.48147e+7 
           3450      6.43312e+7 
           3470      6.34604e+7 
           3490      6.30506e+7 
           3510      6.31108e+7 
           3530      6.30417e+7 
           3550       6.2728e+7 
           3570       6.1968e+7 
           3590      6.15074e+7 
           3610      6.11487e+7 
           3630      6.06082e+7 
           3640      6.03553e+7 
           3650      6.15831e+7 
           3670      6.03907e+7 
           3690      5.96299e+7 
           3710      7.19678e+7 
           3730      8.78834e+7 
           3750       1.2368e+8 
           3770      1.25181e+8 
           3790        1.417e+8 
           3810       1.5517e+8 
           3830        1.278e+8 
           3850      1.59371e+8 
           3870      1.65111e+8 
           3890      1.19384e+8 
           3910      1.60609e+8 
           3930      1.58166e+8 
           3950      1.58568e+8 
           3970      1.12044e+8 
           3990       1.5372e+8 
           4010      1.53507e+8 
           4030      1.50667e+8 
           4050      1.50079e+8 
           4070      1.46849e+8 
           4090      1.35798e+8 
           4110      1.09764e+8 
           4130      1.39607e+8 
           4150      1.40387e+8 
           4170      1.37614e+8 
           4190      1.36496e+8 
           4210      1.35138e+8 
           4230      1.32845e+8 
           4250      1.30982e+8 
           4270      1.29252e+8 
           4290      1.27454e+8 
           4310      1.24091e+8 
           4330       1.1142e+8 
           4350      9.66227e+7 
           4370      1.20778e+8 
           4390      1.18189e+8 
           4410      1.17818e+8 
           4430      1.16582e+8 
           4450      1.15219e+8 
           4470      1.13378e+8 
           4490      1.10983e+8 
           4510      1.10447e+8 
           4530      1.08854e+8 
           4550      1.06552e+8 
           4570      1.06563e+8 
           4590      1.04675e+8 
           4610      1.04768e+8 
           4630      1.02199e+8 
           4650      1.02132e+8 
           4670       1.0067e+8 
           4690      9.95427e+7 
           4710      9.74849e+7 
           4730      9.71236e+7 
           4750      9.59218e+7 
           4770      9.49254e+7 
           4790      9.37485e+7 
           4810      9.23354e+7 
           4830      9.07584e+7 
           4850      8.20629e+7 
           4870      6.84031e+7 
           4890      8.73728e+7 
           4910      8.69468e+7 
           4930      8.54817e+7 
           4950      8.50737e+7 
           4970      8.41723e+7 
           4990       8.3042e+7 
           5010      8.11661e+7 
           5030      8.08361e+7 
           5050      7.92546e+7 
           5070      7.91597e+7 
           5090      7.82654e+7 
           5110      7.72428e+7 
           5130      7.64713e+7 
           5150      7.54183e+7 
           5170      7.39973e+7 
           5190      7.32841e+7 
           5210      7.28072e+7 
           5230      7.16275e+7 
           5250      7.13015e+7 
           5270      6.99027e+7 
           5290      6.97803e+7 
           5310      6.85208e+7 
           5330      6.80009e+7 
           5350      6.75158e+7 
           5370      6.67303e+7 
           5390       6.5991e+7 
           5410      6.51435e+7 
           5430      6.44103e+7 
           5450      6.38598e+7 
           5470      6.30814e+7 
           5490      6.24664e+7 
           5510      6.17407e+7 
           5530      6.10892e+7 
           5550      6.04944e+7 
           5570      5.98228e+7 
           5590       5.9205e+7 
           5610      5.86004e+7 
           5630      5.79768e+7 
           5650       5.7239e+7 
           5670      5.66637e+7 
           5690      5.61287e+7 
           5710      5.55479e+7 
           5730      5.49657e+7 
           5750      5.43755e+7 
           5770      5.38102e+7 
           5790      5.32076e+7 
           5810        5.266e+7 
           5830      5.21154e+7 
           5850      5.15868e+7 
           5870      5.08718e+7 
           5890      5.04248e+7 
           5910      4.99849e+7 
           5930      4.94897e+7 
           5950      4.88383e+7 
           5970      4.84504e+7 
           5990      4.78313e+7 
           6010      4.74811e+7 
           6030      4.70092e+7 
           6050      4.65075e+7 
           6070      4.60491e+7 
           6090      4.55867e+7 
           6110      4.51343e+7 
           6130      4.46749e+7 
           6150      4.39067e+7 
           6170      4.37828e+7 
           6190      4.33607e+7 
           6210      4.29305e+7 
           6230      4.24864e+7 
           6250      4.18918e+7 
           6270       4.1671e+7 
           6290      4.12598e+7 
           6310      4.08113e+7 
           6330      4.04495e+7 
           6350      3.96924e+7 
           6370      3.94194e+7 
           6390      3.92699e+7 
           6410      3.88648e+7 
           6430      3.85204e+7 
           6450      3.79958e+7 
           6470      3.77954e+7 
           6490      3.73741e+7 
           6510      3.69519e+7 
           6530      3.64361e+7 
           6550      3.40433e+7 
           6570      2.79993e+7 
           6590      3.51372e+7 
           6610      3.52103e+7 
           6630      3.49793e+7 
           6650      3.46858e+7 
           6670      3.43316e+7 
           6690      3.40172e+7 
           6710      3.37243e+7 
           6730      3.33778e+7 
           6750       3.3096e+7 
           6770      3.27971e+7 
           6790      3.24849e+7 
           6810      3.21904e+7 
           6830      3.18778e+7 
           6850      3.15964e+7 
           6870      3.13097e+7 
           6890       3.1029e+7 
           6910      3.07408e+7 
           6930      3.04522e+7 
           6950      3.01883e+7 
           6970      2.99152e+7 
           6990      2.96518e+7 
           7010      2.93341e+7 
           7030      2.91194e+7 
           7050      2.88362e+7 
           7070      2.85805e+7 
           7090      2.83491e+7 
           7110      2.80683e+7 
           7130       2.7837e+7 
           7150      2.75813e+7 
           7170      2.73514e+7 
           7190      2.71113e+7 
           7210      2.68755e+7 
           7230      2.66262e+7 
           7250       2.6387e+7 
           7270      2.61743e+7 
           7290       2.5938e+7 
           7310      2.57082e+7 
           7330      2.54958e+7 
           7350      2.52806e+7 
           7370      2.50652e+7 
           7390      2.48469e+7 
           7410      2.46279e+7 
           7430      2.43788e+7 
           7450      2.41931e+7 
           7470      2.39672e+7 
           7490      2.37863e+7 
           7510      2.35796e+7 
           7530         2.34e+7 
           7550      2.32035e+7 
           7570      2.30048e+7 
           7590      2.28099e+7 
           7610      2.26244e+7 
           7630      2.24315e+7 
           7650      2.22372e+7 
           7670       2.2056e+7 
           7690       2.1872e+7 
           7710      2.16814e+7 
           7730      2.15132e+7 
           7750      2.13352e+7 
           7770      2.07968e+7 
           7790      2.09844e+7 
           7810      2.08147e+7 
           7830      2.06415e+7 
           7850      2.04466e+7 
           7870      2.02291e+7 
           7890      2.00238e+7 
           7910      1.99732e+7 
           7930      1.98139e+7 
           7950      1.95903e+7 
           7970      1.94975e+7 
           7990      1.91734e+7 
           8010       1.9184e+7 
           8030      1.90302e+7 
           8050      1.88759e+7 
           8070      1.87257e+7 
           8090      1.85768e+7 
           8110      1.84235e+7 
           8130      1.82828e+7 
           8150      1.81381e+7 
           8170      1.79958e+7 
           8190      1.78277e+7 
           8210      1.77421e+7 
           8230      1.75787e+7 
           8250       1.7519e+7 
           8270      1.74338e+7 
           8290      1.72846e+7 
           8310      1.71556e+7 
           8330      1.69669e+7 
           8350      1.68198e+7 
           8370      1.65594e+7 
           8390      1.64099e+7 
           8410      1.62073e+7 
           8430      1.63335e+7 
           8450      1.60996e+7 
           8470      1.54765e+7 
           8490      1.67192e+7 
           8510      1.51461e+7 
           8530      1.69138e+7 
           8550      1.45956e+7 
           8570      1.71246e+7 
           8590      1.58568e+7 
           8610      1.53686e+7 
           8630      1.73703e+7 
           8650      1.69593e+7 
           8670      1.38455e+7 
           8690      1.71672e+7 
           8710      1.73805e+7 
           8730      1.69796e+7 
           8750       1.3503e+7 
           8770      1.63426e+7 
           8790      1.68856e+7 
           8810      1.67867e+7 
           8830      1.65566e+7 
           8850      1.55853e+7 
           8870      1.30922e+7 
           8890      1.60607e+7 
           8910      1.61088e+7 
           8930      1.60008e+7 
           8950       1.5959e+7 
           8970      1.57994e+7 
           8990      1.55101e+7 
           9010      1.28454e+7 
           9030      1.41131e+7 
           9050      1.52412e+7 
           9070      1.51338e+7 
           9090      1.50112e+7 
           9110      1.49862e+7 
           9130       1.4889e+7 
           9150      1.48032e+7 
           9170      1.46635e+7 
           9190      1.44721e+7 
