# Kurucz ODFNEW /NOVER (2003)
# teff = 30000 K (value for the effective temperature for the model. Temperatures are given in K)
# logg = 4.5 log(cm/s2) (value for Log(G) for the model.)
# meta = 0.5  (value for the Metallicity for the model.)
# lh = 1.25  (l/Hp where l is the  mixing length of the convective element and Hp is the pressure scale height)
# vtur = 2 km/s (Microturbulence velocity)
# alpha = 0  (Alpha)
#
# column 1: WAVELENGTH (ANGSTROM), Wavelength in Angstrom
# column 2: FLUX (ERG/CM2/S/A), Flux in erg/cm2/s/A
          147.2      7.31244e-9 
            151      2.27449e-8 
          155.2      7.49907e-8 
          158.8      1.98916e-7 
            162      4.57748e-7 
            166      1.24313e-6 
          170.3      3.45098e-6 
          173.4      7.03954e-6 
          176.8      1.48917e-5 
          180.2      3.06597e-5 
          181.7      4.17833e-5 
          186.1     0.000101056 
            191     0.000258406 
          193.9     0.000440485 
          198.4     0.000978131 
          201.8      0.00174621 
            205      0.00296157 
          210.5      0.00709252 
          216.2       0.0167118 
          219.8       0.0281346 
            223       0.0440622 
          226.8       0.0770769 
            230         5.41095 
            234         11.3357 
            240         21.1374 
          246.5         41.4654 
          252.4          74.866 
          256.8         111.271 
            260         179.303 
            264         270.336 
          268.5         415.779 
          273.5         628.233 
          278.5         909.593 
            284         1829.89 
            290         2849.75 
            296         4248.78 
            301         5945.69 
            308         11796.2 
            318         24641.8 
            328         41341.3 
            338         75577.4 
            348          127045 
            357          500645 
            366      1.14414e+6 
            375      1.49438e+6 
            385      2.35126e+6 
            395      5.63362e+6 
            405      7.34579e+6 
            414      1.10474e+7 
            422      1.37023e+7 
            430      1.78882e+7 
            441      2.36191e+7 
            451      2.74859e+7 
            460      3.15306e+7 
            470      4.09508e+7 
            480      5.12362e+7 
            490       6.1907e+7 
            500      7.41072e+7 
            506      1.52642e+8 
            512       1.3483e+9 
            520      1.30332e+9 
            530      1.23375e+9 
            540      1.18194e+9 
            550      1.62647e+9 
            560      2.00594e+9 
            570      2.11404e+9 
            580      1.93124e+9 
            590      2.20302e+9 
            600      1.90353e+9 
            610      2.35656e+9 
            620      2.68042e+9 
            630       2.5999e+9 
            640      2.31758e+9 
            650      2.10362e+9 
            658      2.17286e+9 
            665       2.6465e+9 
            675      2.91619e+9 
            685      2.44275e+9 
            695      3.57211e+9 
            705      2.99724e+9 
            716      3.92877e+9 
            726      3.80084e+9 
            735      3.85819e+9 
            745      4.03849e+9 
            755      4.09764e+9 
            765      4.27427e+9 
            775      4.49102e+9 
            785      4.72274e+9 
            795      4.71948e+9 
            805      4.59272e+9 
            815      4.55229e+9 
            825      4.94175e+9 
            835      3.81649e+9 
            845      4.70236e+9 
            855       4.6182e+9 
            865      4.84289e+9 
            875      4.98156e+9 
            885      5.22652e+9 
            895      5.32343e+9 
            905       5.1195e+9 
            915      5.76327e+9 
            925     2.24719e+10 
            935      4.0638e+10 
            945     6.04902e+10 
            955     6.78384e+10 
            965     7.75608e+10 
            975     1.81001e+10 
            985     5.66633e+10 
            995     5.41411e+10 
           1005     6.07265e+10 
           1015      6.5372e+10 
           1025     4.52129e+10 
           1035     5.84881e+10 
           1045     7.67689e+10 
           1055     7.03145e+10 
           1065     5.57177e+10 
           1075     6.16329e+10 
           1085     5.59002e+10 
           1095     6.08284e+10 
           1105     5.69433e+10 
           1115     5.57901e+10 
           1125     4.06816e+10 
           1135      5.3657e+10 
           1145     5.07612e+10 
           1155     4.90473e+10 
           1165     4.72291e+10 
           1175     2.53877e+10 
           1185     4.26301e+10 
           1195     4.15503e+10 
           1205     3.60611e+10 
           1215     2.82096e+10 
           1225     3.85711e+10 
           1235     4.26395e+10 
           1245     4.02705e+10 
           1255     4.00355e+10 
           1265     4.17263e+10 
           1275     4.35216e+10 
           1285     4.37663e+10 
           1295     3.61538e+10 
           1305      3.7783e+10 
           1315     4.31102e+10 
           1325     4.05993e+10 
           1335     3.92853e+10 
           1345     3.90614e+10 
           1355     3.84973e+10 
           1365     3.60084e+10 
           1375     3.43727e+10 
           1385     3.25505e+10 
           1395     2.16994e+10 
           1405     2.38192e+10 
           1415     2.96589e+10 
           1425     2.73685e+10 
           1435      2.9449e+10 
           1442     2.95696e+10 
           1447     2.92793e+10 
           1455     2.77036e+10 
           1465     2.57381e+10 
           1475     2.66959e+10 
           1485     2.64726e+10 
           1495      2.5592e+10 
           1505     2.33071e+10 
           1512     2.16383e+10 
           1517     2.21966e+10 
           1525     2.20907e+10 
           1535     1.81376e+10 
           1545     1.59939e+10 
           1555     1.58698e+10 
           1565     1.81026e+10 
           1575     1.94574e+10 
           1585     1.97285e+10 
           1595     1.94923e+10 
           1605     1.93759e+10 
           1615     1.83466e+10 
           1625     1.86251e+10 
           1635     1.94719e+10 
           1645     1.97231e+10 
           1655      1.9436e+10 
           1665     1.94573e+10 
           1672     1.78394e+10 
           1677     2.13393e+10 
           1685     1.99894e+10 
           1695     1.89097e+10 
           1705     1.86691e+10 
           1715     1.74901e+10 
           1725     1.67537e+10 
           1735     1.75297e+10 
           1745     1.73628e+10 
           1755     1.72854e+10 
           1765     1.71578e+10 
           1775     1.59917e+10 
           1785     1.64621e+10 
           1795     1.64488e+10 
           1805     1.64879e+10 
           1815     1.51699e+10 
           1825     1.53842e+10 
           1835     1.51185e+10 
           1845     1.38041e+10 
           1855     1.43706e+10 
           1865     1.44985e+10 
           1875     1.45243e+10 
           1885      1.3146e+10 
           1895     1.24359e+10 
           1905     1.32732e+10 
           1915     1.26079e+10 
           1925     1.16863e+10 
           1935     1.27139e+10 
           1945     1.30874e+10 
           1955     1.14605e+10 
           1967     1.24788e+10 
           1976     1.30881e+10 
           1984      1.2152e+10 
           1995     1.19701e+10 
           2005     1.23795e+10 
           2015     1.22941e+10 
           2025     1.24945e+10 
           2035     1.14586e+10 
           2045      1.1554e+10 
           2055     1.01796e+10 
           2065      9.98934e+9 
           2074     1.04739e+10 
           2078      9.76092e+9 
           2085     1.02943e+10 
           2095     1.01705e+10 
           2105     1.07968e+10 
           2115     1.08693e+10 
           2125     1.08398e+10 
           2135     1.06277e+10 
           2145     1.01883e+10 
           2155     1.05076e+10 
           2165     1.02267e+10 
           2175     1.02436e+10 
           2185      9.91492e+9 
           2195     1.00945e+10 
           2205     1.00179e+10 
           2215      9.75029e+9 
           2225       9.5974e+9 
           2235      9.39104e+9 
           2245      9.38231e+9 
           2255      9.07776e+9 
           2265      9.15273e+9 
           2275      9.02877e+9 
           2285      8.85106e+9 
           2295      7.60322e+9 
           2305      8.46485e+9 
           2315      8.31736e+9 
           2325      8.28221e+9 
           2335      8.10432e+9 
           2345      8.14291e+9 
           2355      7.97676e+9 
           2365      7.87443e+9 
           2375      7.64062e+9 
           2385      7.48528e+9 
           2395      7.43078e+9 
           2405      7.37693e+9 
           2415      7.28173e+9 
           2425      7.25191e+9 
           2435       7.0584e+9 
           2445      7.03608e+9 
           2455      6.98762e+9 
           2465      6.87958e+9 
           2475       6.7583e+9 
           2485      6.51367e+9 
           2495      4.80057e+9 
           2505      6.17834e+9 
           2513      6.00961e+9 
           2518      6.18363e+9 
           2525      6.29771e+9 
           2535      6.26571e+9 
           2545      6.03451e+9 
           2555      6.03584e+9 
           2565      5.94535e+9 
           2575      5.91574e+9 
           2585      5.85033e+9 
           2595      5.77847e+9 
           2605       5.7242e+9 
           2615      5.60448e+9 
           2625      5.57826e+9 
           2635      5.52081e+9 
           2645      5.40914e+9 
           2655      5.37328e+9 
           2665      5.13358e+9 
           2675      5.09596e+9 
           2685      5.13745e+9 
           2695      4.93071e+9 
           2705      4.80278e+9 
           2715      4.80764e+9 
           2725      4.82929e+9 
           2735      4.74831e+9 
           2745      4.70388e+9 
           2755      4.66726e+9 
           2765      4.58719e+9 
           2775      4.62978e+9 
           2785       4.5351e+9 
           2795      4.34221e+9 
           2805      4.38289e+9 
           2815      4.40876e+9 
           2825      4.34125e+9 
           2835      4.18136e+9 
           2845      4.23203e+9 
           2855      4.14457e+9 
           2865      4.11555e+9 
           2875      4.06659e+9 
           2885       4.0107e+9 
           2895      3.95666e+9 
           2910      3.84924e+9 
           2930      3.83057e+9 
           2950      3.70361e+9 
           2970      3.63541e+9 
           2990      3.52832e+9 
           3010      3.38404e+9 
           3030       3.3469e+9 
           3050      3.30821e+9 
           3070      3.26797e+9 
           3090      3.11694e+9 
           3110      3.12244e+9 
           3130      3.02471e+9 
           3150      2.98004e+9 
           3170      2.89244e+9 
           3190      2.84451e+9 
           3210      2.78947e+9 
           3230      2.71343e+9 
           3250      2.68124e+9 
           3270      2.60292e+9 
           3290      2.55647e+9 
           3310      2.50174e+9 
           3330      2.43655e+9 
           3350      2.39002e+9 
           3370      2.33689e+9 
           3390      2.31123e+9 
           3410      2.26191e+9 
           3430      2.22152e+9 
           3450      2.16428e+9 
           3470      2.12392e+9 
           3490      2.07849e+9 
           3510      2.03891e+9 
           3530      2.01306e+9 
           3550      1.96886e+9 
           3570      1.93462e+9 
           3590        1.876e+9 
           3610      1.84579e+9 
           3630      1.81402e+9 
           3640      1.80639e+9 
           3650      1.76543e+9 
           3670      1.74272e+9 
           3690      1.70988e+9 
           3710      1.63763e+9 
           3730      1.59008e+9 
           3750       1.5893e+9 
           3770       1.5461e+9 
           3790      1.60602e+9 
           3810      1.65105e+9 
           3830      1.46535e+9 
           3850      1.65339e+9 
           3870      1.60898e+9 
           3890      1.37581e+9 
           3910       1.6296e+9 
           3930      1.57569e+9 
           3950      1.53432e+9 
           3970      1.27029e+9 
           3990      1.49945e+9 
           4010       1.4869e+9 
           4030      1.41324e+9 
           4050      1.43262e+9 
           4070        1.352e+9 
           4090      1.26513e+9 
           4110      1.15121e+9 
           4130      1.30176e+9 
           4150      1.29058e+9 
           4170      1.29023e+9 
           4190      1.27232e+9 
           4210      1.25716e+9 
           4230        1.231e+9 
           4250      1.18812e+9 
           4270      1.15879e+9 
           4290       1.1355e+9 
           4310      1.09262e+9 
           4330      1.01532e+9 
           4350      9.46537e+8 
           4370      1.04223e+9 
           4390      1.04302e+9 
           4410      1.03186e+9 
           4430      1.02884e+9 
           4450      1.00757e+9 
           4470      9.68404e+8 
           4490      9.80837e+8 
           4510      9.65712e+8 
           4530      9.55496e+8 
           4550      9.40527e+8 
           4570      9.27551e+8 
           4590      9.09185e+8 
           4610      8.83906e+8 
           4630      8.66128e+8 
           4650      8.26305e+8 
           4670      8.43823e+8 
           4690      8.35871e+8 
           4710       8.0649e+8 
           4730      8.14822e+8 
           4750      8.00996e+8 
           4770      8.01048e+8 
           4790      7.86311e+8 
           4810      7.68371e+8 
           4830      7.51928e+8 
           4850      7.05508e+8 
           4870      6.35123e+8 
           4890      7.18858e+8 
           4910      7.11514e+8 
           4930      6.88764e+8 
           4950      6.87546e+8 
           4970      6.86217e+8 
           4990      6.74479e+8 
           5010      6.43124e+8 
           5030      6.50379e+8 
           5050      6.38605e+8 
           5070      6.36288e+8 
           5090      6.24448e+8 
           5110      6.13424e+8 
           5130       5.9936e+8 
           5150      5.93094e+8 
           5170      5.87584e+8 
           5190      5.80896e+8 
           5210      5.72601e+8 
           5230      5.64194e+8 
           5250      5.55243e+8 
           5270      5.45665e+8 
           5290      5.40685e+8 
           5310      5.32585e+8 
           5330      5.25757e+8 
           5350      5.17806e+8 
           5370      5.11265e+8 
           5390      5.03238e+8 
           5410      4.95843e+8 
           5430      4.90446e+8 
           5450       4.8315e+8 
           5470      4.76488e+8 
           5490      4.69773e+8 
           5510      4.64607e+8 
           5530      4.56743e+8 
           5550      4.52344e+8 
           5570       4.4586e+8 
           5590      4.39745e+8 
           5610      4.34257e+8 
           5630      4.28729e+8 
           5650      4.21522e+8 
           5670      4.13596e+8 
           5690      4.04375e+8 
           5710      4.02079e+8 
           5730      3.97981e+8 
           5750      3.91069e+8 
           5770      3.88725e+8 
           5790      3.82999e+8 
           5810      3.78012e+8 
           5830      3.71632e+8 
           5850       3.6827e+8 
           5870      3.54273e+8 
           5890      3.55629e+8 
           5910      3.53097e+8 
           5930      3.48308e+8 
           5950      3.44002e+8 
           5970      3.42811e+8 
           5990      3.36116e+8 
           6010      3.33705e+8 
           6030      3.28397e+8 
           6050       3.2483e+8 
           6070       3.2167e+8 
           6090      3.17885e+8 
           6110      3.13728e+8 
           6130      3.10271e+8 
           6150      3.04342e+8 
           6170      3.01244e+8 
           6190      2.98592e+8 
           6210        2.955e+8 
           6230      2.92092e+8 
           6250      2.87496e+8 
           6270      2.84476e+8 
           6290      2.81499e+8 
           6310      2.77664e+8 
           6330      2.74953e+8 
           6350      2.70963e+8 
           6370      2.68586e+8 
           6390      2.65192e+8 
           6410      2.62118e+8 
           6430      2.59215e+8 
           6450      2.56025e+8 
           6470      2.51619e+8 
           6490      2.48997e+8 
           6510      2.46216e+8 
           6530      2.42466e+8 
           6550      2.33488e+8 
           6570      2.07396e+8 
           6590       2.3225e+8 
           6610      2.32244e+8 
           6630      2.30382e+8 
           6650      2.27567e+8 
           6670      2.22842e+8 
           6690      2.20426e+8 
           6710      2.20068e+8 
           6730      2.16724e+8 
           6750      2.15309e+8 
           6770      2.13086e+8 
           6790      2.08588e+8 
           6810      2.07942e+8 
           6830      2.05563e+8 
           6850      2.03657e+8 
           6870      2.01324e+8 
           6890      1.98641e+8 
           6910       1.9597e+8 
           6930      1.94958e+8 
           6950      1.92847e+8 
           6970      1.90757e+8 
           6990      1.88603e+8 
           7010      1.86471e+8 
           7030      1.84222e+8 
           7050      1.82405e+8 
           7070      1.77667e+8 
           7090      1.78307e+8 
           7110      1.75092e+8 
           7130      1.73407e+8 
           7150      1.72667e+8 
           7170      1.71104e+8 
           7190      1.69417e+8 
           7210      1.67645e+8 
           7230      1.63288e+8 
           7250      1.63622e+8 
           7270      1.62402e+8 
           7290      1.59442e+8 
           7310      1.58958e+8 
           7330      1.57223e+8 
           7350      1.55699e+8 
           7370      1.54147e+8 
           7390      1.52562e+8 
           7410      1.50985e+8 
           7430      1.49409e+8 
           7450      1.47861e+8 
           7470      1.45356e+8 
           7490      1.44527e+8 
           7510      1.43324e+8 
           7530      1.41687e+8 
           7550      1.40534e+8 
           7570      1.39108e+8 
           7590      1.37578e+8 
           7610      1.35926e+8 
           7630      1.34858e+8 
           7650       1.3353e+8 
           7670      1.32284e+8 
           7690      1.30838e+8 
           7710       1.2952e+8 
           7730      1.28094e+8 
           7750      1.27121e+8 
           7770      1.25662e+8 
           7790      1.24664e+8 
           7810      1.23402e+8 
           7830      1.22238e+8 
           7850      1.21053e+8 
           7870      1.19533e+8 
           7890      1.18159e+8 
           7910      1.17303e+8 
           7930      1.16107e+8 
           7950      1.15196e+8 
           7970      1.14067e+8 
           7990      1.13013e+8 
           8010      1.11827e+8 
           8030      1.10709e+8 
           8050      1.09817e+8 
           8070      1.08776e+8 
           8090      1.07663e+8 
           8110      1.05781e+8 
           8130      1.05751e+8 
           8150      1.04706e+8 
           8170      1.03849e+8 
           8190      1.02028e+8 
           8210       1.0118e+8 
           8230      9.98821e+7 
           8250      9.97416e+7 
           8270      9.76569e+7 
           8290      9.77618e+7 
           8310      9.70572e+7 
           8330      9.61302e+7 
           8350      9.48058e+7 
           8370      9.41543e+7 
           8390      9.36042e+7 
           8410      9.26003e+7 
           8430      9.18804e+7 
           8450      9.04119e+7 
           8470       9.0206e+7 
           8490      8.91752e+7 
           8510      8.81427e+7 
           8530      8.75745e+7 
           8550      8.64181e+7 
           8570      8.64922e+7 
