# Kurucz ODFNEW /NOVER (2003)
# teff = 18000 K (value for the effective temperature for the model. Temperatures are given in K)
# logg = 4 log(cm/s2) (value for Log(G) for the model.)
# meta = -0.5  (value for the Metallicity for the model.)
# lh = 1.25  (l/Hp where l is the  mixing length of the convective element and Hp is the pressure scale height)
# vtur = 2 km/s (Microturbulence velocity)
# alpha = 0.4  (Alpha)
#
# column 1: WAVELENGTH (ANGSTROM), Wavelength in Angstrom
# column 2: FLUX (ERG/CM2/S/A), Flux in erg/cm2/s/A
          147.2     4.53772e-23 
            151     5.54941e-22 
          155.2     4.54086e-21 
          158.8     2.47947e-20 
            162      1.0505e-19 
            166     5.90878e-19 
          170.3     3.45579e-18 
          173.4     1.17072e-17 
          176.8     4.24911e-17 
          180.2     1.47016e-16 
          181.7     2.50423e-16 
          186.1     1.13944e-15 
            191     5.67867e-15 
          193.9     1.41044e-14 
          198.4     5.50165e-14 
          201.8     1.48339e-13 
            205      3.6703e-13 
          210.5     1.62645e-12 
          216.2     7.04078e-12 
          219.8     1.70991e-11 
            223     3.66745e-11 
          226.8     8.84436e-11 
            230     2.77213e-10 
            234     7.32185e-10 
            240      2.57314e-9 
          246.5      9.28211e-9 
          252.4      2.81433e-8 
          256.8      6.15141e-8 
            260      1.08973e-7 
            264      2.15332e-7 
          268.5      4.51262e-7 
          273.5      9.96993e-7 
          278.5      2.14622e-6 
            284       4.8343e-6 
            290      1.12884e-5 
            296      2.54095e-5 
            301      4.88121e-5 
            308     0.000116505 
            318      0.00038383 
            328      0.00116002 
            338      0.00329825 
            348      0.00878674 
            357       0.0203045 
            366        0.044913 
            375       0.0948782 
            385        0.209202 
            395         0.44121 
            405        0.896456 
            414         1.64624 
            422         2.75412 
            430         4.50731 
            441         8.66136 
            451            15.2 
            460         24.6209 
            470         41.1401 
            480         67.1295 
            490         107.267 
            500         167.871 
            506         1934.59 
            512         6143.21 
            520          8111.8 
            530           12100 
            540         14703.6 
            550         22558.9 
            560         29476.4 
            570         39263.8 
            580         43631.9 
            590         62496.4 
            600         82450.4 
            610          106023 
            620          129827 
            630          161142 
            640          191115 
            650          230621 
            658          279499 
            665          312007 
            675          366357 
            685          435673 
            695          528057 
            705          615425 
            716          731904 
            726          842551 
            735          962701 
            745      1.12423e+6 
            755      1.29695e+6 
            765      1.47866e+6 
            775      1.69691e+6 
            785      1.92979e+6 
            795      2.15925e+6 
            805      2.43394e+6 
            815      2.70887e+6 
            825      3.05502e+6 
            835      3.31815e+6 
            845      3.72543e+6 
            855      4.12414e+6 
            865      4.58213e+6 
            875       5.0662e+6 
            885       5.6296e+6 
            895      6.16858e+6 
            905      6.55738e+6 
            915      1.17434e+7 
            925      4.78955e+7 
            935      1.51898e+8 
            945      7.92164e+8 
            955      2.02453e+9 
            965      2.97645e+9 
            975      5.56321e+8 
            985      4.48864e+9 
            995      4.40991e+9 
           1005      5.03238e+9 
           1015      4.10765e+9 
           1025      5.07852e+8 
           1035      2.61939e+9 
           1045        5.913e+9 
           1055       5.7994e+9 
           1065      4.84636e+9 
           1075      5.73558e+9 
           1085      5.20824e+9 
           1095      5.78059e+9 
           1105       4.9341e+9 
           1115      4.67842e+9 
           1125      4.63997e+9 
           1135      5.53239e+9 
           1145      4.85658e+9 
           1155      5.15099e+9 
           1165      5.39714e+9 
           1175      4.45267e+9 
           1185       5.3128e+9 
           1195      3.17339e+9 
           1205       1.7337e+9 
           1215      4.28043e+8 
           1225      2.28446e+9 
           1235      4.57097e+9 
           1245      5.04663e+9 
           1255      4.90147e+9 
           1265      4.33296e+9 
           1275      4.78946e+9 
           1285      4.94769e+9 
           1295      3.32717e+9 
           1305      2.88283e+9 
           1315      4.63999e+9 
           1325      4.49017e+9 
           1335      4.06719e+9 
           1345      4.46488e+9 
           1355      4.34874e+9 
           1365      3.98723e+9 
           1375      4.02868e+9 
           1385      4.09562e+9 
           1395      3.67394e+9 
           1405      3.82259e+9 
           1415      3.77985e+9 
           1425      3.82699e+9 
           1435      3.81152e+9 
           1442      3.94727e+9 
           1447      3.89592e+9 
           1455       3.8096e+9 
           1465       3.6514e+9 
           1475      3.56379e+9 
           1485      3.47273e+9 
           1495       3.4829e+9 
           1505       3.2919e+9 
           1512      3.09241e+9 
           1517      3.22169e+9 
           1525      3.21503e+9 
           1535      2.97038e+9 
           1545      3.08246e+9 
           1555      2.90459e+9 
           1565      2.89435e+9 
           1575      3.01611e+9 
           1585      3.00892e+9 
           1595      3.04846e+9 
           1605      2.93937e+9 
           1615      2.92417e+9 
           1625       2.8141e+9 
           1635        2.879e+9 
           1645      2.85217e+9 
           1655      2.68233e+9 
           1665      2.84658e+9 
           1672      2.72927e+9 
           1677       2.7733e+9 
           1685      2.79811e+9 
           1695      2.68547e+9 
           1705      2.56697e+9 
           1715      2.45438e+9 
           1725      2.43234e+9 
           1735      2.50025e+9 
           1745      2.42614e+9 
           1755      2.48089e+9 
           1765      2.30641e+9 
           1775      2.35571e+9 
           1785      2.33719e+9 
           1795      2.39716e+9 
           1805      2.36662e+9 
           1815      2.23392e+9 
           1825      2.27454e+9 
           1835       2.1969e+9 
           1845      2.06336e+9 
           1855      2.00811e+9 
           1865       2.0252e+9 
           1875      2.12399e+9 
           1885      1.97386e+9 
           1895      1.87598e+9 
           1905      1.98236e+9 
           1915      1.89504e+9 
           1925      1.85171e+9 
           1935      1.89319e+9 
           1945      1.90694e+9 
           1955      1.79758e+9 
           1967      1.89383e+9 
           1976      1.93865e+9 
           1984      1.83213e+9 
           1995      1.77753e+9 
           2005      1.80829e+9 
           2015       1.7581e+9 
           2025      1.82851e+9 
           2035      1.73153e+9 
           2045      1.73374e+9 
           2055      1.65544e+9 
           2065       1.6921e+9 
           2074      1.71975e+9 
           2078      1.65704e+9 
           2085      1.68501e+9 
           2095      1.61257e+9 
           2105      1.63351e+9 
           2115      1.62104e+9 
           2125      1.64136e+9 
           2135       1.5923e+9 
           2145      1.56005e+9 
           2155      1.58511e+9 
           2165      1.54864e+9 
           2175      1.53021e+9 
           2185      1.50345e+9 
           2195      1.51723e+9 
           2205      1.48064e+9 
           2215      1.44934e+9 
           2225      1.40392e+9 
           2235      1.43664e+9 
           2245      1.41243e+9 
           2255      1.37111e+9 
           2265      1.38392e+9 
           2275      1.37885e+9 
           2285      1.37965e+9 
           2295      1.33532e+9 
           2305      1.32043e+9 
           2315      1.29358e+9 
           2325      1.28359e+9 
           2335      1.23634e+9 
           2345      1.20712e+9 
           2355      1.22426e+9 
           2365      1.18652e+9 
           2375      1.19425e+9 
           2385      1.15624e+9 
           2395      1.18213e+9 
           2405      1.14718e+9 
           2415      1.14377e+9 
           2425      1.15191e+9 
           2435      1.11159e+9 
           2445      1.12319e+9 
           2455      1.11543e+9 
           2465      1.09326e+9 
           2475      1.07706e+9 
           2485      1.09153e+9 
           2495      1.05786e+9 
           2505      1.07507e+9 
           2513      1.03936e+9 
           2518      1.05413e+9 
           2525      1.02141e+9 
           2535      1.01015e+9 
           2545      9.89602e+8 
           2555      1.01159e+9 
           2565      9.94958e+8 
           2575      1.00878e+9 
           2585      1.00522e+9 
           2595      9.96813e+8 
           2605      9.80681e+8 
           2615      9.72479e+8 
           2625      9.63498e+8 
           2635      9.57121e+8 
           2645      9.72353e+8 
           2655      9.61942e+8 
           2665      9.36808e+8 
           2675      9.42189e+8 
           2685      9.33982e+8 
           2695      9.16897e+8 
           2705      9.13219e+8 
           2715      8.97561e+8 
           2725      8.84238e+8 
           2735      8.90777e+8 
           2745        8.555e+8 
           2755      8.50492e+8 
           2765      8.51694e+8 
           2775      8.58727e+8 
           2785      8.48879e+8 
           2795      8.09734e+8 
           2805      8.27337e+8 
           2815      8.31881e+8 
           2825      8.18071e+8 
           2835      7.96842e+8 
           2845      7.92926e+8 
           2855      7.92558e+8 
           2865      7.94607e+8 
           2875      7.82617e+8 
           2885      7.78333e+8 
           2895      7.73055e+8 
           2910      7.64928e+8 
           2930      7.46227e+8 
           2950      7.31294e+8 
           2970       7.2387e+8 
           2990      7.08993e+8 
           3010      7.00767e+8 
           3030      6.90603e+8 
           3050      6.77688e+8 
           3070      6.65849e+8 
           3090      6.54338e+8 
           3110      6.42443e+8 
           3130      6.33183e+8 
           3150      6.22054e+8 
           3170      6.11643e+8 
           3190      5.95594e+8 
           3210      5.90389e+8 
           3230      5.81367e+8 
           3250      5.72379e+8 
           3270      5.63813e+8 
           3290      5.54439e+8 
           3310      5.46315e+8 
           3330       5.3719e+8 
           3350      5.27572e+8 
           3370      5.19869e+8 
           3390      5.11786e+8 
           3410      5.03986e+8 
           3430      4.95116e+8 
           3450       4.8648e+8 
           3470      4.79481e+8 
           3490      4.72083e+8 
           3510      4.65771e+8 
           3530      4.58875e+8 
           3550      4.51956e+8 
           3570      4.46137e+8 
           3590      4.37673e+8 
           3610      4.31622e+8 
           3630      4.24821e+8 
           3640      4.23172e+8 
           3650      4.18792e+8 
           3670      4.13905e+8 
           3690      4.03509e+8 
           3710      3.93423e+8 
           3730      3.82987e+8 
           3750      4.25955e+8 
           3770      4.35152e+8 
           3790      4.73059e+8 
           3810      5.03453e+8 
           3830      4.29278e+8 
           3850      5.23215e+8 
           3870      5.38145e+8 
           3890      4.01972e+8 
           3910      5.33179e+8 
           3930      5.24327e+8 
           3950      5.17268e+8 
           3970      3.76015e+8 
           3990      4.94715e+8 
           4010      4.98812e+8 
           4030      4.69981e+8 
           4050      4.88962e+8 
           4070       4.7589e+8 
           4090      4.27804e+8 
           4110      3.62967e+8 
           4130      4.44582e+8 
           4150      4.44813e+8 
           4170      4.42246e+8 
           4190      4.37756e+8 
           4210      4.31863e+8 
           4230      4.24757e+8 
           4250      4.17578e+8 
           4270      4.07394e+8 
           4290      4.03563e+8 
           4310      3.94371e+8 
           4330      3.45506e+8 
           4350      3.10582e+8 
           4370      3.74897e+8 
           4390      3.63611e+8 
           4410      3.68689e+8 
           4430      3.61739e+8 
           4450      3.58685e+8 
           4470       3.3808e+8 
           4490      3.44642e+8 
           4510      3.43204e+8 
           4530      3.37169e+8 
           4550      3.32301e+8 
           4570      3.27865e+8 
           4590      3.23173e+8 
           4610      3.18478e+8 
           4630      3.13377e+8 
           4650       3.0851e+8 
           4670      3.04715e+8 
           4690      3.00855e+8 
           4710       2.9141e+8 
           4730      2.90921e+8 
           4750      2.86473e+8 
           4770      2.84308e+8 
           4790      2.79902e+8 
           4810      2.74225e+8 
           4830      2.68535e+8 
           4850      2.41421e+8 
           4870      2.11596e+8 
           4890      2.56645e+8 
           4910      2.55856e+8 
           4930      2.47274e+8 
           4950      2.50353e+8 
           4970       2.4726e+8 
           4990      2.43663e+8 
           5010      2.36228e+8 
           5030      2.36572e+8 
           5050       2.3024e+8 
           5070      2.30875e+8 
           5090      2.27654e+8 
           5110      2.24288e+8 
           5130      2.21469e+8 
           5150      2.18389e+8 
           5170      2.15843e+8 
           5190      2.12951e+8 
           5210      2.08613e+8 
           5230       2.0753e+8 
           5250        2.049e+8 
           5270      2.02018e+8 
           5290       1.9978e+8 
           5310      1.97116e+8 
           5330      1.94339e+8 
           5350       1.9152e+8 
           5370      1.89718e+8 
           5390       1.8734e+8 
           5410      1.84786e+8 
           5430      1.81932e+8 
           5450       1.7994e+8 
           5470      1.77556e+8 
           5490       1.7584e+8 
           5510      1.73474e+8 
           5530      1.71346e+8 
           5550      1.69331e+8 
           5570      1.67158e+8 
           5590      1.65229e+8 
           5610      1.62951e+8 
           5630      1.61332e+8 
           5650       1.5828e+8 
           5670      1.56685e+8 
           5690      1.55271e+8 
           5710      1.53596e+8 
           5730      1.51803e+8 
           5750       1.4994e+8 
           5770      1.48212e+8 
           5790      1.46426e+8 
           5810      1.44627e+8 
           5830      1.42938e+8 
           5850      1.41258e+8 
           5870      1.35934e+8 
           5890      1.37586e+8 
           5910      1.36322e+8 
           5930      1.34804e+8 
           5950      1.32836e+8 
           5970      1.31662e+8 
           5990      1.29923e+8 
           6010      1.28705e+8 
           6030        1.272e+8 
           6050      1.25763e+8 
           6070      1.24312e+8 
           6090      1.22837e+8 
           6110       1.2154e+8 
           6130      1.20166e+8 
           6150       1.1848e+8 
           6170      1.17436e+8 
           6190      1.16167e+8 
           6210      1.14853e+8 
           6230      1.13554e+8 
           6250      1.12115e+8 
           6270      1.11036e+8 
           6290      1.09798e+8 
           6310      1.08479e+8 
           6330      1.07418e+8 
           6350      1.05622e+8 
           6370      1.04672e+8 
           6390      1.03888e+8 
           6410        1.027e+8 
           6430      1.01743e+8 
           6450       1.0057e+8 
           6470      9.95081e+7 
           6490      9.84396e+7 
           6510      9.70978e+7 
           6530      9.55675e+7 
           6550      8.98741e+7 
           6570      7.85247e+7 
           6590      9.15363e+7 
           6610      9.19662e+7 
           6630      9.13179e+7 
           6650      9.04542e+7 
           6670      8.87779e+7 
           6690      8.78859e+7 
           6710      8.76306e+7 
           6730      8.67362e+7 
           6750      8.58592e+7 
           6770      8.49745e+7 
           6790      8.40171e+7 
           6810      8.32156e+7 
           6830      8.23252e+7 
           6850       8.1532e+7 
           6870      8.07068e+7 
           6890      7.98818e+7 
           6910      7.90729e+7 
           6930      7.81991e+7 
           6950      7.74829e+7 
           6970      7.67116e+7 
           6990      7.59232e+7 
           7010      7.51479e+7 
           7030      7.44008e+7 
           7050      7.36238e+7 
           7070      7.20215e+7 
           7090      7.22341e+7 
           7110      7.15018e+7 
           7130      7.07997e+7 
           7150      7.00821e+7 
           7170      6.94147e+7 
           7190      6.87485e+7 
           7210      6.80821e+7 
           7230      6.71056e+7 
           7250      6.67265e+7 
           7270      6.61154e+7 
           7290      6.51208e+7 
           7310      6.48376e+7 
           7330      6.42213e+7 
           7350      6.36108e+7 
           7370      6.30024e+7 
           7390      6.24011e+7 
           7410      6.18074e+7 
           7430      6.11708e+7 
           7450      6.06249e+7 
           7470      6.00259e+7 
           7490      5.94741e+7 
           7510      5.89233e+7 
           7530      5.83822e+7 
           7550        5.784e+7 
           7570       5.7306e+7 
           7590      5.67578e+7 
           7610      5.62452e+7 
           7630      5.57229e+7 
           7650      5.52054e+7 
           7670      5.46969e+7 
           7690       5.4193e+7 
           7710      5.36954e+7 
           7730      5.31985e+7 
           7750      5.27161e+7 
           7770      5.18416e+7 
           7790      5.17614e+7 
           7810      5.12799e+7 
           7830      5.08302e+7 
           7850      5.02756e+7 
           7870      4.98373e+7 
           7890      4.93115e+7 
           7910      4.90377e+7 
           7930      4.86068e+7 
           7950      4.80687e+7 
           7970      4.77215e+7 
           7990      4.71531e+7 
           8010      4.68985e+7 
           8030      4.64782e+7 
           8050      4.60534e+7 
           8070      4.56623e+7 
           8090      4.52307e+7 
           8110      4.48332e+7 
           8130      4.44544e+7 
           8150      4.40477e+7 
           8170      4.37036e+7 
           8190      4.32865e+7 
           8210      4.27953e+7 
           8230      4.24279e+7 
           8250      4.21915e+7 
           8270       4.1737e+7 
           8290      4.14657e+7 
           8310       4.1118e+7 
           8330      4.07812e+7 
           8350      4.03332e+7 
           8370      4.00305e+7 
           8390      3.97403e+7 
           8410      3.93608e+7 
           8430      3.89728e+7 
           8450      3.83797e+7 
           8470      3.81078e+7 
           8490      3.79813e+7 
           8510      3.72276e+7 
           8530      3.75182e+7 
           8550      3.59133e+7 
           8570      3.73924e+7 
