# Kurucz ODFNEW /NOVER (2003)
# teff = 7250 K (value for the effective temperature for the model. Temperatures are given in K)
# logg = 1 log(cm/s2) (value for Log(G) for the model.)
# meta = -4  (value for the Metallicity for the model.)
# lh = 1.25  (l/Hp where l is the  mixing length of the convective element and Hp is the pressure scale height)
# vtur = 2 km/s (Microturbulence velocity)
# alpha = 0.4  (Alpha)
#
# column 1: WAVELENGTH (ANGSTROM), Wavelength in Angstrom
# column 2: FLUX (ERG/CM2/S/A), Flux in erg/cm2/s/A
          147.2     1.73866e-35 
            151     1.65225e-35 
          155.2     1.56403e-35 
          158.8     1.49392e-35 
            162     1.43549e-35 
            166     1.36714e-35 
          170.3     1.29897e-35 
          173.4     1.25294e-35 
          176.8     1.20522e-35 
          180.2     1.16017e-35 
          181.7     1.14109e-35 
          186.1     1.08777e-35 
            191     1.03267e-35 
          193.9     1.00201e-35 
          198.4     9.57076e-36 
          201.8     9.25097e-36 
            205     8.96441e-36 
          210.5     8.50208e-36 
          216.2     8.05969e-36 
          219.8     7.79784e-36 
            223     7.57565e-36 
          226.8     7.32392e-36 
            230     7.12154e-36 
            234     6.88015e-36 
            240     6.54044e-36 
          246.5     6.20006e-36 
          252.4     5.91358e-36 
          256.8     5.71267e-36 
            260     5.57292e-36 
            264     5.40532e-36 
          268.5     5.22566e-36 
          273.5     5.03634e-36 
          278.5     4.85712e-36 
            284     4.67082e-36 
            290     4.47954e-36 
            296     4.29978e-36 
            301     4.15812e-36 
            308     3.97126e-36 
            318     3.72542e-36 
            328     9.41053e-23 
            338     1.02357e-21 
            348     9.32429e-21 
            357     6.09157e-20 
            366     3.62201e-19 
            375     1.97022e-18 
            385     1.17585e-17 
            395     6.39444e-17 
            405     3.18931e-16 
            414     1.26513e-15 
            422     4.09066e-15 
            430     1.26429e-14 
            441     5.56839e-14 
            451     2.00773e-13 
            460     6.06203e-13 
            470     1.96636e-12 
            480     6.06152e-12 
            490     1.78182e-11 
            500     5.00598e-11 
            506     1.14461e-10 
            512     2.24045e-10 
            520     4.76081e-10 
            530      1.18835e-9 
            540      2.82883e-9 
            550      6.57975e-9 
            560      1.47532e-8 
            570      3.21061e-8 
            580      6.74238e-8 
            590      1.39858e-7 
            600       2.8081e-7 
            610      5.50373e-7 
            620      1.05414e-6 
            630      1.97553e-6 
            640      3.62666e-6 
            650      6.52781e-6 
            658      1.03048e-5 
            665        1.522e-5 
            675      2.61695e-5 
            685      4.42457e-5 
            695      7.36168e-5 
            705     0.000120616 
            716     0.000204136 
            726     0.000324512 
            735     0.000486915 
            745     0.000754986 
            755      0.00115624 
            765      0.00174986 
            775      0.00261768 
            785      0.00387309 
            795      0.00567033 
            805      0.00821738 
            815       0.0117926 
            825        0.016764 
            835       0.0236177 
            845       0.0329827 
            855       0.0456734 
            865       0.0627408 
            875       0.0855142 
            885        0.115666 
            895        0.155301 
            905        0.207048 
            915        0.420271 
            925         1.91362 
            935          3.1451 
            945         5.51199 
            955         9.33454 
            965         7.73464 
            975         4.15794 
            985         22.3147 
            995         24.6698 
           1005         21.3712 
           1015         11.5711 
           1025         20.4188 
           1035         23.1269 
           1045         56.5909 
           1055         96.5496 
           1065         156.275 
           1075         259.884 
           1085         309.432 
           1095         242.962 
           1105         250.191 
           1115         227.345 
           1125         218.517 
           1135          207.61 
           1145         157.025 
           1155         114.717 
           1165         93.4478 
           1175         79.6886 
           1185         725.785 
           1195         169.794 
           1205         161.254 
           1215         162.717 
           1225         210.835 
           1235         288.816 
           1245         137.074 
           1255         190.876 
           1265          259.13 
           1275         347.871 
           1285          491.21 
           1295          684.64 
           1305         998.683 
           1315         1472.82 
           1325         2272.23 
           1335         2479.08 
           1345         3447.99 
           1355         7896.85 
           1365         13142.7 
           1375           20510 
           1385         24402.1 
           1395         29268.8 
           1405         54560.2 
           1415          126254 
           1425          157254 
           1435          195260 
           1442          249025 
           1447          235630 
           1455          308801 
           1465          312288 
           1475          377677 
           1485          431768 
           1495          508031 
           1505          601297 
           1512          651572 
           1517          616639 
           1525          698163 
           1535          751212 
           1545          747517 
           1555          770885 
           1565          705753 
           1575          737338 
           1585          745189 
           1595          767475 
           1605          786210 
           1615      1.07568e+6 
           1625      1.38856e+6 
           1635      1.75158e+6 
           1645      2.19757e+6 
           1655      2.21758e+6 
           1665      2.73881e+6 
           1672      2.74382e+6 
           1677      2.87899e+6 
           1685       3.0753e+6 
           1695      3.12789e+6 
           1705       3.2231e+6 
           1715      3.43847e+6 
           1725      3.50494e+6 
           1735      3.66752e+6 
           1745      3.69946e+6 
           1755      3.82879e+6 
           1765      3.85059e+6 
           1775       3.9691e+6 
           1785      4.01698e+6 
           1795      4.17264e+6 
           1805      4.17302e+6 
           1815      4.23946e+6 
           1825      4.27751e+6 
           1835      4.37847e+6 
           1845       4.3525e+6 
           1855      4.50474e+6 
           1865       4.5979e+6 
           1875       4.6644e+6 
           1885      4.73644e+6 
           1895      4.79453e+6 
           1905      4.76551e+6 
           1915      4.88855e+6 
           1925      4.98856e+6 
           1935      4.96289e+6 
           1945      5.11683e+6 
           1955      5.16437e+6 
           1967      5.23495e+6 
           1976        5.236e+6 
           1984      5.26765e+6 
           1995      5.36211e+6 
           2005      5.36414e+6 
           2015      5.35576e+6 
           2025      5.39358e+6 
           2035      5.52701e+6 
           2045        5.562e+6 
           2055      5.51183e+6 
           2065      5.58288e+6 
           2074      5.73728e+6 
           2078      5.75526e+6 
           2085      5.77761e+6 
           2095      5.81502e+6 
           2105      5.86516e+6 
           2115      5.89624e+6 
           2125       5.9077e+6 
           2135      5.92704e+6 
           2145      6.02772e+6 
           2155      6.05019e+6 
           2165      6.00584e+6 
           2175      6.07251e+6 
           2185      6.15009e+6 
           2195      6.26315e+6 
           2205      6.21701e+6 
           2215      6.13067e+6 
           2225      6.21411e+6 
           2235      6.39921e+6 
           2245      6.38202e+6 
           2255      6.31265e+6 
           2265      6.27355e+6 
           2275      6.48115e+6 
           2285      6.52693e+6 
           2295      6.52375e+6 
           2305       6.5983e+6 
           2315      6.61354e+6 
           2325      6.65692e+6 
           2335      6.61523e+6 
           2345      6.44589e+6 
           2355      6.72214e+6 
           2365      6.55293e+6 
           2375      6.73763e+6 
           2385      6.46289e+6 
           2395      6.75102e+6 
           2405      6.78683e+6 
           2415      6.82828e+6 
           2425        7.061e+6 
           2435      7.02346e+6 
           2445      7.09342e+6 
           2455      7.15014e+6 
           2465      7.11271e+6 
           2475      7.12976e+6 
           2485      7.17071e+6 
           2495      7.16479e+6 
           2505      7.32263e+6 
           2513      7.21165e+6 
           2518      7.25553e+6 
           2525      7.19822e+6 
           2535       7.1902e+6 
           2545      7.31877e+6 
           2555      7.49589e+6 
           2565      7.44959e+6 
           2575      7.55092e+6 
           2585      7.60424e+6 
           2595       7.5905e+6 
           2605       7.5662e+6 
           2615      7.56134e+6 
           2625      7.60607e+6 
           2635      7.70851e+6 
           2645      7.95458e+6 
           2655      7.97494e+6 
           2665       7.9168e+6 
           2675      7.97881e+6 
           2685      8.07364e+6 
           2695      8.07504e+6 
           2705      8.12717e+6 
           2715      8.05464e+6 
           2725      8.09456e+6 
           2735      8.15786e+6 
           2745      7.93254e+6 
           2755      8.01205e+6 
           2765      8.18137e+6 
           2775      8.35293e+6 
           2785      8.37611e+6 
           2795      7.89046e+6 
           2805      8.17473e+6 
           2815      8.51325e+6 
           2825      8.53759e+6 
           2835      8.50418e+6 
           2845      8.55155e+6 
           2855      8.48621e+6 
           2865      8.54961e+6 
           2875       8.6288e+6 
           2885      8.65372e+6 
           2895      8.73878e+6 
           2910      8.80018e+6 
           2930      8.79411e+6 
           2950      8.83372e+6 
           2970      8.94022e+6 
           2990       8.9841e+6 
           3010       9.0755e+6 
           3030      9.13377e+6 
           3050      9.18203e+6 
           3070      9.17751e+6 
           3090      9.27728e+6 
           3110      9.32466e+6 
           3130      9.36507e+6 
           3150      9.40295e+6 
           3170      9.45488e+6 
           3190      9.46035e+6 
           3210      9.53806e+6 
           3230      9.51925e+6 
           3250      9.60932e+6 
           3270      9.68732e+6 
           3290      9.73731e+6 
           3310      9.77851e+6 
           3330      9.78676e+6 
           3350      9.78943e+6 
           3370      9.84441e+6 
           3390      9.88201e+6 
           3410      9.95791e+6 
           3430       9.9907e+6 
           3450      1.00217e+7 
           3470      1.00495e+7 
           3490      1.00838e+7 
           3510      1.01163e+7 
           3530      1.01468e+7 
           3550      1.01745e+7 
           3570      1.01962e+7 
           3590      1.02217e+7 
           3610      1.02472e+7 
           3630      1.02696e+7 
           3640      1.02778e+7 
           3650      1.03262e+7 
           3670      1.03476e+7 
           3690      1.15774e+7 
           3710       1.5865e+7 
           3730      2.35316e+7 
           3750      3.52686e+7 
           3770      3.65069e+7 
           3790      4.21837e+7 
           3810      4.72024e+7 
           3830       3.8608e+7 
           3850      5.00722e+7 
           3870      5.26876e+7 
           3890      3.49217e+7 
           3910      5.16077e+7 
           3930      5.11667e+7 
           3950       5.0662e+7 
           3970      3.33038e+7 
           3990      4.90905e+7 
           4010      4.98531e+7 
           4030      4.93711e+7 
           4050      4.88112e+7 
           4070      4.80302e+7 
           4090       4.2848e+7 
           4110      3.39862e+7 
           4130      4.62627e+7 
           4150      4.61503e+7 
           4170      4.57282e+7 
           4190      4.52347e+7 
           4210      4.47337e+7 
           4230      4.42296e+7 
           4250      4.37559e+7 
           4270      4.32788e+7 
           4290      4.27267e+7 
           4310      4.19681e+7 
           4330      3.62103e+7 
           4350      3.11537e+7 
           4370      4.05612e+7 
           4390      4.04349e+7 
           4410      4.01038e+7 
           4430      3.97041e+7 
           4450      3.92757e+7 
           4470      3.88496e+7 
           4490      3.84483e+7 
           4510      3.80487e+7 
           4530      3.76529e+7 
           4550      3.72462e+7 
           4570       3.6874e+7 
           4590      3.64979e+7 
           4610      3.61323e+7 
           4630      3.57558e+7 
           4650      3.53949e+7 
           4670      3.50354e+7 
           4690       3.4679e+7 
           4710      3.43239e+7 
           4730      3.39821e+7 
           4750      3.36414e+7 
           4770      3.33036e+7 
           4790      3.29686e+7 
           4810      3.25517e+7 
           4830      3.20195e+7 
           4850      2.84006e+7 
           4870      2.34216e+7 
           4890      3.09171e+7 
           4910      3.09611e+7 
           4930      3.07476e+7 
           4950      3.04658e+7 
           4970      3.01739e+7 
           4990      2.98825e+7 
           5010      2.95889e+7 
           5030      2.93109e+7 
           5050      2.90319e+7 
           5070       2.8755e+7 
           5090      2.84829e+7 
           5110      2.82128e+7 
           5130      2.79474e+7 
           5150      2.76853e+7 
           5170      2.74053e+7 
           5190      2.71581e+7 
           5210      2.69167e+7 
           5230       2.6663e+7 
           5250      2.64206e+7 
           5270      2.61743e+7 
           5290      2.59364e+7 
           5310      2.56973e+7 
           5330      2.54637e+7 
           5350      2.52329e+7 
           5370      2.50035e+7 
           5390      2.47781e+7 
           5410       2.4554e+7 
           5430      2.43339e+7 
           5450      2.41163e+7 
           5470      2.38999e+7 
           5490      2.36874e+7 
           5510      2.34773e+7 
           5530      2.32696e+7 
           5550      2.30642e+7 
           5570      2.28613e+7 
           5590      2.26606e+7 
           5610      2.24622e+7 
           5630      2.22672e+7 
           5650      2.20733e+7 
           5670      2.18815e+7 
           5690      2.16919e+7 
           5710      2.15055e+7 
           5730      2.13201e+7 
           5750      2.11379e+7 
           5770      2.09565e+7 
           5790      2.07771e+7 
           5810      2.06009e+7 
           5830      2.04265e+7 
           5850       2.0253e+7 
           5870      2.00802e+7 
           5890      1.99115e+7 
           5910      1.97467e+7 
           5930      1.95816e+7 
           5950      1.94172e+7 
           5970      1.92556e+7 
           5990      1.90958e+7 
           6010      1.89386e+7 
           6030      1.87821e+7 
           6050      1.86273e+7 
           6070      1.84751e+7 
           6090      1.83235e+7 
           6110      1.81744e+7 
           6130       1.8026e+7 
           6150        1.788e+7 
           6170      1.77346e+7 
           6190      1.75917e+7 
           6210      1.74502e+7 
           6230      1.73092e+7 
           6250      1.71707e+7 
           6270      1.70335e+7 
           6290      1.68977e+7 
           6310      1.67634e+7 
           6330      1.66303e+7 
           6350      1.64977e+7 
           6370      1.63673e+7 
           6390      1.62392e+7 
           6410      1.61115e+7 
           6430       1.5985e+7 
           6450      1.58588e+7 
           6470      1.57357e+7 
           6490      1.55915e+7 
           6510      1.54292e+7 
           6530      1.51987e+7 
           6550      1.40304e+7 
           6570      1.12596e+7 
           6590      1.46795e+7 
           6610      1.48141e+7 
           6630      1.47497e+7 
           6650      1.46747e+7 
           6670      1.45632e+7 
           6690      1.44518e+7 
           6710      1.43424e+7 
           6730       1.4234e+7 
           6750      1.41258e+7 
           6770      1.40194e+7 
           6790      1.39132e+7 
           6810      1.38089e+7 
           6830      1.37055e+7 
           6850      1.36031e+7 
           6870      1.35009e+7 
           6890      1.34004e+7 
           6910      1.33009e+7 
           6930      1.32022e+7 
           6950      1.31045e+7 
           6970      1.30077e+7 
           6990      1.29118e+7 
           7010      1.28167e+7 
           7030      1.27226e+7 
           7050      1.26293e+7 
           7070      1.25368e+7 
           7090      1.24452e+7 
           7110      1.23544e+7 
           7130      1.22652e+7 
           7150       1.2176e+7 
           7170      1.20877e+7 
           7190      1.20001e+7 
           7210      1.19141e+7 
           7230      1.18281e+7 
           7250      1.17428e+7 
           7270      1.16584e+7 
           7290      1.15753e+7 
           7310      1.14924e+7 
           7330      1.14108e+7 
           7350      1.13293e+7 
           7370      1.12491e+7 
           7390       1.1169e+7 
           7410      1.10903e+7 
           7430      1.10115e+7 
           7450      1.09342e+7 
           7470      1.08568e+7 
           7490      1.07808e+7 
           7510      1.07054e+7 
           7530        1.063e+7 
           7550      1.05559e+7 
           7570      1.04824e+7 
           7590      1.04096e+7 
           7610      1.03374e+7 
           7630      1.02658e+7 
           7650      1.01948e+7 
           7670      1.01238e+7 
           7690       1.0054e+7 
           7710       9.9848e+6 
           7730      9.91617e+6 
           7750      9.84812e+6 
           7770      9.77877e+6 
           7790      9.71434e+6 
           7810      9.64798e+6 
           7830      9.58216e+6 
           7850      9.51689e+6 
           7870      9.45216e+6 
           7890      9.38796e+6 
           7910      9.32489e+6 
           7930      9.26174e+6 
           7950       9.1997e+6 
           7970      9.13758e+6 
           7990      9.07595e+6 
           8010      9.01542e+6 
           8030      8.95479e+6 
           8050      8.89524e+6 
           8070      8.83558e+6 
           8090      8.77699e+6 
           8110      8.71886e+6 
           8130      8.66062e+6 
           8150      8.60342e+6 
           8170      8.54668e+6 
           8190      8.48982e+6 
           8210      8.45578e+6 
           8230      8.40472e+6 
           8250      8.35461e+6 
           8270      8.29772e+6 
           8290      8.23471e+6 
           8310      8.15093e+6 
           8330      8.07112e+6 
           8350      8.05573e+6 
           8370      7.85058e+6 
           8390      7.89936e+6 
           8410      7.84319e+6 
           8430      8.03821e+6 
           8450      8.00496e+6 
           8470      7.66262e+6 
           8490      8.33476e+6 
           8510      7.61157e+6 
           8530       8.4556e+6 
           8550      7.46373e+6 
           8570      8.60049e+6 
           8590      8.12345e+6 
