# Kurucz ODFNEW /NOVER (2003)
# teff = 29000 K (value for the effective temperature for the model. Temperatures are given in K)
# logg = 5 log(cm/s2) (value for Log(G) for the model.)
# meta = 0  (value for the Metallicity for the model.)
# lh = 1.25  (l/Hp where l is the  mixing length of the convective element and Hp is the pressure scale height)
# vtur = 2 km/s (Microturbulence velocity)
# alpha = 0  (Alpha)
#
# column 1: WAVELENGTH (ANGSTROM), Wavelength in Angstrom
# column 2: FLUX (ERG/CM2/S/A), Flux in erg/cm2/s/A
          147.2     9.64433e-10 
            151      3.12556e-9 
          155.2      1.07746e-8 
          158.8      2.96798e-8 
            162      7.06217e-8 
            166      1.99903e-7 
          170.3      5.81602e-7 
          173.4      1.22195e-6 
          176.8      2.67666e-6 
          180.2      5.70616e-6 
          181.7       7.9001e-6 
          186.1      1.99878e-5 
            191      5.36608e-5 
          193.9      9.41633e-5 
          198.4     0.000218577 
          201.8     0.000403444 
            205     0.000705795 
          210.5      0.00177915 
          216.2      0.00442227 
          219.8      0.00767876 
            223       0.0123619 
          226.8       0.0215074 
            230         2.52309 
            234         5.55345 
            240         10.7708 
          246.5         21.6773 
          252.4          39.925 
          256.8         58.2179 
            260          89.033 
            264         127.582 
          268.5         194.358 
          273.5         298.917 
          278.5         447.054 
            284          768.77 
            290         1203.88 
            296         1851.66 
            301         2589.92 
            308         4267.12 
            318         8793.48 
            328         15362.1 
            338           27916 
            348         47333.8 
            357          138585 
            366          246859 
            375          339961 
            385          518538 
            395          861993 
            405      1.18342e+6 
            414      1.63584e+6 
            422      2.04017e+6 
            430      2.67806e+6 
            441      3.65841e+6 
            451      4.67076e+6 
            460      5.72447e+6 
            470      7.46774e+6 
            480      9.43034e+6 
            490       1.1886e+7 
            500      1.46765e+7 
            506      5.09985e+7 
            512      3.04092e+8 
            520       3.1519e+8 
            530      3.39432e+8 
            540      3.31667e+8 
            550       4.3855e+8 
            560      4.98169e+8 
            570      5.50287e+8 
            580      5.20579e+8 
            590      6.18059e+8 
            600      6.31932e+8 
            610      7.06309e+8 
            620      7.67679e+8 
            630      7.86538e+8 
            640      7.47591e+8 
            650      7.83249e+8 
            658        8.431e+8 
            665      9.17236e+8 
            675      9.39209e+8 
            685      9.09979e+8 
            695       1.1437e+9 
            705      1.11846e+9 
            716      1.25161e+9 
            726      1.26533e+9 
            735      1.28586e+9 
            745      1.40483e+9 
            755      1.44869e+9 
            765      1.51574e+9 
            775      1.57779e+9 
            785      1.65933e+9 
            795      1.68228e+9 
            805      1.70777e+9 
            815      1.72392e+9 
            825      1.83254e+9 
            835       1.6453e+9 
            845      1.83926e+9 
            855       1.8522e+9 
            865      1.93675e+9 
            875      2.01462e+9 
            885      2.11644e+9 
            895      2.17306e+9 
            905      2.14817e+9 
            915      2.33833e+9 
            925      8.43874e+9 
            935     1.83977e+10 
            945     3.94791e+10 
            955     5.15139e+10 
            965      6.7095e+10 
            975     1.54132e+10 
            985     6.28293e+10 
            995     5.69989e+10 
           1005      6.3468e+10 
           1015     6.19822e+10 
           1025     2.68671e+10 
           1035     5.22739e+10 
           1045     7.29879e+10 
           1055     6.81144e+10 
           1065     5.52228e+10 
           1075      6.1509e+10 
           1085     5.50041e+10 
           1095     6.08473e+10 
           1105     5.62861e+10 
           1115      5.5081e+10 
           1125     4.41404e+10 
           1135     5.39173e+10 
           1145     4.85716e+10 
           1155     4.92083e+10 
           1165     4.79619e+10 
           1175     3.01629e+10 
           1185     4.42908e+10 
           1195     4.16558e+10 
           1205     3.35211e+10 
           1215     1.87542e+10 
           1225     3.58171e+10 
           1235     4.13971e+10 
           1245     4.01466e+10 
           1255     3.96409e+10 
           1265     4.02714e+10 
           1275     4.09794e+10 
           1285      4.0522e+10 
           1295     3.27774e+10 
           1305     3.42104e+10 
           1315     3.88445e+10 
           1325     3.62926e+10 
           1335     3.52098e+10 
           1345     3.47757e+10 
           1355     3.46049e+10 
           1365     3.20818e+10 
           1375     3.11367e+10 
           1385     3.02605e+10 
           1395     2.29113e+10 
           1405      2.4281e+10 
           1415     2.71395e+10 
           1425     2.56505e+10 
           1435     2.65932e+10 
           1442     2.70821e+10 
           1447     2.65948e+10 
           1455     2.56572e+10 
           1465      2.4025e+10 
           1475     2.41765e+10 
           1485      2.3799e+10 
           1495     2.32289e+10 
           1505     2.11947e+10 
           1512      1.9417e+10 
           1517     1.98376e+10 
           1525     2.01014e+10 
           1535     1.70951e+10 
           1545     1.63174e+10 
           1555       1.582e+10 
           1565     1.71182e+10 
           1575     1.80056e+10 
           1585     1.79305e+10 
           1595     1.77908e+10 
           1605     1.75757e+10 
           1615     1.68748e+10 
           1625     1.68932e+10 
           1635     1.74749e+10 
           1645     1.72645e+10 
           1655     1.72477e+10 
           1665     1.72205e+10 
           1672     1.63745e+10 
           1677     1.79595e+10 
           1685     1.72056e+10 
           1695     1.63908e+10 
           1705     1.58738e+10 
           1715     1.51795e+10 
           1725     1.46697e+10 
           1735     1.51369e+10 
           1745     1.48736e+10 
           1755     1.48122e+10 
           1765     1.45154e+10 
           1775     1.37485e+10 
           1785     1.39165e+10 
           1795      1.4039e+10 
           1805     1.40399e+10 
           1815     1.29136e+10 
           1825     1.31536e+10 
           1835     1.27925e+10 
           1845     1.16648e+10 
           1855      1.1847e+10 
           1865     1.19889e+10 
           1875     1.21593e+10 
           1885     1.09704e+10 
           1895      1.0259e+10 
           1905     1.09219e+10 
           1915     1.03879e+10 
           1925      9.79911e+9 
           1935     1.03735e+10 
           1945     1.06356e+10 
           1955      9.55676e+9 
           1967     1.01906e+10 
           1976     1.06547e+10 
           1984      9.83586e+9 
           1995       9.6728e+9 
           2005      9.88112e+9 
           2015      9.81669e+9 
           2025      9.98273e+9 
           2035      9.20076e+9 
           2045      9.24972e+9 
           2055      8.68007e+9 
           2065      8.65124e+9 
           2074      8.94732e+9 
           2078      8.30891e+9 
           2085      8.54716e+9 
           2095      8.20646e+9 
           2105      8.61346e+9 
           2115      8.60631e+9 
           2125      8.65565e+9 
           2135      8.46401e+9 
           2145      8.10476e+9 
           2155      8.30763e+9 
           2165      8.19409e+9 
           2175      8.08388e+9 
           2185      7.88956e+9 
           2195      7.91925e+9 
           2205      7.83751e+9 
           2215      7.70471e+9 
           2225      7.53242e+9 
           2235      7.38485e+9 
           2245      7.38954e+9 
           2255      7.18472e+9 
           2265      7.19507e+9 
           2275      7.08821e+9 
           2285      7.01151e+9 
           2295      6.46974e+9 
           2305      6.75926e+9 
           2315      6.61663e+9 
           2325      6.53942e+9 
           2335      6.39812e+9 
           2345      6.40622e+9 
           2355      6.32999e+9 
           2365      6.25468e+9 
           2375      6.11042e+9 
           2385      6.03836e+9 
           2395       5.9596e+9 
           2405      5.87654e+9 
           2415      5.79936e+9 
           2425      5.76175e+9 
           2435      5.61279e+9 
           2445      5.58273e+9 
           2455      5.54409e+9 
           2465       5.4682e+9 
           2475      5.38056e+9 
           2485      5.28549e+9 
           2495      4.64976e+9 
           2505      5.10921e+9 
           2513      4.88339e+9 
           2518      5.02052e+9 
           2525      5.01914e+9 
           2535      4.96572e+9 
           2545      4.81185e+9 
           2555      4.80703e+9 
           2565      4.74958e+9 
           2575      4.71419e+9 
           2585      4.66183e+9 
           2595      4.60644e+9 
           2605      4.56021e+9 
           2615      4.49719e+9 
           2625       4.4561e+9 
           2635      4.40574e+9 
           2645      4.33501e+9 
           2655      4.29659e+9 
           2665      4.16262e+9 
           2675      4.14219e+9 
           2685      4.13041e+9 
           2695      3.98742e+9 
           2705      3.93384e+9 
           2715      3.91871e+9 
           2725      3.88453e+9 
           2735      3.84978e+9 
           2745      3.78303e+9 
           2755      3.75914e+9 
           2765      3.69164e+9 
           2775      3.70853e+9 
           2785      3.64833e+9 
           2795       3.5196e+9 
           2805      3.53487e+9 
           2815      3.53642e+9 
           2825      3.46347e+9 
           2835      3.35963e+9 
           2845       3.4054e+9 
           2855      3.34683e+9 
           2865      3.32277e+9 
           2875      3.28425e+9 
           2885      3.24446e+9 
           2895      3.20167e+9 
           2910      3.13214e+9 
           2930      3.08149e+9 
           2950       2.9805e+9 
           2970      2.94033e+9 
           2990      2.86522e+9 
           3010      2.77396e+9 
           3030      2.74235e+9 
           3050      2.69172e+9 
           3070      2.64329e+9 
           3090      2.54325e+9 
           3110      2.52432e+9 
           3130      2.45948e+9 
           3150      2.41422e+9 
           3170       2.3539e+9 
           3190      2.29486e+9 
           3210      2.26642e+9 
           3230      2.21154e+9 
           3250      2.17385e+9 
           3270      2.12447e+9 
           3290      2.08021e+9 
           3310      2.04098e+9 
           3330       1.9952e+9 
           3350      1.95617e+9 
           3370      1.91627e+9 
           3390      1.88383e+9 
           3410      1.84641e+9 
           3430      1.80444e+9 
           3450      1.76231e+9 
           3470      1.73014e+9 
           3490      1.69539e+9 
           3510      1.66515e+9 
           3530       1.6376e+9 
           3550      1.60598e+9 
           3570      1.58491e+9 
           3590      1.53549e+9 
           3610      1.51408e+9 
           3630      1.48366e+9 
           3640      1.48382e+9 
           3650      1.45186e+9 
           3670      1.43381e+9 
           3690      1.40896e+9 
           3710      1.35839e+9 
           3730      1.31866e+9 
           3750      1.29825e+9 
           3770      1.25549e+9 
           3790      1.29195e+9 
           3810      1.33476e+9 
           3830      1.17473e+9 
           3850       1.3607e+9 
           3870      1.36946e+9 
           3890      1.09859e+9 
           3910      1.36135e+9 
           3930      1.33972e+9 
           3950      1.30707e+9 
           3970      1.01886e+9 
           3990       1.2556e+9 
           4010      1.26518e+9 
           4030       1.1826e+9 
           4050      1.23066e+9 
           4070      1.17236e+9 
           4090      1.06746e+9 
           4110      9.47483e+8 
           4130      1.11414e+9 
           4150      1.11204e+9 
           4170      1.10842e+9 
           4190      1.09289e+9 
           4210      1.08195e+9 
           4230      1.05901e+9 
           4250      1.02923e+9 
           4270       1.0006e+9 
           4290      9.88572e+8 
           4310      9.55487e+8 
           4330      8.57265e+8 
           4350       7.8609e+8 
           4370      9.05954e+8 
           4390      8.90271e+8 
           4410      8.96122e+8 
           4430      8.88952e+8 
           4450      8.73217e+8 
           4470      8.18473e+8 
           4490      8.44348e+8 
           4510      8.38006e+8 
           4530      8.24528e+8 
           4550      8.11272e+8 
           4570       7.9753e+8 
           4590      7.83621e+8 
           4610       7.6636e+8 
           4630      7.53884e+8 
           4650      7.29868e+8 
           4670      7.32198e+8 
           4690      7.24082e+8 
           4710      6.96158e+8 
           4730      7.00319e+8 
           4750      6.88724e+8 
           4770      6.85643e+8 
           4790       6.7323e+8 
           4810      6.58248e+8 
           4830      6.41455e+8 
           4850      5.85134e+8 
           4870      5.23773e+8 
           4890      6.12088e+8 
           4910      6.09815e+8 
           4930      5.85626e+8 
           4950      5.92927e+8 
           4970      5.88637e+8 
           4990      5.79132e+8 
           5010      5.55711e+8 
           5030      5.61277e+8 
           5050       5.4876e+8 
           5070      5.46403e+8 
           5090      5.37479e+8 
           5110      5.29038e+8 
           5130      5.18722e+8 
           5150      5.11875e+8 
           5170      5.06921e+8 
           5190      5.00379e+8 
           5210      4.92658e+8 
           5230      4.86157e+8 
           5250      4.79398e+8 
           5270      4.72009e+8 
           5290      4.66091e+8 
           5310      4.59393e+8 
           5330      4.53154e+8 
           5350      4.46402e+8 
           5370      4.40941e+8 
           5390      4.34576e+8 
           5410      4.28846e+8 
           5430      4.22894e+8 
           5450      4.16917e+8 
           5470      4.11293e+8 
           5490      4.05814e+8 
           5510      4.00851e+8 
           5530      3.94901e+8 
           5550      3.90238e+8 
           5570      3.84878e+8 
           5590      3.79947e+8 
           5610      3.74777e+8 
           5630      3.70063e+8 
           5650       3.6419e+8 
           5670      3.58181e+8 
           5690      3.52397e+8 
           5710       3.4991e+8 
           5730      3.45831e+8 
           5750      3.40444e+8 
           5770      3.37443e+8 
           5790      3.32879e+8 
           5810      3.28672e+8 
           5830      3.23916e+8 
           5850      3.20164e+8 
           5870      3.05248e+8 
           5890      3.09293e+8 
           5910      3.07505e+8 
           5930      3.03356e+8 
           5950      2.99426e+8 
           5970      2.97063e+8 
           5990      2.92363e+8 
           6010      2.89409e+8 
           6030       2.8542e+8 
           6050      2.82178e+8 
           6070      2.79013e+8 
           6090      2.75629e+8 
           6110      2.72233e+8 
           6130      2.69056e+8 
           6150      2.64789e+8 
           6170      2.62016e+8 
           6190      2.59234e+8 
           6210      2.56287e+8 
           6230      2.53286e+8 
           6250      2.49864e+8 
           6270      2.47055e+8 
           6290      2.44277e+8 
           6310      2.41246e+8 
           6330      2.38586e+8 
           6350      2.35339e+8 
           6370      2.32962e+8 
           6390      2.30178e+8 
           6410      2.27515e+8 
           6430       2.2499e+8 
           6450       2.2232e+8 
           6470       2.1904e+8 
           6490      2.16708e+8 
           6510      2.14037e+8 
           6530      2.10271e+8 
           6550      1.98935e+8 
           6570       1.7561e+8 
           6590      2.00535e+8 
           6610      2.01625e+8 
           6630      2.00197e+8 
           6650      1.98049e+8 
           6670      1.93509e+8 
           6690      1.91479e+8 
           6710      1.91661e+8 
           6730      1.89151e+8 
           6750      1.87478e+8 
           6770      1.85418e+8 
           6790      1.82228e+8 
           6810      1.81126e+8 
           6830       1.7913e+8 
           6850      1.77339e+8 
           6870       1.7539e+8 
           6890       1.7331e+8 
           6910      1.71275e+8 
           6930      1.69738e+8 
           6950      1.67928e+8 
           6970      1.66121e+8 
           6990      1.64323e+8 
           7010      1.62551e+8 
           7030      1.60782e+8 
           7050      1.59082e+8 
           7070      1.54702e+8 
           7090      1.55741e+8 
           7110      1.53748e+8 
           7130      1.52168e+8 
           7150      1.50839e+8 
           7170      1.49266e+8 
           7190       1.4773e+8 
           7210      1.46187e+8 
           7230        1.429e+8 
           7250      1.42958e+8 
           7270      1.41667e+8 
           7290      1.38998e+8 
           7310      1.38732e+8 
           7330      1.37289e+8 
           7350      1.35915e+8 
           7370       1.3454e+8 
           7390      1.33164e+8 
           7410      1.31815e+8 
           7430      1.30445e+8 
           7450      1.29148e+8 
           7470      1.27418e+8 
           7490      1.26503e+8 
           7510      1.25236e+8 
           7530      1.23953e+8 
           7550      1.22802e+8 
           7570      1.21582e+8 
           7590       1.2036e+8 
           7610      1.19032e+8 
           7630      1.17969e+8 
           7650      1.16818e+8 
           7670      1.15672e+8 
           7690       1.1453e+8 
           7710      1.13391e+8 
           7730      1.12263e+8 
           7750      1.11214e+8 
           7770      1.09875e+8 
           7790      1.09063e+8 
           7810      1.07955e+8 
           7830      1.06962e+8 
           7850      1.05978e+8 
           7870      1.04837e+8 
           7890      1.03683e+8 
           7910      1.02919e+8 
           7930      1.01903e+8 
           7950      1.00926e+8 
           7970      9.99635e+7 
           7990      9.90034e+7 
           8010      9.80517e+7 
           8030      9.70614e+7 
           8050      9.61611e+7 
           8070      9.53091e+7 
           8090      9.42858e+7 
           8110       9.3071e+7 
           8130      9.26593e+7 
           8150       9.1757e+7 
           8170      9.09809e+7 
           8190      8.98126e+7 
           8210      8.89061e+7 
           8230      8.80351e+7 
           8250      8.75313e+7 
           8270      8.60894e+7 
           8290      8.58938e+7 
           8310      8.51862e+7 
           8330      8.43868e+7 
           8350      8.32752e+7 
           8370      8.27217e+7 
           8390      8.21405e+7 
           8410      8.13615e+7 
           8430      8.06313e+7 
           8450      7.93215e+7 
           8470      7.92046e+7 
           8490      7.83145e+7 
           8510      7.77075e+7 
           8530      7.68982e+7 
           8550      7.61472e+7 
           8570      7.58179e+7 
           8590      7.38825e+7 
