# Kurucz ODFNEW /NOVER (2003)
# teff = 23000 K (value for the effective temperature for the model. Temperatures are given in K)
# logg = 3 log(cm/s2) (value for Log(G) for the model.)
# meta = 0.2  (value for the Metallicity for the model.)
# lh = 1.25  (l/Hp where l is the  mixing length of the convective element and Hp is the pressure scale height)
# vtur = 2 km/s (Microturbulence velocity)
# alpha = 0  (Alpha)
#
# column 1: WAVELENGTH (ANGSTROM), Wavelength in Angstrom
# column 2: FLUX (ERG/CM2/S/A), Flux in erg/cm2/s/A
          147.2     1.00861e-16 
            151       4.966e-16 
          155.2     2.65839e-15 
          158.8     1.04972e-14 
            162     3.39981e-14 
            166      1.3912e-13 
          170.3     5.89292e-13 
          173.4      1.6059e-12 
          176.8     4.63466e-12 
          180.2     1.28836e-11 
          181.7     1.99896e-11 
          186.1      6.9899e-11 
            191     2.64406e-10 
          193.9     5.63693e-10 
          198.4       1.7502e-9 
          201.8      3.98893e-9 
            205      8.45568e-9 
          210.5      2.92336e-8 
          216.2      9.90858e-8 
          219.8      2.07485e-7 
            223      3.92434e-7 
          226.8       8.1896e-7 
            230      4.94805e-5 
            234     0.000118861 
            240     0.000299716 
          246.5     0.000787841 
          252.4       0.0018302 
          256.8      0.00316916 
            260      0.00549445 
            264      0.00913824 
          268.5        0.016024 
          273.5       0.0290753 
          278.5       0.0516264 
            284        0.103403 
            290        0.193633 
            296        0.356112 
            301        0.572614 
            308         1.16016 
            318         3.00105 
            328          6.7037 
            338         15.2487 
            348         31.9167 
            357         186.182 
            366         397.918 
            375         620.475 
            385         1081.73 
            395         2175.89 
            405         3429.32 
            414         5287.52 
            422         7840.74 
            430         11702.5 
            441         18309.7 
            451           25356 
            460         34464.7 
            470         50738.2 
            480         71197.6 
            490           99423 
            500          132949 
            506          799878 
            512      9.76415e+6 
            520      1.08016e+7 
            530      1.21317e+7 
            540      1.27163e+7 
            550      2.12675e+7 
            560      2.61897e+7 
            570      3.11425e+7 
            580      2.85224e+7 
            590      3.92292e+7 
            600      4.36912e+7 
            610      5.36756e+7 
            620      6.07775e+7 
            630      6.45309e+7 
            640      5.88336e+7 
            650      4.27697e+7 
            658      6.94284e+7 
            665      8.44007e+7 
            675      8.65703e+7 
            685      8.24955e+7 
            695      1.19603e+8 
            705      1.16303e+8 
            716      1.36213e+8 
            726      1.36775e+8 
            735      1.44611e+8 
            745       1.6853e+8 
            755      1.79454e+8 
            765      1.92026e+8 
            775      2.07098e+8 
            785      2.22746e+8 
            795      2.30267e+8 
            805      2.36755e+8 
            815      2.41246e+8 
            825       2.6892e+8 
            835      2.10171e+8 
            845      2.70397e+8 
            855      2.72169e+8 
            865      2.92391e+8 
            875      3.14556e+8 
            885      3.43966e+8 
            895      3.60694e+8 
            905      3.49855e+8 
            915      7.23288e+8 
            925      6.77397e+9 
            935     1.11443e+10 
            945     1.39466e+10 
            955     1.51716e+10 
            965     1.37782e+10 
            975       2.5447e+9 
            985      8.36689e+9 
            995     1.11718e+10 
           1005     1.48383e+10 
           1015     1.55552e+10 
           1025     1.27033e+10 
           1035     1.21017e+10 
           1045     1.88588e+10 
           1055     1.71257e+10 
           1065     1.35636e+10 
           1075     1.60605e+10 
           1085     1.42074e+10 
           1095     1.64406e+10 
           1105     1.46866e+10 
           1115     1.38198e+10 
           1125     1.03093e+10 
           1135     1.52531e+10 
           1145      1.4239e+10 
           1155     1.44603e+10 
           1165     1.40427e+10 
           1175      6.93769e+9 
           1185     1.31518e+10 
           1195     1.24975e+10 
           1205      7.21378e+9 
           1215      9.46912e+9 
           1225     1.25092e+10 
           1235     1.39787e+10 
           1245     1.32172e+10 
           1255     1.32702e+10 
           1265      1.3603e+10 
           1275      1.4199e+10 
           1285     1.40569e+10 
           1295      9.18402e+9 
           1305     1.05359e+10 
           1315     1.38483e+10 
           1325     1.29148e+10 
           1335      1.2336e+10 
           1345     1.28242e+10 
           1355     1.25526e+10 
           1365     1.14918e+10 
           1375     1.10728e+10 
           1385     1.04152e+10 
           1395        6.257e+9 
           1405      7.35491e+9 
           1415      9.32253e+9 
           1425      9.30977e+9 
           1435      9.82463e+9 
           1442     1.00677e+10 
           1447      9.87593e+9 
           1455      9.49607e+9 
           1465      8.61999e+9 
           1475      9.04809e+9 
           1485      9.00385e+9 
           1495      8.78233e+9 
           1505      7.93202e+9 
           1512      6.96823e+9 
           1517      7.27188e+9 
           1525      7.52803e+9 
           1535      6.18123e+9 
           1545      5.84927e+9 
           1555      5.75449e+9 
           1565      6.45149e+9 
           1575      7.00464e+9 
           1585      7.12348e+9 
           1595      6.97801e+9 
           1605      7.12167e+9 
           1615      6.96644e+9 
           1625      6.86027e+9 
           1635      7.40712e+9 
           1645       7.4631e+9 
           1655      7.35008e+9 
           1665      7.50028e+9 
           1672      7.03885e+9 
           1677      7.99545e+9 
           1685      7.65155e+9 
           1695      7.12449e+9 
           1705      7.05024e+9 
           1715      6.52726e+9 
           1725      6.51662e+9 
           1735      6.83957e+9 
           1745       6.6675e+9 
           1755      6.72481e+9 
           1765      6.74726e+9 
           1775       6.1806e+9 
           1785      6.38858e+9 
           1795      6.60499e+9 
           1805      6.71783e+9 
           1815      5.81009e+9 
           1825      6.14825e+9 
           1835       5.9937e+9 
           1845      5.40609e+9 
           1855      5.50321e+9 
           1865      5.59068e+9 
           1875      5.91965e+9 
           1885      5.18089e+9 
           1895       4.7895e+9 
           1905      5.34456e+9 
           1915      4.92554e+9 
           1925      4.64382e+9 
           1935      5.05636e+9 
           1945      5.15328e+9 
           1955      4.55779e+9 
           1967      5.10068e+9 
           1976      5.30846e+9 
           1984      4.94473e+9 
           1995      4.84085e+9 
           2005      5.14532e+9 
           2015      5.07155e+9 
           2025      5.23253e+9 
           2035      4.68398e+9 
           2045      4.84692e+9 
           2055      4.57559e+9 
           2065      4.51963e+9 
           2074      4.94266e+9 
           2078      4.28964e+9 
           2085        4.711e+9 
           2095      4.42331e+9 
           2105      4.59665e+9 
           2115      4.66462e+9 
           2125      4.68765e+9 
           2135      4.64442e+9 
           2145      4.32888e+9 
           2155      4.58473e+9 
           2165       4.6034e+9 
           2175      4.55798e+9 
           2185      4.34883e+9 
           2195      4.46584e+9 
           2205      4.48152e+9 
           2215      4.39492e+9 
           2225      4.27583e+9 
           2235      4.19987e+9 
           2245      4.26584e+9 
           2255       4.1177e+9 
           2265      4.19018e+9 
           2275      4.12955e+9 
           2285      4.14197e+9 
           2295      3.59776e+9 
           2305      3.98496e+9 
           2315      3.85754e+9 
           2325      3.82192e+9 
           2335      3.69549e+9 
           2345      3.75241e+9 
           2355       3.7382e+9 
           2365      3.71528e+9 
           2375      3.63163e+9 
           2385      3.60349e+9 
           2395      3.56144e+9 
           2405      3.50186e+9 
           2415      3.47835e+9 
           2425      3.47092e+9 
           2435      3.36744e+9 
           2445      3.39402e+9 
           2455       3.4028e+9 
           2465      3.33005e+9 
           2475      3.26728e+9 
           2485      3.15795e+9 
           2495      2.41699e+9 
           2505      3.01316e+9 
           2513      2.95995e+9 
           2518      3.09164e+9 
           2525      3.06743e+9 
           2535      3.04205e+9 
           2545      2.91215e+9 
           2555      2.97372e+9 
           2565      2.93208e+9 
           2575      2.95077e+9 
           2585       2.8941e+9 
           2595      2.87307e+9 
           2605      2.85833e+9 
           2615      2.80296e+9 
           2625      2.79159e+9 
           2635      2.77294e+9 
           2645      2.73887e+9 
           2655      2.73394e+9 
           2665      2.60451e+9 
           2675      2.62787e+9 
           2685      2.62406e+9 
           2695      2.52527e+9 
           2705      2.45957e+9 
           2715      2.47731e+9 
           2725      2.48768e+9 
           2735      2.46463e+9 
           2745      2.40836e+9 
           2755      2.40173e+9 
           2765      2.37961e+9 
           2775      2.39615e+9 
           2785      2.35347e+9 
           2795       2.2689e+9 
           2805      2.29513e+9 
           2815      2.29606e+9 
           2825      2.27535e+9 
           2835      2.18279e+9 
           2845      2.20857e+9 
           2855      2.16197e+9 
           2865       2.1715e+9 
           2875      2.14954e+9 
           2885       2.1296e+9 
           2895      2.08686e+9 
           2910      2.04707e+9 
           2930      2.02932e+9 
           2950      1.96782e+9 
           2970      1.94043e+9 
           2990      1.90002e+9 
           3010      1.81905e+9 
           3030      1.82409e+9 
           3050          1.8e+9 
           3070      1.77518e+9 
           3090      1.69736e+9 
           3110      1.69912e+9 
           3130      1.65583e+9 
           3150      1.63308e+9 
           3170      1.58888e+9 
           3190      1.56273e+9 
           3210      1.53981e+9 
           3230      1.50119e+9 
           3250      1.48373e+9 
           3270      1.44697e+9 
           3290      1.42007e+9 
           3310      1.39515e+9 
           3330      1.36479e+9 
           3350       1.3432e+9 
           3370      1.31599e+9 
           3390      1.29845e+9 
           3410      1.27591e+9 
           3430      1.24893e+9 
           3450      1.22278e+9 
           3470      1.20141e+9 
           3490      1.17797e+9 
           3510      1.15905e+9 
           3530      1.14595e+9 
           3550      1.12428e+9 
           3570      1.10646e+9 
           3590      1.07476e+9 
           3610      1.05482e+9 
           3630      1.04317e+9 
           3640      1.04106e+9 
           3650      1.01565e+9 
           3670      1.00408e+9 
           3690      9.73884e+8 
           3710      9.56433e+8 
           3730      9.46691e+8 
           3750      1.00456e+9 
           3770      9.90641e+8 
           3790      9.98599e+8 
           3810      1.02139e+9 
           3830      9.32726e+8 
           3850        1.005e+9 
           3870      9.74241e+8 
           3890      8.95336e+8 
           3910      9.67544e+8 
           3930      9.31914e+8 
           3950      9.25688e+8 
           3970      8.29522e+8 
           3990      8.99128e+8 
           4010      8.86925e+8 
           4030      8.56687e+8 
           4050      8.55872e+8 
           4070      8.21077e+8 
           4090      7.94149e+8 
           4110      7.42036e+8 
           4130      7.85842e+8 
           4150      7.79467e+8 
           4170      7.74067e+8 
           4190      7.65407e+8 
           4210      7.58216e+8 
           4230      7.41967e+8 
           4250      7.23028e+8 
           4270      7.04845e+8 
           4290       6.9575e+8 
           4310      6.76613e+8 
           4330      6.51991e+8 
           4350      6.11686e+8 
           4370       6.4587e+8 
           4390      6.46039e+8 
           4410      6.36338e+8 
           4430      6.30279e+8 
           4450       6.2025e+8 
           4470      6.04041e+8 
           4490      6.03605e+8 
           4510      5.96837e+8 
           4530      5.88072e+8 
           4550      5.80275e+8 
           4570       5.7059e+8 
           4590      5.61426e+8 
           4610      5.48552e+8 
           4630      5.41416e+8 
           4650      5.22482e+8 
           4670      5.25669e+8 
           4690      5.22171e+8 
           4710      5.04279e+8 
           4730      5.04654e+8 
           4750       4.9644e+8 
           4770      4.96772e+8 
           4790      4.88199e+8 
           4810      4.78872e+8 
           4830      4.71798e+8 
           4850      4.59475e+8 
           4870      4.23193e+8 
           4890      4.53469e+8 
           4910      4.47345e+8 
           4930      4.35492e+8 
           4950       4.3241e+8 
           4970      4.30325e+8 
           4990      4.23327e+8 
           5010      4.06551e+8 
           5030      4.10814e+8 
           5050      4.02441e+8 
           5070      4.00224e+8 
           5090       3.9409e+8 
           5110      3.87967e+8 
           5130      3.79408e+8 
           5150      3.75998e+8 
           5170       3.7301e+8 
           5190      3.68476e+8 
           5210      3.62808e+8 
           5230      3.58124e+8 
           5250      3.53623e+8 
           5270      3.47906e+8 
           5290      3.44351e+8 
           5310      3.39331e+8 
           5330      3.35396e+8 
           5350      3.30669e+8 
           5370      3.26852e+8 
           5390      3.22123e+8 
           5410      3.18497e+8 
           5430      3.13995e+8 
           5450      3.09767e+8 
           5470      3.05794e+8 
           5490      3.01833e+8 
           5510      2.98715e+8 
           5530      2.94069e+8 
           5550      2.91306e+8 
           5570      2.87202e+8 
           5590      2.83921e+8 
           5610      2.80188e+8 
           5630      2.76929e+8 
           5650      2.72222e+8 
           5670      2.67493e+8 
           5690      2.63067e+8 
           5710       2.6206e+8 
           5730      2.59132e+8 
           5750      2.54997e+8 
           5770      2.53515e+8 
           5790      2.50036e+8 
           5810      2.47112e+8 
           5830      2.43369e+8 
           5850      2.40948e+8 
           5870      2.33296e+8 
           5890      2.33202e+8 
           5910      2.31508e+8 
           5930      2.28149e+8 
           5950      2.25319e+8 
           5970       2.2451e+8 
           5990      2.20378e+8 
           6010      2.18726e+8 
           6030      2.15516e+8 
           6050       2.1327e+8 
           6070      2.11304e+8 
           6090      2.08893e+8 
           6110      2.06418e+8 
           6130      2.04191e+8 
           6150      2.00743e+8 
           6170      1.98702e+8 
           6190      1.96899e+8 
           6210       1.9489e+8 
           6230      1.92757e+8 
           6250      1.90069e+8 
           6270      1.88073e+8 
           6290      1.86127e+8 
           6310      1.83813e+8 
           6330      1.82014e+8 
           6350      1.79393e+8 
           6370       1.7786e+8 
           6390       1.7577e+8 
           6410      1.73868e+8 
           6430      1.72069e+8 
           6450      1.70079e+8 
           6470      1.67599e+8 
           6490      1.65753e+8 
           6510      1.64354e+8 
           6530      1.62298e+8 
           6550      1.59236e+8 
           6570      1.44775e+8 
           6590       1.5586e+8 
           6610      1.55297e+8 
           6630      1.53856e+8 
           6650      1.52055e+8 
           6670      1.49586e+8 
           6690      1.48045e+8 
           6710      1.47415e+8 
           6730      1.45359e+8 
           6750      1.44325e+8 
           6770      1.42808e+8 
           6790      1.40072e+8 
           6810      1.39535e+8 
           6830      1.38032e+8 
           6850      1.36778e+8 
           6870      1.35312e+8 
           6890       1.3371e+8 
           6910      1.32133e+8 
           6930       1.3112e+8 
           6950      1.29782e+8 
           6970      1.28449e+8 
           6990      1.27059e+8 
           7010      1.25745e+8 
           7030      1.24413e+8 
           7050      1.23162e+8 
           7070      1.20145e+8 
           7090      1.20675e+8 
           7110      1.18305e+8 
           7130      1.17235e+8 
           7150         1.17e+8 
           7170      1.15821e+8 
           7190      1.14682e+8 
           7210       1.1351e+8 
           7230      1.10634e+8 
           7250      1.10964e+8 
           7270       1.1009e+8 
           7290      1.08225e+8 
           7310      1.07881e+8 
           7330      1.06753e+8 
           7350      1.05775e+8 
           7370      1.04751e+8 
           7390      1.03716e+8 
           7410       1.0269e+8 
           7430      1.01646e+8 
           7450      1.00667e+8 
           7470      9.91566e+7 
           7490      9.86412e+7 
           7510      9.76957e+7 
           7530      9.66857e+7 
           7550      9.58701e+7 
           7570        9.495e+7 
           7590      9.39991e+7 
           7610      9.29657e+7 
           7630      9.21878e+7 
           7650      9.13202e+7 
           7670      9.04667e+7 
           7690       8.9589e+7 
           7710      8.87002e+7 
           7730       8.7832e+7 
           7750      8.70719e+7 
           7770      8.59254e+7 
           7790      8.54537e+7 
           7810      8.45966e+7 
           7830      8.38516e+7 
           7850      8.30703e+7 
           7870      8.21803e+7 
           7890      8.12316e+7 
           7910      8.06528e+7 
           7930      7.98271e+7 
           7950      7.90862e+7 
           7970      7.83814e+7 
           7990      7.76708e+7 
           8010       7.6937e+7 
           8030      7.62738e+7 
           8050      7.56453e+7 
           8070        7.497e+7 
           8090      7.41968e+7 
           8110      7.31784e+7 
           8130      7.29784e+7 
           8150      7.22123e+7 
           8170      7.17068e+7 
           8190      7.07392e+7 
           8210      6.99422e+7 
           8230      6.91855e+7 
           8250      6.89557e+7 
           8270      6.76806e+7 
           8290      6.76231e+7 
           8310      6.70743e+7 
           8330      6.65028e+7 
           8350      6.56551e+7 
           8370      6.50782e+7 
           8390      6.46399e+7 
           8410      6.39813e+7 
           8430      6.34448e+7 
           8450      6.25117e+7 
           8470       6.1949e+7 
           8490      6.20599e+7 
           8510      6.05201e+7 
           8530       6.1267e+7 
           8550      5.87801e+7 
           8570       6.0881e+7 
           8590      5.83872e+7 
