# Kurucz ODFNEW /NOVER (2003)
# teff = 21000 K (value for the effective temperature for the model. Temperatures are given in K)
# logg = 3.5 log(cm/s2) (value for Log(G) for the model.)
# meta = 0.5  (value for the Metallicity for the model.)
# lh = 1.25  (l/Hp where l is the  mixing length of the convective element and Hp is the pressure scale height)
# vtur = 2 km/s (Microturbulence velocity)
# alpha = 0.4  (Alpha)
#
# column 1: WAVELENGTH (ANGSTROM), Wavelength in Angstrom
# column 2: FLUX (ERG/CM2/S/A), Flux in erg/cm2/s/A
          147.2     2.51601e-19 
            151     1.41077e-18 
          155.2     8.62784e-18 
          158.8      3.7859e-17 
            162     1.33803e-16 
            166      6.0712e-16 
          170.3     2.84034e-15 
          173.4     8.34974e-15 
          176.8     2.59483e-14 
          180.2     7.74097e-14 
          181.7     1.23648e-13 
          186.1     4.70971e-13 
            191     1.95516e-12 
          193.9     4.38562e-12 
          198.4     1.46959e-11 
          201.8     3.54247e-11 
            205      7.9058e-11 
          210.5     2.97675e-10 
          216.2      1.09886e-9 
          219.8      2.42521e-9 
            223      4.80167e-9 
          226.8      1.05501e-8 
            230      1.20753e-7 
            234      3.08196e-7 
            240      9.13242e-7 
          246.5       2.7736e-6 
          252.4       7.3086e-6 
          256.8      1.42337e-5 
            260       2.4328e-5 
            264      4.37528e-5 
          268.5      8.32552e-5 
          273.5     0.000164718 
          278.5     0.000322523 
            284     0.000692682 
            290      0.00144071 
            296      0.00291959 
            301      0.00513943 
            308       0.0116477 
            318       0.0333459 
            328        0.085344 
            338        0.218871 
            348        0.515645 
            357         2.18735 
            366         4.59367 
            375         8.26675 
            385         15.9186 
            395         30.9569 
            405         54.9022 
            414         91.7206 
            422         139.299 
            430         213.935 
            441         367.119 
            451         579.557 
            460         852.074 
            470         1316.34 
            480         1964.09 
            490         2932.56 
            500         4265.18 
            506         22329.9 
            512          449815 
            520          540629 
            530          733650 
            540          799090 
            550      1.32945e+6 
            560       1.6232e+6 
            570      2.13515e+6 
            580      2.11871e+6 
            590      3.14046e+6 
            600      3.84944e+6 
            610       4.8911e+6 
            620      5.41651e+6 
            630      6.00071e+6 
            640      5.61847e+6 
            650      3.94001e+6 
            658      6.98112e+6 
            665      8.79667e+6 
            675      9.50371e+6 
            685      9.97975e+6 
            695      1.37035e+7 
            705      1.43309e+7 
            716       1.6624e+7 
            726      1.73528e+7 
            735      1.90894e+7 
            745      2.25064e+7 
            755      2.48115e+7 
            765      2.75158e+7 
            775      3.03554e+7 
            785      3.31187e+7 
            795      3.48336e+7 
            805      3.70634e+7 
            815      3.94065e+7 
            825      4.38548e+7 
            835      3.70972e+7 
            845      4.68262e+7 
            855      4.89618e+7 
            865      5.34916e+7 
            875      5.78115e+7 
            885      6.47567e+7 
            895      6.92389e+7 
            905      6.63649e+7 
            915      1.22685e+8 
            925      1.28448e+9 
            935      3.05564e+9 
            945      5.73305e+9 
            955      7.91854e+9 
            965      7.58415e+9 
            975      9.96686e+8 
            985      4.80238e+9 
            995      6.33689e+9 
           1005      9.32214e+9 
           1015      9.68312e+9 
           1025      5.56439e+9 
           1035      6.32287e+9 
           1045     1.33232e+10 
           1055      1.2116e+10 
           1065       7.8297e+9 
           1075     1.08465e+10 
           1085      9.23627e+9 
           1095     1.15621e+10 
           1105       8.7766e+9 
           1115      6.79687e+9 
           1125      5.61273e+9 
           1135     1.02422e+10 
           1145      8.79133e+9 
           1155      9.62675e+9 
           1165      9.66593e+9 
           1175      4.96785e+9 
           1185      9.28178e+9 
           1195      5.76032e+9 
           1205      1.48092e+9 
           1215      3.33646e+9 
           1225      7.40568e+9 
           1235     1.03273e+10 
           1245     1.01202e+10 
           1255       9.9034e+9 
           1265      9.64268e+9 
           1275     1.00185e+10 
           1285     1.02319e+10 
           1295      3.95571e+9 
           1305      4.12826e+9 
           1315       9.6377e+9 
           1325      8.97305e+9 
           1335      8.14326e+9 
           1345      9.24484e+9 
           1355      9.01327e+9 
           1365      7.38931e+9 
           1375      7.25413e+9 
           1385       6.6894e+9 
           1395      3.98987e+9 
           1405      4.75448e+9 
           1415      5.78747e+9 
           1425      6.33045e+9 
           1435      6.64135e+9 
           1442       7.0142e+9 
           1447      6.87675e+9 
           1455      6.58744e+9 
           1465      5.85186e+9 
           1475      6.16949e+9 
           1485      6.08873e+9 
           1495      5.95849e+9 
           1505      5.14326e+9 
           1512      4.51058e+9 
           1517      4.79881e+9 
           1525      5.08327e+9 
           1535      4.14555e+9 
           1545      4.05197e+9 
           1555      4.00999e+9 
           1565       4.3353e+9 
           1575      4.69107e+9 
           1585      4.84591e+9 
           1595      4.75883e+9 
           1605      4.99191e+9 
           1615      5.00496e+9 
           1625      4.74239e+9 
           1635       5.2639e+9 
           1645      5.25718e+9 
           1655      5.01118e+9 
           1665      5.38209e+9 
           1672      5.09361e+9 
           1677      5.51123e+9 
           1685      5.53957e+9 
           1695      5.08902e+9 
           1705      4.93606e+9 
           1715      4.53053e+9 
           1725      4.51904e+9 
           1735      4.88222e+9 
           1745      4.67796e+9 
           1755      4.77758e+9 
           1765      4.62201e+9 
           1775      4.29243e+9 
           1785      4.45079e+9 
           1795      4.82413e+9 
           1805      4.94358e+9 
           1815       4.0853e+9 
           1825      4.43699e+9 
           1835      4.18772e+9 
           1845      3.74414e+9 
           1855      3.61958e+9 
           1865      3.72416e+9 
           1875      4.24262e+9 
           1885      3.62466e+9 
           1895       3.3362e+9 
           1905       3.8335e+9 
           1915       3.3694e+9 
           1925        3.238e+9 
           1935      3.56724e+9 
           1945      3.58652e+9 
           1955      3.18877e+9 
           1967      3.67841e+9 
           1976      3.82511e+9 
           1984      3.51888e+9 
           1995      3.42708e+9 
           2005      3.71667e+9 
           2015      3.54737e+9 
           2025      3.75827e+9 
           2035      3.34608e+9 
           2045      3.52432e+9 
           2055      3.34282e+9 
           2065      3.29533e+9 
           2074      3.56842e+9 
           2078      3.08872e+9 
           2085      3.40755e+9 
           2095      3.17124e+9 
           2105      3.29881e+9 
           2115      3.35991e+9 
           2125      3.37458e+9 
           2135      3.27965e+9 
           2145       3.1255e+9 
           2155      3.31178e+9 
           2165      3.32345e+9 
           2175       3.2897e+9 
           2185       3.0997e+9 
           2195      3.20562e+9 
           2205      3.20614e+9 
           2215      3.10062e+9 
           2225      2.98773e+9 
           2235      3.01641e+9 
           2245      3.05717e+9 
           2255      2.88936e+9 
           2265      3.01363e+9 
           2275      2.97846e+9 
           2285      3.00216e+9 
           2295      2.66692e+9 
           2305      2.85889e+9 
           2315      2.72444e+9 
           2325      2.68147e+9 
           2335      2.53384e+9 
           2345       2.5803e+9 
           2355      2.59036e+9 
           2365      2.54708e+9 
           2375      2.53329e+9 
           2385      2.49355e+9 
           2395      2.52919e+9 
           2405      2.41616e+9 
           2415      2.45433e+9 
           2425      2.46565e+9 
           2435      2.35267e+9 
           2445      2.41357e+9 
           2455      2.42007e+9 
           2465      2.35788e+9 
           2475      2.30018e+9 
           2485      2.28085e+9 
           2495      1.90972e+9 
           2505      2.20609e+9 
           2513      2.10265e+9 
           2518      2.22829e+9 
           2525      2.15598e+9 
           2535       2.1434e+9 
           2545      1.99305e+9 
           2555       2.1135e+9 
           2565      2.07752e+9 
           2575      2.14312e+9 
           2585      2.11236e+9 
           2595      2.09886e+9 
           2605      2.07911e+9 
           2615      2.04886e+9 
           2625      2.03984e+9 
           2635      2.03394e+9 
           2645      2.03226e+9 
           2655      2.03681e+9 
           2665      1.90942e+9 
           2675      1.96166e+9 
           2685      1.94389e+9 
           2695      1.86543e+9 
           2705      1.81841e+9 
           2715      1.82752e+9 
           2725      1.83012e+9 
           2735       1.8362e+9 
           2745      1.75385e+9 
           2755      1.75484e+9 
           2765      1.75355e+9 
           2775      1.78898e+9 
           2785      1.75726e+9 
           2795      1.66301e+9 
           2805      1.70959e+9 
           2815      1.71962e+9 
           2825      1.70587e+9 
           2835      1.60418e+9 
           2845      1.62062e+9 
           2855      1.60351e+9 
           2865      1.63208e+9 
           2875      1.60894e+9 
           2885      1.59297e+9 
           2895      1.56153e+9 
           2910      1.53942e+9 
           2930      1.52352e+9 
           2950       1.4767e+9 
           2970      1.46098e+9 
           2990      1.43008e+9 
           3010      1.37338e+9 
           3030      1.38396e+9 
           3050      1.36165e+9 
           3070      1.34621e+9 
           3090      1.28587e+9 
           3110      1.28637e+9 
           3130      1.25675e+9 
           3150      1.24092e+9 
           3170      1.20315e+9 
           3190      1.17879e+9 
           3210      1.16721e+9 
           3230      1.14132e+9 
           3250      1.12885e+9 
           3270      1.10466e+9 
           3290       1.0835e+9 
           3310      1.06601e+9 
           3330      1.04227e+9 
           3350      1.02523e+9 
           3370      1.00434e+9 
           3390      9.92758e+8 
           3410      9.76222e+8 
           3430      9.54048e+8 
           3450      9.33871e+8 
           3470      9.17693e+8 
           3490      8.99627e+8 
           3510      8.87142e+8 
           3530      8.77873e+8 
           3550       8.6227e+8 
           3570      8.50242e+8 
           3590      8.21999e+8 
           3610      8.08725e+8 
           3630      8.01496e+8 
           3640      8.02046e+8 
           3650       7.8858e+8 
           3670      7.81127e+8 
           3690      7.59457e+8 
           3710       7.3621e+8 
           3730      7.20159e+8 
           3750      7.90563e+8 
           3770      7.88346e+8 
           3790      8.20385e+8 
           3810      8.52644e+8 
           3830      7.47275e+8 
           3850      8.48871e+8 
           3870      8.35189e+8 
           3890      7.12425e+8 
           3910      8.43102e+8 
           3930      8.02882e+8 
           3950      8.02305e+8 
           3970      6.61366e+8 
           3990      7.73805e+8 
           4010      7.72173e+8 
           4030      7.29989e+8 
           4050      7.43215e+8 
           4070      7.01929e+8 
           4090      6.70465e+8 
           4110      6.02358e+8 
           4130      6.73046e+8 
           4150      6.68871e+8 
           4170      6.69598e+8 
           4190      6.65667e+8 
           4210      6.62078e+8 
           4230      6.45453e+8 
           4250      6.25272e+8 
           4270      6.03415e+8 
           4290      5.99296e+8 
           4310      5.80423e+8 
           4330      5.42482e+8 
           4350      4.99638e+8 
           4370      5.51653e+8 
           4390      5.54242e+8 
           4410       5.4882e+8 
           4430      5.43319e+8 
           4450      5.38217e+8 
           4470      5.16971e+8 
           4490      5.20504e+8 
           4510      5.21103e+8 
           4530      5.10031e+8 
           4550      5.05139e+8 
           4570      4.96758e+8 
           4590      4.88326e+8 
           4610      4.74756e+8 
           4630      4.68572e+8 
           4650      4.54584e+8 
           4670      4.55795e+8 
           4690      4.54296e+8 
           4710      4.31461e+8 
           4730      4.35363e+8 
           4750      4.29267e+8 
           4770      4.32944e+8 
           4790      4.23408e+8 
           4810      4.11867e+8 
           4830       4.0596e+8 
           4850      3.86411e+8 
           4870      3.45709e+8 
           4890      3.91333e+8 
           4910      3.86416e+8 
           4930      3.73305e+8 
           4950      3.74462e+8 
           4970      3.73818e+8 
           4990      3.66712e+8 
           5010       3.4647e+8 
           5030      3.54068e+8 
           5050      3.43352e+8 
           5070      3.46393e+8 
           5090      3.39997e+8 
           5110      3.33215e+8 
           5130      3.24123e+8 
           5150      3.22505e+8 
           5170      3.22058e+8 
           5190      3.17791e+8 
           5210      3.08958e+8 
           5230      3.09312e+8 
           5250      3.05744e+8 
           5270      2.99819e+8 
           5290      2.98108e+8 
           5310      2.93222e+8 
           5330      2.88612e+8 
           5350      2.83839e+8 
           5370      2.82473e+8 
           5390      2.78461e+8 
           5410      2.74759e+8 
           5430      2.69864e+8 
           5450      2.66403e+8 
           5470      2.62267e+8 
           5490      2.60447e+8 
           5510      2.57816e+8 
           5530      2.53232e+8 
           5550      2.51398e+8 
           5570      2.47592e+8 
           5590      2.45365e+8 
           5610      2.41321e+8 
           5630      2.39502e+8 
           5650       2.3198e+8 
           5670       2.2853e+8 
           5690      2.26612e+8 
           5710      2.25767e+8 
           5730      2.23849e+8 
           5750      2.20118e+8 
           5770      2.19002e+8 
           5790      2.16042e+8 
           5810      2.13162e+8 
           5830      2.09929e+8 
           5850       2.0788e+8 
           5870      1.99774e+8 
           5890      2.00005e+8 
           5910      1.99053e+8 
           5930      1.96738e+8 
           5950      1.93119e+8 
           5970      1.93624e+8 
           5990      1.89698e+8 
           6010      1.88938e+8 
           6030      1.85977e+8 
           6050      1.84029e+8 
           6070      1.82266e+8 
           6090      1.79822e+8 
           6110         1.78e+8 
           6130      1.76219e+8 
           6150      1.71629e+8 
           6170      1.71022e+8 
           6190       1.6989e+8 
           6210      1.68055e+8 
           6230      1.66279e+8 
           6250      1.63104e+8 
           6270      1.61758e+8 
           6290       1.6016e+8 
           6310       1.5786e+8 
           6330      1.56807e+8 
           6350      1.53541e+8 
           6370      1.52662e+8 
           6390      1.51062e+8 
           6410      1.49516e+8 
           6430      1.48405e+8 
           6450      1.46327e+8 
           6470      1.44083e+8 
           6490      1.42704e+8 
           6510      1.41224e+8 
           6530      1.39009e+8 
           6550      1.34508e+8 
           6570      1.18487e+8 
           6590       1.3295e+8 
           6610      1.33552e+8 
           6630      1.32456e+8 
           6650      1.30817e+8 
           6670      1.28374e+8 
           6690      1.27161e+8 
           6710      1.26881e+8 
           6730      1.25072e+8 
           6750      1.24365e+8 
           6770      1.23081e+8 
           6790      1.19832e+8 
           6810      1.19966e+8 
           6830      1.18537e+8 
           6850      1.17798e+8 
           6870      1.16506e+8 
           6890      1.15125e+8 
           6910      1.13757e+8 
           6930      1.12654e+8 
           6950      1.11788e+8 
           6970      1.10652e+8 
           6990      1.09356e+8 
           7010      1.08135e+8 
           7030      1.07056e+8 
           7050      1.05896e+8 
           7070      1.02946e+8 
           7090      1.03693e+8 
           7110       1.0071e+8 
           7130      9.98794e+7 
           7150      1.00302e+8 
           7170      9.96108e+7 
           7190      9.87368e+7 
           7210      9.77332e+7 
           7230      9.46492e+7 
           7250      9.53318e+7 
           7270      9.47652e+7 
           7290      9.30409e+7 
           7310      9.28356e+7 
           7330      9.18739e+7 
           7350      9.10817e+7 
           7370      9.01927e+7 
           7390      8.92913e+7 
           7410      8.84189e+7 
           7430       8.7227e+7 
           7450       8.6542e+7 
           7470      8.49788e+7 
           7490       8.4727e+7 
           7510      8.39958e+7 
           7530      8.30585e+7 
           7550      8.24803e+7 
           7570      8.17229e+7 
           7590      8.07827e+7 
           7610      8.00009e+7 
           7630      7.93296e+7 
           7650      7.85806e+7 
           7670      7.78576e+7 
           7690        7.709e+7 
           7710      7.63547e+7 
           7730      7.55314e+7 
           7750      7.49288e+7 
           7770      7.31645e+7 
           7790       7.3528e+7 
           7810      7.27875e+7 
           7830      7.21704e+7 
           7850      7.11428e+7 
           7870      7.05263e+7 
           7890      6.94793e+7 
           7910       6.9315e+7 
           7930      6.86663e+7 
           7950      6.75523e+7 
           7970      6.73086e+7 
           7990      6.61754e+7 
           8010      6.61448e+7 
           8030      6.55411e+7 
           8050      6.49194e+7 
           8070      6.44534e+7 
           8090      6.37437e+7 
           8110      6.28912e+7 
           8130      6.26734e+7 
           8150      6.20826e+7 
           8170      6.16774e+7 
           8190      6.07138e+7 
           8210      6.00439e+7 
           8230      5.92129e+7 
           8250      5.93634e+7 
           8270      5.81072e+7 
           8290      5.82164e+7 
           8310      5.76855e+7 
           8330      5.73057e+7 
           8350      5.64696e+7 
           8370      5.59957e+7 
           8390       5.5729e+7 
           8410       5.5166e+7 
           8430       5.4613e+7 
           8450      5.33523e+7 
           8470      5.34315e+7 
           8490      5.31905e+7 
           8510      5.21136e+7 
           8530      5.26151e+7 
           8550      5.03368e+7 
           8570      5.25611e+7 
