# Kurucz ODFNEW /NOVER (2003)
# teff = 8250 K (value for the effective temperature for the model. Temperatures are given in K)
# logg = 1.5 log(cm/s2) (value for Log(G) for the model.)
# meta = -4  (value for the Metallicity for the model.)
# lh = 1.25  (l/Hp where l is the  mixing length of the convective element and Hp is the pressure scale height)
# vtur = 2 km/s (Microturbulence velocity)
# alpha = 0.4  (Alpha)
#
# column 1: WAVELENGTH (ANGSTROM), Wavelength in Angstrom
# column 2: FLUX (ERG/CM2/S/A), Flux in erg/cm2/s/A
          147.2     1.73866e-35 
            151     1.65225e-35 
          155.2     1.56403e-35 
          158.8     1.49392e-35 
            162     1.43549e-35 
            166     1.36714e-35 
          170.3     1.29897e-35 
          173.4     1.25294e-35 
          176.8     1.20522e-35 
          180.2     1.16017e-35 
          181.7     1.14109e-35 
          186.1     1.08777e-35 
            191     1.03267e-35 
          193.9     1.00201e-35 
          198.4     9.57076e-36 
          201.8     9.25097e-36 
            205     8.96441e-36 
          210.5     8.50208e-36 
          216.2     8.05969e-36 
          219.8     7.79784e-36 
            223     7.57565e-36 
          226.8     7.32392e-36 
            230     7.12154e-36 
            234     6.88015e-36 
            240     6.54044e-36 
          246.5     6.20006e-36 
          252.4     5.91358e-36 
          256.8     5.71267e-36 
            260     5.57292e-36 
            264     5.40532e-36 
          268.5     5.22566e-36 
          273.5     5.03634e-36 
          278.5     4.85712e-36 
            284     5.33641e-23 
            290     3.04519e-22 
            296     1.48106e-21 
            301     5.25586e-21 
            308      2.8736e-20 
            318     2.84164e-19 
            328     2.43471e-18 
            338      1.8293e-17 
            348     1.22036e-16 
            357     6.12142e-16 
            366     2.83596e-15 
            375     1.21644e-14 
            385     5.65558e-14 
            395       2.423e-13 
            405     9.64211e-13 
            414     3.15348e-12 
            422     8.64927e-12 
            430      2.2836e-11 
            441     8.17767e-11 
            451     2.46392e-10 
            460     6.37485e-10 
            470      1.75506e-9 
            480      4.62327e-9 
            490      1.16982e-8 
            500      2.84401e-8 
            506      1.12307e-7 
            512      2.33214e-7 
            520      4.45485e-7 
            530      9.86953e-7 
            540      2.05883e-6 
            550      4.28625e-6 
            560      8.56507e-6 
            570      1.66716e-5 
            580      3.10768e-5 
            590      5.87486e-5 
            600     0.000106677 
            610       0.0001896 
            620     0.000330246 
            630     0.000564439 
            640     0.000947526 
            650      0.00156381 
            658      0.00230694 
            665      0.00321471 
            675      0.00509797 
            685      0.00796814 
            695       0.0122832 
            705       0.0186847 
            716       0.0291974 
            726       0.0432547 
            735       0.0610047 
            745       0.0884494 
            755        0.126866 
            765        0.180098 
            775         0.25315 
            785        0.352486 
            795        0.486361 
            805        0.665181 
            815        0.901973 
            825         1.21328 
            835         1.61936 
            845         2.14517 
            855          2.8211 
            865         3.68404 
            875         4.77884 
            885         6.15918 
            895         7.88897 
            905         10.0431 
            915         20.5823 
            925         79.3372 
            935         123.039 
            945          213.81 
            955         384.526 
            965         379.187 
            975         244.784 
            985         15980.9 
            995          101178 
           1005         7845.85 
           1015         613.642 
           1025         599.719 
           1035         1009.32 
           1045         42415.6 
           1055      1.04429e+6 
           1065      3.50814e+6 
           1075      5.67755e+6 
           1085      6.70239e+6 
           1095      6.35305e+6 
           1105      5.78226e+6 
           1115      4.86751e+6 
           1125      3.49516e+6 
           1135      2.56155e+6 
           1145      1.43939e+6 
           1155          656186 
           1165          149742 
           1175         6925.95 
           1185      2.44052e+6 
           1195         5655.59 
           1205         4210.11 
           1215         3091.98 
           1225          4933.1 
           1235         8449.35 
           1245         3606.82 
           1255         8188.41 
           1265           69817 
           1275          321453 
           1285      1.11281e+6 
           1295      1.86884e+6 
           1305      2.72754e+6 
           1315      3.96854e+6 
           1325      5.28907e+6 
           1335      6.42114e+6 
           1345      7.85935e+6 
           1355      8.83373e+6 
           1365      1.00045e+7 
           1375      1.07639e+7 
           1385      1.13178e+7 
           1395      1.19144e+7 
           1405      1.36377e+7 
           1415      1.53599e+7 
           1425      1.62727e+7 
           1435      1.68235e+7 
           1442      1.77813e+7 
           1447      1.79745e+7 
           1455      1.85658e+7 
           1465      1.88872e+7 
           1475      1.96362e+7 
           1485      2.00133e+7 
           1495      2.05016e+7 
           1505      2.11132e+7 
           1512      2.14356e+7 
           1517      2.15532e+7 
           1525      2.15917e+7 
           1535      2.17734e+7 
           1545      2.23873e+7 
           1555      2.22016e+7 
           1565      2.14296e+7 
           1575      2.23642e+7 
           1585      2.26512e+7 
           1595      2.31722e+7 
           1605      2.29341e+7 
           1615      2.31911e+7 
           1625      2.29736e+7 
           1635      2.33093e+7 
           1645      2.37688e+7 
           1655      2.27879e+7 
           1665      2.42707e+7 
           1672      2.35437e+7 
           1677      2.40492e+7 
           1685      2.43574e+7 
           1695       2.4219e+7 
           1705      2.40304e+7 
           1715       2.4376e+7 
           1725       2.4293e+7 
           1735       2.4662e+7 
           1745      2.43604e+7 
           1755      2.45789e+7 
           1765      2.44996e+7 
           1775      2.46523e+7 
           1785      2.43923e+7 
           1795      2.46275e+7 
           1805      2.42548e+7 
           1815      2.42593e+7 
           1825      2.42815e+7 
           1835      2.43387e+7 
           1845      2.41751e+7 
           1855      2.42491e+7 
           1865       2.4201e+7 
           1875      2.42018e+7 
           1885      2.41673e+7 
           1895      2.41321e+7 
           1905      2.39957e+7 
           1915      2.39954e+7 
           1925      2.39877e+7 
           1935      2.36629e+7 
           1945      2.39052e+7 
           1955      2.38436e+7 
           1967      2.37814e+7 
           1976      2.36965e+7 
           1984      2.36608e+7 
           1995       2.3607e+7 
           2005      2.34911e+7 
           2015      2.33411e+7 
           2025      2.33041e+7 
           2035       2.3354e+7 
           2045      2.32847e+7 
           2055      2.29605e+7 
           2065      2.29948e+7 
           2074      2.31679e+7 
           2078      2.31521e+7 
           2085      2.31148e+7 
           2095      2.30577e+7 
           2105      2.30168e+7 
           2115      2.29521e+7 
           2125      2.28868e+7 
           2135      2.28167e+7 
           2145      2.28255e+7 
           2155      2.27537e+7 
           2165      2.25151e+7 
           2175      2.25442e+7 
           2185      2.25948e+7 
           2195      2.26295e+7 
           2205      2.24905e+7 
           2215      2.22841e+7 
           2225      2.22425e+7 
           2235      2.24496e+7 
           2245      2.23615e+7 
           2255      2.21502e+7 
           2265      2.20131e+7 
           2275      2.22036e+7 
           2285      2.21749e+7 
           2295      2.20701e+7 
           2305      2.21314e+7 
           2315      2.20707e+7 
           2325       2.2038e+7 
           2335      2.17709e+7 
           2345      2.12561e+7 
           2355      2.17831e+7 
           2365      2.12558e+7 
           2375      2.16368e+7 
           2385      2.10014e+7 
           2395      2.15062e+7 
           2405      2.14997e+7 
           2415      2.14667e+7 
           2425      2.18339e+7 
           2435      2.17369e+7 
           2445      2.17056e+7 
           2455      2.17742e+7 
           2465      2.16537e+7 
           2475      2.16611e+7 
           2485      2.16348e+7 
           2495       2.1478e+7 
           2505      2.16875e+7 
           2513      2.15359e+7 
           2518      2.16198e+7 
           2525      2.14759e+7 
           2535      2.12845e+7 
           2545      2.14724e+7 
           2555      2.16197e+7 
           2565      2.13816e+7 
           2575      2.14681e+7 
           2585      2.14377e+7 
           2595      2.13819e+7 
           2605      2.13135e+7 
           2615      2.12566e+7 
           2625      2.12557e+7 
           2635      2.13231e+7 
           2645      2.16629e+7 
           2655      2.16481e+7 
           2665      2.15645e+7 
           2675      2.15815e+7 
           2685      2.16248e+7 
           2695      2.15959e+7 
           2705      2.15987e+7 
           2715      2.14813e+7 
           2725      2.14406e+7 
           2735      2.14699e+7 
           2745      2.10228e+7 
           2755      2.11509e+7 
           2765      2.14022e+7 
           2775      2.15594e+7 
           2785      2.15462e+7 
           2795       2.0845e+7 
           2805      2.12142e+7 
           2815      2.15615e+7 
           2825      2.15521e+7 
           2835      2.14955e+7 
           2845      2.15108e+7 
           2855      2.14274e+7 
           2865       2.1469e+7 
           2875      2.14963e+7 
           2885      2.14956e+7 
           2895      2.15164e+7 
           2910      2.15207e+7 
           2930      2.14468e+7 
           2950      2.14332e+7 
           2970      2.14735e+7 
           2990      2.14527e+7 
           3010      2.14671e+7 
           3030      2.14583e+7 
           3050      2.14443e+7 
           3070      2.14077e+7 
           3090      2.14171e+7 
           3110      2.14027e+7 
           3130      2.13839e+7 
           3150      2.13664e+7 
           3170       2.1356e+7 
           3190      2.13171e+7 
           3210      2.13203e+7 
           3230       2.1265e+7 
           3250      2.12823e+7 
           3270      2.12779e+7 
           3290      2.12622e+7 
           3310      2.12429e+7 
           3330      2.12114e+7 
           3350      2.11724e+7 
           3370      2.11563e+7 
           3390      2.11379e+7 
           3410      2.11288e+7 
           3430      2.11028e+7 
           3450      2.10775e+7 
           3470      2.10483e+7 
           3490      2.10209e+7 
           3510      2.09918e+7 
           3530      2.09623e+7 
           3550      2.09309e+7 
           3570      2.08981e+7 
           3590      2.08649e+7 
           3610      2.08313e+7 
           3630      2.07959e+7 
           3640      2.07768e+7 
           3650      2.09153e+7 
           3670      2.06731e+7 
           3690      2.22021e+7 
           3710      2.97325e+7 
           3730       4.3763e+7 
           3750      6.69366e+7 
           3770      6.79273e+7 
           3790      7.57597e+7 
           3810      8.34529e+7 
           3830       6.9008e+7 
           3850      8.74338e+7 
           3870      8.97923e+7 
           3890      6.36169e+7 
           3910      8.78315e+7 
           3930      8.67886e+7 
           3950      8.58974e+7 
           3970      6.02948e+7 
           3990      8.34526e+7 
           4010      8.36437e+7 
           4030        8.263e+7 
           4050      8.17815e+7 
           4070      8.05817e+7 
           4090      7.41924e+7 
           4110      5.92299e+7 
           4130      7.75307e+7 
           4150      7.70324e+7 
           4170      7.61588e+7 
           4190      7.52746e+7 
           4210      7.43954e+7 
           4230       7.3523e+7 
           4250      7.26678e+7 
           4270      7.18255e+7 
           4290      7.09772e+7 
           4310      6.98576e+7 
           4330        6.194e+7 
           4350      5.33165e+7 
           4370      6.73765e+7 
           4390      6.69203e+7 
           4410      6.62198e+7 
           4430       6.5462e+7 
           4450       6.4717e+7 
           4470      6.38997e+7 
           4490      6.32383e+7 
           4510      6.25342e+7 
           4530      6.18272e+7 
           4550      6.11247e+7 
           4570      6.04393e+7 
           4590      5.97618e+7 
           4610      5.90955e+7 
           4630      5.84314e+7 
           4650      5.77817e+7 
           4670      5.71376e+7 
           4690       5.6504e+7 
           4710      5.58621e+7 
           4730      5.52594e+7 
           4750      5.46498e+7 
           4770      5.40484e+7 
           4790      5.34551e+7 
           4810      5.28243e+7 
           4830      5.19889e+7 
           4850      4.68427e+7 
           4870      3.84673e+7 
           4890      5.01332e+7 
           4910      4.99788e+7 
           4930      4.94904e+7 
           4950      4.89837e+7 
           4970      4.84575e+7 
           4990      4.79398e+7 
           5010      4.74122e+7 
           5030      4.69212e+7 
           5050      4.64189e+7 
           5070      4.59317e+7 
           5090       4.5445e+7 
           5110      4.49658e+7 
           5130      4.44928e+7 
           5150      4.40272e+7 
           5170      4.35603e+7 
           5190      4.31078e+7 
           5210      4.26623e+7 
           5230      4.22181e+7 
           5250      4.17823e+7 
           5270      4.13505e+7 
           5290      4.09239e+7 
           5310      4.05027e+7 
           5330      4.00892e+7 
           5350      3.96795e+7 
           5370      3.92747e+7 
           5390      3.88749e+7 
           5410      3.84812e+7 
           5430      3.80909e+7 
           5450      3.77066e+7 
           5470      3.73268e+7 
           5490      3.69529e+7 
           5510      3.65821e+7 
           5530      3.62169e+7 
           5550      3.58561e+7 
           5570      3.54995e+7 
           5590      3.51483e+7 
           5610         3.48e+7 
           5630      3.44569e+7 
           5650      3.41178e+7 
           5670      3.37838e+7 
           5690      3.34536e+7 
           5710      3.31261e+7 
           5730      3.28046e+7 
           5750      3.24856e+7 
           5770      3.21714e+7 
           5790      3.18608e+7 
           5810      3.15536e+7 
           5830      3.12499e+7 
           5850      3.09508e+7 
           5870      3.06331e+7 
           5890      3.03635e+7 
           5910      3.00742e+7 
           5930      2.97892e+7 
           5950      2.95073e+7 
           5970      2.92286e+7 
           5990      2.89539e+7 
           6010      2.86823e+7 
           6030      2.84136e+7 
           6050      2.81488e+7 
           6070      2.78859e+7 
           6090      2.76279e+7 
           6110      2.73716e+7 
           6130      2.71191e+7 
           6150      2.68693e+7 
           6170      2.66222e+7 
           6190      2.63777e+7 
           6210      2.61367e+7 
           6230      2.58983e+7 
           6250      2.56624e+7 
           6270        2.543e+7 
           6290       2.5199e+7 
           6310      2.49714e+7 
           6330      2.47471e+7 
           6350      2.45242e+7 
           6370      2.43036e+7 
           6390      2.40871e+7 
           6410      2.38719e+7 
           6430       2.3659e+7 
           6450      2.34491e+7 
           6470      2.32413e+7 
           6490      2.30223e+7 
           6510      2.27557e+7 
           6530       2.2416e+7 
           6550      2.07172e+7 
           6570       1.6607e+7 
           6590      2.16106e+7 
           6610      2.17413e+7 
           6630      2.16249e+7 
           6650      2.14729e+7 
           6670      2.12859e+7 
           6690      2.11024e+7 
           6710      2.09224e+7 
           6730      2.07433e+7 
           6750      2.05652e+7 
           6770      2.03896e+7 
           6790      2.02157e+7 
           6810      2.00436e+7 
           6830       1.9873e+7 
           6850       1.9705e+7 
           6870      1.95385e+7 
           6890      1.93737e+7 
           6910      1.92112e+7 
           6930      1.90495e+7 
           6950      1.88901e+7 
           6970      1.87322e+7 
           6990      1.85766e+7 
           7010      1.84224e+7 
           7030      1.82697e+7 
           7050      1.81185e+7 
           7070      1.79679e+7 
           7090      1.78209e+7 
           7110      1.76739e+7 
           7130      1.75297e+7 
           7150       1.7386e+7 
           7170      1.72437e+7 
           7190      1.71035e+7 
           7210      1.69645e+7 
           7230      1.68268e+7 
           7250      1.66904e+7 
           7270      1.65559e+7 
           7290       1.6422e+7 
           7310      1.62899e+7 
           7330      1.61598e+7 
           7350      1.60301e+7 
           7370      1.59023e+7 
           7390       1.5775e+7 
           7410      1.56495e+7 
           7430      1.55257e+7 
           7450      1.54024e+7 
           7470      1.52809e+7 
           7490      1.51605e+7 
           7510      1.50411e+7 
           7530      1.49228e+7 
           7550      1.48061e+7 
           7570      1.46899e+7 
           7590      1.45753e+7 
           7610      1.44623e+7 
           7630      1.43497e+7 
           7650      1.42388e+7 
           7670      1.41281e+7 
           7690       1.4019e+7 
           7710      1.39115e+7 
           7730      1.38043e+7 
           7750      1.36987e+7 
           7770      1.35914e+7 
           7790      1.34901e+7 
           7810      1.33871e+7 
           7830       1.3285e+7 
           7850      1.31844e+7 
           7870       1.3084e+7 
           7890      1.29851e+7 
           7910      1.28876e+7 
           7930      1.27903e+7 
           7950      1.26944e+7 
           7970      1.25994e+7 
           7990      1.25045e+7 
           8010      1.24116e+7 
           8030      1.23189e+7 
           8050      1.22275e+7 
           8070      1.21363e+7 
           8090      1.20465e+7 
           8110      1.19574e+7 
           8130       1.1869e+7 
           8150      1.17819e+7 
           8170      1.16949e+7 
           8190      1.16092e+7 
           8210      1.15862e+7 
           8230      1.15094e+7 
           8250      1.14343e+7 
           8270      1.13548e+7 
           8290      1.12639e+7 
           8310      1.11487e+7 
           8330      1.10219e+7 
           8350      1.09589e+7 
           8370      1.06894e+7 
           8390      1.07027e+7 
           8410      1.06044e+7 
           8430      1.08706e+7 
           8450      1.08509e+7 
           8470      1.02756e+7 
           8490      1.13541e+7 
           8510       1.0224e+7 
           8530      1.15606e+7 
           8550      9.96882e+6 
           8570      1.17966e+7 
