# Kurucz ODFNEW /NOVER (2003)
# teff = 30000 K (value for the effective temperature for the model. Temperatures are given in K)
# logg = 4.5 log(cm/s2) (value for Log(G) for the model.)
# meta = -2.5  (value for the Metallicity for the model.)
# lh = 1.25  (l/Hp where l is the  mixing length of the convective element and Hp is the pressure scale height)
# vtur = 2 km/s (Microturbulence velocity)
# alpha = 0  (Alpha)
#
# column 1: WAVELENGTH (ANGSTROM), Wavelength in Angstrom
# column 2: FLUX (ERG/CM2/S/A), Flux in erg/cm2/s/A
          147.2      2.98701e-8 
            151      1.03079e-7 
          155.2      3.76666e-7 
          158.8      1.08332e-6 
            162      2.66139e-6 
            166      7.78204e-6 
          170.3       2.3327e-5 
          173.4      4.96416e-5 
          176.8     0.000110207 
          180.2     0.000237207 
          181.7     0.000329627 
          186.1     0.000838453 
            191      0.00224999 
          193.9      0.00393752 
          198.4      0.00907279 
          201.8        0.016611 
            205       0.0287937 
          210.5        0.071233 
          216.2        0.173025 
          219.8         0.29546 
            223        0.468266 
          226.8        0.795011 
            230         25.7522 
            234         75.4133 
            240         142.484 
          246.5         275.047 
          252.4         485.978 
          256.8         617.826 
            260          943.05 
            264         1300.52 
          268.5         1883.01 
          273.5         2781.32 
          278.5         4043.41 
            284          6040.3 
            290         9128.86 
            296         13494.9 
            301         17845.8 
            308         25191.3 
            318         50881.8 
            328         86961.8 
            338          144741 
            348          232448 
            357          346493 
            366          509399 
            375          723883 
            385      1.06252e+6 
            395      1.51469e+6 
            405      2.11788e+6 
            414      2.82642e+6 
            422      3.59417e+6 
            430      4.52116e+6 
            441      6.13771e+6 
            451      7.98203e+6 
            460      9.94683e+6 
            470      1.26447e+7 
            480      1.58238e+7 
            490      1.95943e+7 
            500      2.40444e+7 
            506      1.41171e+8 
            512      4.79161e+8 
            520      4.98219e+8 
            530      5.58362e+8 
            540       5.3454e+8 
            550      6.19829e+8 
            560      6.50591e+8 
            570      6.91111e+8 
            580      6.66197e+8 
            590      7.50807e+8 
            600      7.86705e+8 
            610      8.32186e+8 
            620      8.69104e+8 
            630      9.16348e+8 
            640      9.44675e+8 
            650      1.00143e+9 
            658        1.035e+9 
            665      1.06632e+9 
            675       1.1011e+9 
            685      1.12732e+9 
            695      1.21421e+9 
            705      1.23905e+9 
            716      1.30856e+9 
            726      1.35582e+9 
            735      1.41368e+9 
            745      1.46538e+9 
            755      1.51551e+9 
            765      1.56427e+9 
            775      1.62358e+9 
            785      1.68238e+9 
            795      1.72967e+9 
            805       1.7844e+9 
            815      1.83332e+9 
            825      1.89105e+9 
            835      1.88634e+9 
            845      1.99042e+9 
            855      2.03891e+9 
            865        2.094e+9 
            875      2.14816e+9 
            885      2.19941e+9 
            895      2.24874e+9 
            905      2.28547e+9 
            915      2.78025e+9 
            925     1.38522e+10 
            935     2.78742e+10 
            945     5.49132e+10 
            955     6.46205e+10 
            965     8.14769e+10 
            975      4.4409e+10 
            985      8.2539e+10 
            995     7.67025e+10 
           1005     8.03495e+10 
           1015     7.55159e+10 
           1025     3.88625e+10 
           1035     7.04909e+10 
           1045     7.42368e+10 
           1055     7.26432e+10 
           1065     6.89869e+10 
           1075     6.80745e+10 
           1085     6.29789e+10 
           1095     6.57927e+10 
           1105     6.32436e+10 
           1115     6.18415e+10 
           1125     5.90474e+10 
           1135     5.95234e+10 
           1145     5.77066e+10 
           1155      5.6562e+10 
           1165     5.53509e+10 
           1175     4.93374e+10 
           1185     5.23581e+10 
           1195     5.06333e+10 
           1205     4.72694e+10 
           1215     2.52401e+10 
           1225     4.53469e+10 
           1235     4.66013e+10 
           1245     4.52992e+10 
           1255     4.48648e+10 
           1265     4.38946e+10 
           1275     4.29376e+10 
           1285     4.19867e+10 
           1295     4.01479e+10 
           1305     3.95394e+10 
           1315     3.92345e+10 
           1325     3.82089e+10 
           1335     3.69114e+10 
           1345     3.66707e+10 
           1355      3.5916e+10 
           1365     3.50945e+10 
           1375     3.43507e+10 
           1385     3.36208e+10 
           1395     3.22152e+10 
           1405     3.16437e+10 
           1415     3.14784e+10 
           1425     3.07691e+10 
           1435     3.02082e+10 
           1442     2.97997e+10 
           1447     2.94772e+10 
           1455     2.89777e+10 
           1465     2.83816e+10 
           1475      2.7792e+10 
           1485     2.72448e+10 
           1495     2.66759e+10 
           1505     2.60947e+10 
           1512     2.57449e+10 
           1517     2.54854e+10 
           1525     2.50502e+10 
           1535     2.43604e+10 
           1545     2.36246e+10 
           1555     2.31769e+10 
           1565     2.30139e+10 
           1575     2.26482e+10 
           1585     2.22448e+10 
           1595     2.18172e+10 
           1605     2.12479e+10 
           1615     2.08324e+10 
           1625     2.04798e+10 
           1635     1.99609e+10 
           1645     1.90187e+10 
           1655     1.94291e+10 
           1665     1.90809e+10 
           1672     1.88029e+10 
           1677     1.87191e+10 
           1685     1.84236e+10 
           1695     1.80758e+10 
           1705     1.77244e+10 
           1715     1.73326e+10 
           1725      1.7036e+10 
           1735     1.68089e+10 
           1745     1.64943e+10 
           1755     1.61968e+10 
           1765     1.58868e+10 
           1775     1.56282e+10 
           1785     1.53708e+10 
           1795     1.51041e+10 
           1805     1.48528e+10 
           1815      1.4581e+10 
           1825     1.43311e+10 
           1835     1.40903e+10 
           1845     1.37997e+10 
           1855     1.34673e+10 
           1865     1.32843e+10 
           1875     1.31366e+10 
           1885     1.28555e+10 
           1895     1.25628e+10 
           1905     1.24666e+10 
           1915     1.21651e+10 
           1925     1.19577e+10 
           1935     1.18194e+10 
           1945     1.16762e+10 
           1955     1.13974e+10 
           1967     1.12598e+10 
           1976     1.11246e+10 
           1984     1.09413e+10 
           1995     1.06913e+10 
           2005     1.06046e+10 
           2015     1.04504e+10 
           2025     1.02933e+10 
           2035     1.01159e+10 
           2045      9.95688e+9 
           2055      9.25805e+9 
           2065      9.04492e+9 
           2074       9.0025e+9 
           2078      8.91901e+9 
           2085      8.99268e+9 
           2095      9.05896e+9 
           2105      9.06577e+9 
           2115      8.95077e+9 
           2125         8.82e+9 
           2135      8.68551e+9 
           2145      8.55313e+9 
           2155      8.43986e+9 
           2165      8.29135e+9 
           2175      8.19617e+9 
           2185      8.04399e+9 
           2195      7.95757e+9 
           2205      7.84061e+9 
           2215      7.69165e+9 
           2225      7.61202e+9 
           2235      7.50084e+9 
           2245      7.39335e+9 
           2255      7.25288e+9 
           2265      7.18192e+9 
           2275      7.07918e+9 
           2285      6.97782e+9 
           2295      6.81078e+9 
           2305      6.74983e+9 
           2315      6.68517e+9 
           2325      6.59141e+9 
           2335      6.49859e+9 
           2345      6.40896e+9 
           2355      6.31994e+9 
           2365      6.23239e+9 
           2375      6.14609e+9 
           2385      6.03531e+9 
           2395      5.97812e+9 
           2405      5.89712e+9 
           2415       5.8168e+9 
           2425      5.73843e+9 
           2435      5.66045e+9 
           2445      5.58462e+9 
           2455      5.51009e+9 
           2465      5.43658e+9 
           2475      5.36414e+9 
           2485      5.29318e+9 
           2495      5.13815e+9 
           2505      5.15316e+9 
           2513      5.04804e+9 
           2518      5.06497e+9 
           2525      5.02068e+9 
           2535      4.95547e+9 
           2545      4.88903e+9 
           2555      4.82723e+9 
           2565      4.76596e+9 
           2575      4.70487e+9 
           2585      4.64491e+9 
           2595       4.5858e+9 
           2605      4.54972e+9 
           2615      4.49201e+9 
           2625      4.43505e+9 
           2635      4.37633e+9 
           2645      4.31966e+9 
           2655      4.26105e+9 
           2665      4.20166e+9 
           2675       4.1445e+9 
           2685      4.11301e+9 
           2695      4.03757e+9 
           2705      4.01215e+9 
           2715      3.96292e+9 
           2725      3.88747e+9 
           2735      3.85386e+9 
           2745      3.81963e+9 
           2755      3.77354e+9 
           2765      3.69972e+9 
           2775      3.68319e+9 
           2785      3.63896e+9 
           2795      3.59218e+9 
           2805      3.55196e+9 
           2815      3.51051e+9 
           2825      3.43609e+9 
           2835      3.41156e+9 
           2845      3.38772e+9 
           2855      3.34794e+9 
           2865      3.30878e+9 
           2875       3.2703e+9 
           2885      3.23237e+9 
           2895      3.19489e+9 
           2910      3.13975e+9 
           2930      3.06815e+9 
           2950      2.97803e+9 
           2970      2.93097e+9 
           2990      2.86522e+9 
           3010      2.80128e+9 
           3030      2.73943e+9 
           3050      2.67916e+9 
           3070      2.62051e+9 
           3090       2.5629e+9 
           3110        2.508e+9 
           3130      2.45598e+9 
           3150      2.40332e+9 
           3170      2.35195e+9 
           3190      2.28305e+9 
           3210      2.24997e+9 
           3230       2.2054e+9 
           3250      2.15908e+9 
           3270      2.11651e+9 
           3290      2.07029e+9 
           3310      2.03059e+9 
           3330      1.98922e+9 
           3350       1.9457e+9 
           3370      1.90974e+9 
           3390      1.87153e+9 
           3410      1.83426e+9 
           3430      1.79099e+9 
           3450      1.74984e+9 
           3470      1.72022e+9 
           3490      1.68652e+9 
           3510      1.65637e+9 
           3530      1.62726e+9 
           3550      1.59579e+9 
           3570      1.57412e+9 
           3590      1.53374e+9 
           3610      1.50954e+9 
           3630      1.47639e+9 
           3640      1.47313e+9 
           3650      1.45398e+9 
           3670      1.43233e+9 
           3690      1.40492e+9 
           3710      1.35829e+9 
           3730      1.30699e+9 
           3750      1.31165e+9 
           3770      1.28796e+9 
           3790      1.33433e+9 
           3810      1.38049e+9 
           3830      1.21772e+9 
           3850      1.40126e+9 
           3870      1.41147e+9 
           3890      1.14733e+9 
           3910      1.37966e+9 
           3930      1.36287e+9 
           3950      1.33338e+9 
           3970      1.06332e+9 
           3990      1.27787e+9 
           4010      1.26909e+9 
           4030      1.19916e+9 
           4050      1.23661e+9 
           4070      1.21036e+9 
           4090      1.11856e+9 
           4110      9.86065e+8 
           4130       1.1347e+9 
           4150      1.12278e+9 
           4170      1.11208e+9 
           4190      1.09475e+9 
           4210      1.07545e+9 
           4230      1.05768e+9 
           4250      1.03947e+9 
           4270      1.02133e+9 
           4290      1.00335e+9 
           4310      9.81223e+8 
           4330      8.94036e+8 
           4350      8.20095e+8 
           4370      9.30554e+8 
           4390      8.98149e+8 
           4410      9.07532e+8 
           4430      8.89719e+8 
           4450       8.7822e+8 
           4470        8.279e+8 
           4490      8.49207e+8 
           4510      8.36135e+8 
           4530      8.22637e+8 
           4550      8.08669e+8 
           4570      7.96394e+8 
           4590      7.83675e+8 
           4610      7.71288e+8 
           4630      7.59104e+8 
           4650      7.46559e+8 
           4670      7.35376e+8 
           4690      7.20863e+8 
           4710      7.04598e+8 
           4730      7.01633e+8 
           4750      6.90761e+8 
           4770      6.80212e+8 
           4790      6.69782e+8 
           4810      6.58769e+8 
           4830      6.45266e+8 
           4850       5.9801e+8 
           4870      5.38244e+8 
           4890      6.14325e+8 
           4910      6.09112e+8 
           4930      5.87858e+8 
           4950      5.93188e+8 
           4970      5.84474e+8 
           4990      5.75849e+8 
           5010      5.61009e+8 
           5030      5.59088e+8 
           5050       5.4811e+8 
           5070      5.42929e+8 
           5090      5.35079e+8 
           5110       5.2735e+8 
           5130      5.19767e+8 
           5150      5.12329e+8 
           5170      5.05019e+8 
           5190      4.97833e+8 
           5210      4.90785e+8 
           5230      4.83857e+8 
           5250      4.77047e+8 
           5270      4.70354e+8 
           5290      4.63789e+8 
           5310      4.57335e+8 
           5330      4.50992e+8 
           5350      4.44757e+8 
           5370      4.38629e+8 
           5390      4.32605e+8 
           5410      4.26374e+8 
           5430      4.20875e+8 
           5450      4.15154e+8 
           5470      4.09542e+8 
           5490      4.04014e+8 
           5510       3.9858e+8 
           5530      3.93238e+8 
           5550      3.87988e+8 
           5570      3.82826e+8 
           5590      3.77753e+8 
           5610      3.72754e+8 
           5630       3.6784e+8 
           5650       3.6301e+8 
           5670      3.58263e+8 
           5690      3.53549e+8 
           5710      3.48986e+8 
           5730      3.44465e+8 
           5750      3.39999e+8 
           5770      3.35644e+8 
           5790      3.31329e+8 
           5810      3.27098e+8 
           5830      3.22918e+8 
           5850      3.18821e+8 
           5870      3.05609e+8 
           5890      3.10313e+8 
           5910       3.0689e+8 
           5930      3.03045e+8 
           5950      2.99255e+8 
           5970       2.9552e+8 
           5990      2.91849e+8 
           6010      2.88231e+8 
           6030      2.84674e+8 
           6050      2.81169e+8 
           6070      2.77714e+8 
           6090      2.74319e+8 
           6110      2.70961e+8 
           6130      2.67672e+8 
           6150       2.6442e+8 
           6170      2.61224e+8 
           6190      2.58074e+8 
           6210      2.54978e+8 
           6230      2.51917e+8 
           6250      2.48909e+8 
           6270      2.45944e+8 
           6290       2.4303e+8 
           6310      2.40148e+8 
           6330      2.37317e+8 
           6350      2.34526e+8 
           6370      2.31774e+8 
           6390      2.29061e+8 
           6410      2.26387e+8 
           6430      2.23751e+8 
           6450      2.21161e+8 
           6470      2.18599e+8 
           6490      2.16073e+8 
           6510      2.13512e+8 
           6530      2.10201e+8 
           6550      2.01279e+8 
           6570      1.80157e+8 
           6590       2.0207e+8 
           6610      2.01332e+8 
           6630      1.99417e+8 
           6650      1.97273e+8 
           6670      1.93111e+8 
           6690      1.90974e+8 
           6710      1.90715e+8 
           6730      1.88594e+8 
           6750      1.86494e+8 
           6770      1.84432e+8 
           6790      1.82391e+8 
           6810      1.80387e+8 
           6830      1.78404e+8 
           6850      1.76448e+8 
           6870       1.7452e+8 
           6890       1.7262e+8 
           6910      1.70738e+8 
           6930      1.68891e+8 
           6950      1.67063e+8 
           6970      1.65268e+8 
           6990      1.63483e+8 
           7010      1.61739e+8 
           7030      1.60004e+8 
           7050      1.58302e+8 
           7070      1.54212e+8 
           7090      1.54954e+8 
           7110      1.53316e+8 
           7130      1.51701e+8 
           7150      1.50102e+8 
           7170      1.48511e+8 
           7190      1.46972e+8 
           7210       1.4544e+8 
           7230      1.43894e+8 
           7250      1.42428e+8 
           7270      1.40954e+8 
           7290      1.38395e+8 
           7310      1.38041e+8 
           7330      1.36636e+8 
           7350      1.35238e+8 
           7370      1.33853e+8 
           7390      1.32488e+8 
           7410      1.31143e+8 
           7430       1.2981e+8 
           7450       1.2851e+8 
           7470      1.27208e+8 
           7490      1.25932e+8 
           7510      1.24628e+8 
           7530      1.23415e+8 
           7550      1.22181e+8 
           7570      1.20964e+8 
           7590      1.19758e+8 
           7610       1.1857e+8 
           7630      1.17399e+8 
           7650      1.16239e+8 
           7670      1.15096e+8 
           7690      1.13963e+8 
           7710      1.12846e+8 
           7730      1.11746e+8 
           7750      1.10656e+8 
           7770      1.09575e+8 
           7790      1.08517e+8 
           7810      1.07412e+8 
           7830      1.06428e+8 
           7850      1.05495e+8 
           7870      1.04485e+8 
           7890      1.03435e+8 
           7910      1.02491e+8 
           7930      1.01514e+8 
           7950      1.00545e+8 
           7970      9.94891e+7 
           7990      9.85904e+7 
           8010      9.75878e+7 
           8030      9.66349e+7 
           8050      9.57484e+7 
           8070      9.48752e+7 
           8090      9.38138e+7 
           8110      9.30653e+7 
           8130      9.22546e+7 
           8150      9.12976e+7 
           8170      9.05746e+7 
           8190       8.9616e+7 
           8210      8.86881e+7 
           8230      8.80685e+7 
           8250      8.72988e+7 
           8270      8.61335e+7 
           8290      8.56581e+7 
           8310       8.4908e+7 
           8330      8.40936e+7 
           8350      8.29672e+7 
           8370       8.2469e+7 
           8390      8.18301e+7 
           8410      8.10951e+7 
           8430      8.03132e+7 
           8450      7.90893e+7 
           8470      7.88475e+7 
           8490      7.79747e+7 
           8510      7.73329e+7 
           8530      7.65617e+7 
           8550      7.55185e+7 
           8570      7.57461e+7 
