# Kurucz ODFNEW /NOVER (2003)
# teff = 20000 K (value for the effective temperature for the model. Temperatures are given in K)
# logg = 3.5 log(cm/s2) (value for Log(G) for the model.)
# meta = -4  (value for the Metallicity for the model.)
# lh = 1.25  (l/Hp where l is the  mixing length of the convective element and Hp is the pressure scale height)
# vtur = 2 km/s (Microturbulence velocity)
# alpha = 0.4  (Alpha)
#
# column 1: WAVELENGTH (ANGSTROM), Wavelength in Angstrom
# column 2: FLUX (ERG/CM2/S/A), Flux in erg/cm2/s/A
          147.2     7.68921e-21 
            151     5.68109e-20 
          155.2     4.60624e-19 
          158.8     2.53131e-18 
            162     1.07886e-17 
            166     6.09567e-17 
          170.3     3.57322e-16 
          173.4     1.20917e-15 
          176.8     4.37698e-15 
          180.2     1.50694e-14 
          181.7     2.56095e-14 
          186.1     1.15293e-13 
            191     5.65977e-13 
          193.9     1.39541e-12 
          198.4     5.36154e-12 
          201.8     1.42234e-11 
            205     3.45506e-11 
          210.5     1.48735e-10 
          216.2     6.22216e-10 
          219.8      1.47621e-9 
            223      3.10465e-9 
          226.8      7.29506e-9 
            230      1.57521e-8 
            234      3.69478e-8 
            240      1.22777e-7 
          246.5      4.20804e-7 
          252.4      1.21637e-6 
          256.8      2.59184e-6 
            260      4.42819e-6 
            264      8.47176e-6 
          268.5      1.71506e-5 
          273.5      3.64903e-5 
          278.5        7.547e-5 
            284     0.000162675 
            290     0.000363009 
            296     0.000782517 
            301      0.00144802 
            308      0.00330496 
            318       0.0100627 
            328       0.0284809 
            338       0.0754719 
            348        0.188346 
            357        0.409218 
            366        0.853291 
            375         1.71269 
            385         3.56384 
            395         7.12267 
            405         13.7155 
            414         24.0154 
            422         38.6537 
            430         61.0163 
            441         110.957 
            451         185.826 
            460         289.402 
            470         463.075 
            480         725.041 
            490         1112.29 
            500         1674.03 
            506         10158.5 
            512         30055.7 
            520         39468.8 
            530         61871.3 
            540         68963.7 
            550          104739 
            560          133201 
            570          167424 
            580          171947 
            590          237012 
            600          318451 
            610          389861 
            620          471862 
            630          567163 
            640          676908 
            650          803847 
            658          918061 
            665       1.0279e+6 
            675       1.2019e+6 
            685      1.39692e+6 
            695      1.62063e+6 
            705      1.86726e+6 
            716      2.17062e+6 
            726      2.47755e+6 
            735      2.78231e+6 
            745      3.15223e+6 
            755      3.55736e+6 
            765      3.99914e+6 
            775      4.48074e+6 
            785      5.00274e+6 
            795      5.56679e+6 
            805      6.17568e+6 
            815      6.82931e+6 
            825      7.53154e+6 
            835      8.24539e+6 
            845       9.0834e+6 
            855       9.9348e+6 
            865      1.08418e+7 
            875      1.18009e+7 
            885      1.28162e+7 
            895      1.38868e+7 
            905      1.49855e+7 
            915      3.16035e+7 
            925      3.02819e+8 
            935      1.28189e+9 
            945      4.83575e+9 
            955      7.11553e+9 
            965      9.33464e+9 
            975       4.0557e+9 
            985     1.09855e+10 
            995     1.09907e+10 
           1005     1.10416e+10 
           1015      9.90545e+9 
           1025      2.82002e+9 
           1035      9.08919e+9 
           1045     1.04699e+10 
           1055      1.0406e+10 
           1065     1.01212e+10 
           1075     1.00534e+10 
           1085      9.68365e+9 
           1095      9.80984e+9 
           1105       9.4924e+9 
           1115      9.37047e+9 
           1125      9.15283e+9 
           1135      9.15105e+9 
           1145      8.97725e+9 
           1155      8.85834e+9 
           1165      8.70387e+9 
           1175      8.17324e+9 
           1185      8.35406e+9 
           1195      7.91989e+9 
           1205      6.82901e+9 
           1215      1.72356e+9 
           1225       6.3588e+9 
           1235      7.51125e+9 
           1245      7.55197e+9 
           1255      7.46463e+9 
           1265      7.33107e+9 
           1275      7.27191e+9 
           1285      7.15688e+9 
           1295      6.90346e+9 
           1305      6.82461e+9 
           1315       6.8138e+9 
           1325      6.69095e+9 
           1335      6.48392e+9 
           1345      6.49094e+9 
           1355      6.39159e+9 
           1365      6.28818e+9 
           1375      6.19146e+9 
           1385      6.09767e+9 
           1395      5.95771e+9 
           1405      5.87893e+9 
           1415      5.82172e+9 
           1425      5.73529e+9 
           1435      5.64959e+9 
           1442      5.58871e+9 
           1447      5.54512e+9 
           1455      5.47577e+9 
           1465      5.39179e+9 
           1475      5.30889e+9 
           1485      5.22755e+9 
           1495       5.1479e+9 
           1505      5.06841e+9 
           1512      5.01697e+9 
           1517      4.98003e+9 
           1525      4.91982e+9 
           1535      4.84393e+9 
           1545      4.77275e+9 
           1555      4.70362e+9 
           1565      4.64078e+9 
           1575      4.57277e+9 
           1585      4.50625e+9 
           1595      4.44119e+9 
           1605      4.37417e+9 
           1615      4.31049e+9 
           1625      4.25061e+9 
           1635      4.18905e+9 
           1645      4.10486e+9 
           1655      4.07013e+9 
           1665      4.01241e+9 
           1672      3.96662e+9 
           1677      3.94475e+9 
           1685      3.90061e+9 
           1695      3.84659e+9 
           1705      3.79305e+9 
           1715      3.74011e+9 
           1725      3.68915e+9 
           1735      3.63911e+9 
           1745      3.58973e+9 
           1755      3.54196e+9 
           1765      3.49069e+9 
           1775      3.44537e+9 
           1785      3.39837e+9 
           1795       3.3523e+9 
           1805      3.30682e+9 
           1815      3.26236e+9 
           1825      3.21845e+9 
           1835      3.17553e+9 
           1845      3.13168e+9 
           1855       3.0749e+9 
           1865      3.03942e+9 
           1875      3.01083e+9 
           1885      2.96964e+9 
           1895      2.92548e+9 
           1905      2.89547e+9 
           1915      2.85237e+9 
           1925      2.81742e+9 
           1935      2.78495e+9 
           1945      2.75141e+9 
           1955      2.71318e+9 
           1967      2.67541e+9 
           1976       2.6455e+9 
           1984       2.6176e+9 
           1995      2.57897e+9 
           2005       2.5504e+9 
           2015       2.5194e+9 
           2025      2.48852e+9 
           2035      2.45766e+9 
           2045      2.42765e+9 
           2055      2.39444e+9 
           2065       2.3668e+9 
           2074      2.34403e+9 
           2078      2.32646e+9 
           2085      2.31243e+9 
           2095      2.28345e+9 
           2105       2.2573e+9 
           2115      2.23053e+9 
           2125      2.20417e+9 
           2135      2.17803e+9 
           2145       2.1522e+9 
           2155        2.127e+9 
           2165      2.10225e+9 
           2175      2.07747e+9 
           2185      2.05305e+9 
           2195      2.02907e+9 
           2205      2.00544e+9 
           2215      1.98215e+9 
           2225      1.95928e+9 
           2235      1.93681e+9 
           2245      1.91488e+9 
           2255      1.89297e+9 
           2265      1.87145e+9 
           2275      1.85015e+9 
           2285      1.82931e+9 
           2295      1.80775e+9 
           2305      1.78848e+9 
           2315      1.76842e+9 
           2325      1.74878e+9 
           2335      1.72928e+9 
           2345      1.71011e+9 
           2355      1.69154e+9 
           2365      1.67289e+9 
           2375      1.65455e+9 
           2385      1.63627e+9 
           2395      1.61837e+9 
           2405       1.6007e+9 
           2415      1.58321e+9 
           2425      1.56614e+9 
           2435      1.54918e+9 
           2445       1.5325e+9 
           2455      1.51604e+9 
           2465      1.49979e+9 
           2475      1.48376e+9 
           2485        1.468e+9 
           2495      1.44948e+9 
           2505      1.43721e+9 
           2513      1.42503e+9 
           2518      1.41765e+9 
           2525      1.40732e+9 
           2535      1.39267e+9 
           2545      1.37825e+9 
           2555      1.36414e+9 
           2565      1.34997e+9 
           2575       1.3361e+9 
           2585      1.32229e+9 
           2595       1.3087e+9 
           2605      1.30695e+9 
           2615       1.2935e+9 
           2625      1.27901e+9 
           2635       1.2626e+9 
           2645      1.25054e+9 
           2655      1.23616e+9 
           2665      1.22266e+9 
           2675      1.20959e+9 
           2685      1.20436e+9 
           2695       1.1846e+9 
           2705      1.18038e+9 
           2715      1.16864e+9 
           2725      1.14886e+9 
           2735      1.14552e+9 
           2745      1.13408e+9 
           2755      1.12294e+9 
           2765      1.10359e+9 
           2775      1.10109e+9 
           2785      1.09033e+9 
           2795       1.0781e+9 
           2805      1.06875e+9 
           2815       1.0588e+9 
           2825      1.03909e+9 
           2835      1.03566e+9 
           2845      1.02849e+9 
           2855      1.01861e+9 
           2865      1.00885e+9 
           2875      9.99249e+8 
           2885      9.89754e+8 
           2895      9.80321e+8 
           2910      9.66459e+8 
           2930      9.48351e+8 
           2950      9.25233e+8 
           2970       9.1354e+8 
           2990      8.96682e+8 
           3010      8.80273e+8 
           3030      8.64218e+8 
           3050      8.48507e+8 
           3070       8.3321e+8 
           3090      8.18238e+8 
           3110      8.03658e+8 
           3130      7.90344e+8 
           3150      7.76315e+8 
           3170      7.62314e+8 
           3190      7.43678e+8 
           3210      7.35902e+8 
           3230      7.23026e+8 
           3250      7.10409e+8 
           3270      6.98892e+8 
           3290       6.8614e+8 
           3310      6.75294e+8 
           3330      6.63877e+8 
           3350      6.51744e+8 
           3370      6.41809e+8 
           3390      6.31111e+8 
           3410       6.2062e+8 
           3430      6.08184e+8 
           3450      5.96437e+8 
           3470      5.88205e+8 
           3490      5.78761e+8 
           3510      5.71756e+8 
           3530      5.62907e+8 
           3550      5.54011e+8 
           3570      5.47141e+8 
           3590      5.36122e+8 
           3610       5.2829e+8 
           3630      5.19197e+8 
           3640      5.17656e+8 
           3650      5.13268e+8 
           3670       5.0699e+8 
           3690      4.91023e+8 
           3710      4.84402e+8 
           3730      4.80548e+8 
           3750      5.40642e+8 
           3770      5.49181e+8 
           3790      5.78859e+8 
           3810      6.07445e+8 
           3830      5.27486e+8 
           3850      6.25057e+8 
           3870       6.2548e+8 
           3890      5.02303e+8 
           3910       6.1536e+8 
           3930      6.05381e+8 
           3950      5.96127e+8 
           3970      4.67395e+8 
           3990      5.73988e+8 
           4010      5.67644e+8 
           4030      5.39199e+8 
           4050      5.55362e+8 
           4070       5.4455e+8 
           4090      5.07483e+8 
           4110      4.39686e+8 
           4130      5.12675e+8 
           4150      5.07352e+8 
           4170       5.0254e+8 
           4190       4.9608e+8 
           4210      4.88296e+8 
           4230      4.80615e+8 
           4250      4.73057e+8 
           4270       4.6564e+8 
           4290      4.58382e+8 
           4310      4.49392e+8 
           4330      4.11192e+8 
           4350      3.72977e+8 
           4370      4.28318e+8 
           4390      4.14162e+8 
           4410      4.17775e+8 
           4430      4.09557e+8 
           4450      4.05256e+8 
           4470       3.8448e+8 
           4490      3.93116e+8 
           4510       3.8734e+8 
           4530      3.81578e+8 
           4550       3.7592e+8 
           4570      3.70382e+8 
           4590      3.64962e+8 
           4610      3.59621e+8 
           4630      3.54395e+8 
           4650      3.49245e+8 
           4670      3.44187e+8 
           4690      3.39219e+8 
           4710      3.30435e+8 
           4730      3.29566e+8 
           4750      3.24876e+8 
           4770      3.20254e+8 
           4790       3.1573e+8 
           4810      3.11204e+8 
           4830      3.05467e+8 
           4850      2.84167e+8 
           4870      2.52054e+8 
           4890      2.92078e+8 
           4910      2.89625e+8 
           4930      2.80289e+8 
           4950       2.8218e+8 
           4970      2.78312e+8 
           4990      2.74512e+8 
           5010      2.67807e+8 
           5030      2.67111e+8 
           5050      2.62015e+8 
           5070      2.59952e+8 
           5090      2.56459e+8 
           5110      2.53028e+8 
           5130      2.49641e+8 
           5150      2.46314e+8 
           5170      2.43045e+8 
           5190      2.39833e+8 
           5210      2.36676e+8 
           5230      2.33575e+8 
           5250      2.30514e+8 
           5270       2.2752e+8 
           5290      2.24564e+8 
           5310       2.2166e+8 
           5330      2.18793e+8 
           5350      2.15988e+8 
           5370       2.1322e+8 
           5390      2.10486e+8 
           5410      2.07813e+8 
           5430      2.05161e+8 
           5450      2.02567e+8 
           5470      2.00006e+8 
           5490      1.97489e+8 
           5510      1.95003e+8 
           5530      1.92572e+8 
           5550      1.90172e+8 
           5570      1.87801e+8 
           5590      1.85483e+8 
           5610      1.83193e+8 
           5630      1.80943e+8 
           5650       1.7872e+8 
           5670      1.76536e+8 
           5690      1.74389e+8 
           5710      1.72268e+8 
           5730      1.70185e+8 
           5750      1.68125e+8 
           5770      1.66102e+8 
           5790      1.64113e+8 
           5810      1.62149e+8 
           5830      1.60218e+8 
           5850      1.58309e+8 
           5870       1.5228e+8 
           5890      1.54494e+8 
           5910       1.5276e+8 
           5930      1.50971e+8 
           5950      1.49202e+8 
           5970      1.47464e+8 
           5990      1.45746e+8 
           6010      1.44047e+8 
           6030      1.42389e+8 
           6050      1.40739e+8 
           6070      1.39118e+8 
           6090      1.37525e+8 
           6110       1.3595e+8 
           6130      1.34403e+8 
           6150      1.32873e+8 
           6170      1.31369e+8 
           6190      1.29883e+8 
           6210      1.28422e+8 
           6230      1.26978e+8 
           6250      1.25549e+8 
           6270      1.24146e+8 
           6290      1.22767e+8 
           6310      1.21394e+8 
           6330      1.20055e+8 
           6350       1.1872e+8 
           6370      1.17419e+8 
           6390      1.16122e+8 
           6410      1.14858e+8 
           6430      1.13598e+8 
           6450       1.1236e+8 
           6470      1.11135e+8 
           6490      1.09933e+8 
           6510      1.08743e+8 
           6530      1.07185e+8 
           6550      1.02853e+8 
           6570      9.10646e+7 
           6590      1.03334e+8 
           6610      1.02925e+8 
           6630      1.01945e+8 
           6650      1.00941e+8 
           6670       9.9041e+7 
           6690      9.80205e+7 
           6710      9.77717e+7 
           6730      9.67506e+7 
           6750      9.57399e+7 
           6770      9.47394e+7 
           6790      9.37491e+7 
           6810      9.27768e+7 
           6830      9.18224e+7 
           6850      9.08695e+7 
           6870      8.99341e+7 
           6890       8.9008e+7 
           6910       8.8099e+7 
           6930       8.7199e+7 
           6950      8.63157e+7 
           6970      8.54411e+7 
           6990      8.45673e+7 
           7010      8.37175e+7 
           7030      8.28759e+7 
           7050      8.20425e+7 
           7070      8.00038e+7 
           7090         8.04e+7 
           7110       7.9598e+7 
           7130      7.88038e+7 
           7150      7.80246e+7 
           7170      7.72381e+7 
           7190      7.64884e+7 
           7210      7.57313e+7 
           7230      7.49886e+7 
           7250      7.42529e+7 
           7270      7.35241e+7 
           7290      7.22706e+7 
           7310      7.20872e+7 
           7330      7.13999e+7 
           7350       7.0705e+7 
           7370      7.00235e+7 
           7390      6.93484e+7 
           7410      6.86795e+7 
           7430      6.80216e+7 
           7450      6.73799e+7 
           7470      6.67367e+7 
           7490      6.61008e+7 
           7510      6.54506e+7 
           7530      6.48529e+7 
           7550      6.42395e+7 
           7570      6.36336e+7 
           7590      6.30344e+7 
           7610      6.24427e+7 
           7630      6.18576e+7 
           7650      6.12796e+7 
           7670      6.07088e+7 
           7690      6.01437e+7 
           7710      5.95849e+7 
           7730      5.90355e+7 
           7750      5.84853e+7 
           7770      5.79506e+7 
           7790      5.74194e+7 
           7810      5.68583e+7 
           7830      5.63728e+7 
           7850      5.59159e+7 
           7870      5.54064e+7 
           7890       5.4876e+7 
           7910      5.44055e+7 
           7930      5.39134e+7 
           7950      5.33951e+7 
           7970      5.28333e+7 
           7990      5.23756e+7 
           8010      5.18889e+7 
           8030      5.14455e+7 
           8050       5.1003e+7 
           8070      5.05764e+7 
           8090      5.00406e+7 
           8110      4.96348e+7 
           8130      4.92524e+7 
           8150      4.87365e+7 
           8170      4.84005e+7 
           8190      4.79381e+7 
           8210       4.7432e+7 
           8230      4.71573e+7 
           8250       4.6759e+7 
           8270      4.61398e+7 
           8290      4.59032e+7 
           8310      4.55227e+7 
           8330      4.51208e+7 
           8350      4.45343e+7 
           8370      4.42341e+7 
           8390       4.3896e+7 
           8410      4.34713e+7 
           8430      4.30352e+7 
           8450      4.24882e+7 
           8470      4.19921e+7 
           8490      4.20742e+7 
           8510      4.10245e+7 
           8530      4.16178e+7 
           8550      3.95609e+7 
           8570      4.16452e+7 
