# Kurucz ODFNEW /NOVER (2003)
# teff = 20000 K (value for the effective temperature for the model. Temperatures are given in K)
# logg = 4.5 log(cm/s2) (value for Log(G) for the model.)
# meta = -0.5  (value for the Metallicity for the model.)
# lh = 1.25  (l/Hp where l is the  mixing length of the convective element and Hp is the pressure scale height)
# vtur = 2 km/s (Microturbulence velocity)
# alpha = 0.4  (Alpha)
#
# column 1: WAVELENGTH (ANGSTROM), Wavelength in Angstrom
# column 2: FLUX (ERG/CM2/S/A), Flux in erg/cm2/s/A
          147.2     1.29078e-19 
            151      7.7431e-19 
          155.2     5.06418e-18 
          158.8     2.33739e-17 
            162     8.59943e-17 
            166     4.08556e-16 
          170.3     2.00951e-15 
          173.4     6.04194e-15 
          176.8     1.93256e-14 
          180.2     5.91916e-14 
          181.7     9.56952e-14 
          186.1     3.75378e-13 
            191     1.59868e-12 
          193.9     3.63611e-12 
          198.4     1.24305e-11 
          201.8     3.04209e-11 
            205     6.88592e-11 
          210.5     2.64245e-10 
          216.2     9.92873e-10 
          219.8      2.21373e-9 
            223      4.41539e-9 
          226.8      9.78695e-9 
            230      4.66952e-8 
            234      1.17375e-7 
            240      3.62425e-7 
          246.5      1.14335e-6 
          252.4      3.09245e-6 
          256.8      6.19254e-6 
            260      1.03879e-5 
            264       1.9103e-5 
          268.5      3.70107e-5 
          273.5      7.51371e-5 
          278.5     0.000149172 
            284     0.000308638 
            290     0.000658313 
            296      0.00135834 
            301      0.00243387 
            308      0.00527105 
            318       0.0153722 
            328       0.0411453 
            338         0.10489 
            348        0.251564 
            357        0.534697 
            366         1.08953 
            375         2.11893 
            385         4.29277 
            395         8.34467 
            405         15.6999 
            414         27.0289 
            422         42.6857 
            430         66.1508 
            441         118.525 
            451         195.921 
            460         300.903 
            470         475.542 
            480         735.342 
            490         1116.58 
            500         1664.39 
            506         16584.1 
            512         56948.3 
            520         73211.5 
            530          104677 
            540          122453 
            550          180643 
            560          226122 
            570          292026 
            580          311754 
            590          430917 
            600          546844 
            610          682082 
            620          809586 
            630          975757 
            640      1.11648e+6 
            650      1.28293e+6 
            658      1.55386e+6 
            665      1.71401e+6 
            675      1.95457e+6 
            685      2.25704e+6 
            695      2.69196e+6 
            705      3.05537e+6 
            716      3.55297e+6 
            726      3.99133e+6 
            735      4.47612e+6 
            745      5.12729e+6 
            755      5.79153e+6 
            765      6.47919e+6 
            775      7.28903e+6 
            785      8.13769e+6 
            795      8.92253e+6 
            805      9.87249e+6 
            815      1.08063e+7 
            825      1.19884e+7 
            835      1.27663e+7 
            845      1.41205e+7 
            855      1.53717e+7 
            865      1.68329e+7 
            875      1.83502e+7 
            885      2.00889e+7 
            895      2.16977e+7 
            905      2.27383e+7 
            915      3.49427e+7 
            925      1.29694e+8 
            935      3.66381e+8 
            945      1.65115e+9 
            955      4.06344e+9 
            965      5.90647e+9 
            975      1.18552e+9 
            985      9.07436e+9 
            995      8.98534e+9 
           1005     1.01106e+10 
           1015      7.86937e+9 
           1025      1.02915e+9 
           1035      5.32867e+9 
           1045     1.14593e+10 
           1055     1.12187e+10 
           1065      9.31008e+9 
           1075     1.08977e+10 
           1085      9.92174e+9 
           1095     1.09092e+10 
           1105       9.4347e+9 
           1115       8.9529e+9 
           1125      8.53399e+9 
           1135     1.00681e+10 
           1145      8.71059e+9 
           1155      9.34576e+9 
           1165      9.60348e+9 
           1175       7.6215e+9 
           1185      9.37917e+9 
           1195      6.50005e+9 
           1205      3.55059e+9 
           1215      9.37316e+8 
           1225      4.08682e+9 
           1235      7.79406e+9 
           1245      8.44128e+9 
           1255      8.20779e+9 
           1265      7.61381e+9 
           1275      8.15161e+9 
           1285      8.23969e+9 
           1295      5.70724e+9 
           1305       5.2195e+9 
           1315      7.74537e+9 
           1325      7.38985e+9 
           1335      6.84601e+9 
           1345       7.2219e+9 
           1355      7.10564e+9 
           1365      6.56457e+9 
           1375      6.54535e+9 
           1385      6.62695e+9 
           1395      5.79122e+9 
           1405      6.03294e+9 
           1415      6.08871e+9 
           1425      6.11079e+9 
           1435      6.09031e+9 
           1442      6.26903e+9 
           1447      6.16784e+9 
           1455      6.02333e+9 
           1465      5.75865e+9 
           1475      5.63979e+9 
           1485      5.45322e+9 
           1495      5.46209e+9 
           1505      5.10267e+9 
           1512       4.8016e+9 
           1517      4.97643e+9 
           1525      4.99255e+9 
           1535      4.59627e+9 
           1545      4.71925e+9 
           1555      4.46041e+9 
           1565      4.48496e+9 
           1575      4.66389e+9 
           1585      4.60567e+9 
           1595      4.64599e+9 
           1605       4.5115e+9 
           1615      4.46432e+9 
           1625      4.33978e+9 
           1635      4.41876e+9 
           1645      4.36381e+9 
           1655      4.14894e+9 
           1665        4.344e+9 
           1672      4.17563e+9 
           1677       4.2578e+9 
           1685      4.25595e+9 
           1695      4.09521e+9 
           1705      3.91694e+9 
           1715      3.74856e+9 
           1725      3.70383e+9 
           1735      3.78378e+9 
           1745      3.67955e+9 
           1755      3.73436e+9 
           1765      3.49323e+9 
           1775      3.53015e+9 
           1785      3.49721e+9 
           1795      3.57528e+9 
           1805      3.53288e+9 
           1815      3.33281e+9 
           1825      3.39626e+9 
           1835      3.28114e+9 
           1845      3.07015e+9 
           1855      3.00724e+9 
           1865      3.02404e+9 
           1875      3.13975e+9 
           1885      2.91059e+9 
           1895      2.76151e+9 
           1905      2.91115e+9 
           1915      2.78364e+9 
           1925      2.71128e+9 
           1935      2.77177e+9 
           1945      2.79264e+9 
           1955      2.62457e+9 
           1967      2.75311e+9 
           1976      2.82361e+9 
           1984      2.66077e+9 
           1995      2.58891e+9 
           2005      2.62903e+9 
           2015      2.56848e+9 
           2025      2.65563e+9 
           2035      2.51115e+9 
           2045      2.50719e+9 
           2055      2.40836e+9 
           2065       2.4517e+9 
           2074      2.48355e+9 
           2078      2.39146e+9 
           2085      2.42517e+9 
           2095      2.32388e+9 
           2105      2.35627e+9 
           2115      2.33648e+9 
           2125      2.36326e+9 
           2135      2.30142e+9 
           2145      2.23998e+9 
           2155      2.27302e+9 
           2165      2.22989e+9 
           2175      2.20075e+9 
           2185      2.16534e+9 
           2195      2.17185e+9 
           2205      2.12547e+9 
           2215      2.08812e+9 
           2225      2.03104e+9 
           2235      2.04971e+9 
           2245      2.02783e+9 
           2255      1.97387e+9 
           2265      1.98659e+9 
           2275      1.96509e+9 
           2285       1.9612e+9 
           2295      1.89809e+9 
           2305      1.88811e+9 
           2315      1.85102e+9 
           2325       1.8343e+9 
           2335      1.77122e+9 
           2345      1.73607e+9 
           2355      1.75111e+9 
           2365      1.70394e+9 
           2375      1.70538e+9 
           2385      1.66495e+9 
           2395      1.68207e+9 
           2405      1.64135e+9 
           2415      1.62772e+9 
           2425      1.63514e+9 
           2435      1.58711e+9 
           2445      1.58909e+9 
           2455      1.58329e+9 
           2465      1.54902e+9 
           2475      1.53198e+9 
           2485      1.53486e+9 
           2495      1.48506e+9 
           2505      1.50451e+9 
           2513      1.45611e+9 
           2518      1.47814e+9 
           2525      1.44319e+9 
           2535      1.42192e+9 
           2545      1.39506e+9 
           2555      1.41867e+9 
           2565      1.39446e+9 
           2575      1.40365e+9 
           2585      1.39575e+9 
           2595      1.38199e+9 
           2605      1.36601e+9 
           2615      1.35399e+9 
           2625      1.33926e+9 
           2635        1.327e+9 
           2645      1.33842e+9 
           2655      1.32355e+9 
           2665       1.2904e+9 
           2675       1.2924e+9 
           2685      1.28389e+9 
           2695      1.25737e+9 
           2705      1.25406e+9 
           2715      1.23503e+9 
           2725      1.21335e+9 
           2735      1.21844e+9 
           2745      1.17573e+9 
           2755      1.17009e+9 
           2765      1.16563e+9 
           2775      1.17359e+9 
           2785       1.1577e+9 
           2795      1.10795e+9 
           2805       1.1275e+9 
           2815      1.13063e+9 
           2825      1.10867e+9 
           2835      1.08141e+9 
           2845       1.0842e+9 
           2855       1.0799e+9 
           2865      1.07738e+9 
           2875      1.06278e+9 
           2885       1.0548e+9 
           2895      1.04581e+9 
           2910      1.03097e+9 
           2930      1.00597e+9 
           2950      9.83501e+8 
           2970      9.73759e+8 
           2990      9.52179e+8 
           3010      9.38071e+8 
           3030      9.23225e+8 
           3050      9.05487e+8 
           3070      8.88851e+8 
           3090      8.70872e+8 
           3110      8.55539e+8 
           3130      8.42103e+8 
           3150       8.2647e+8 
           3170        8.115e+8 
           3190       7.8914e+8 
           3210      7.82115e+8 
           3230      7.68957e+8 
           3250      7.56027e+8 
           3270      7.43777e+8 
           3290      7.30237e+8 
           3310      7.18826e+8 
           3330      7.06242e+8 
           3350        6.929e+8 
           3370      6.82246e+8 
           3390      6.70908e+8 
           3410      6.59886e+8 
           3430      6.46994e+8 
           3450      6.34577e+8 
           3470      6.25312e+8 
           3490      6.15041e+8 
           3510      6.05851e+8 
           3530      5.96889e+8 
           3550      5.87252e+8 
           3570      5.80189e+8 
           3590      5.67516e+8 
           3610      5.59655e+8 
           3630      5.49903e+8 
           3640      5.48563e+8 
           3650      5.41885e+8 
           3670       5.3552e+8 
           3690      5.25552e+8 
           3710      5.07968e+8 
           3730      4.85909e+8 
           3750      5.11254e+8 
           3770      5.14591e+8 
           3790      5.57432e+8 
           3810      5.91873e+8 
           3830      5.05015e+8 
           3850      6.18805e+8 
           3870      6.40371e+8 
           3890      4.72129e+8 
           3910       6.3601e+8 
           3930      6.29968e+8 
           3950      6.17375e+8 
           3970      4.41747e+8 
           3990      5.88494e+8 
           4010       5.9864e+8 
           4030      5.57153e+8 
           4050      5.88343e+8 
           4070      5.70362e+8 
           4090      5.03204e+8 
           4110      4.27665e+8 
           4130       5.3125e+8 
           4150      5.33557e+8 
           4170      5.31441e+8 
           4190      5.26444e+8 
           4210      5.19328e+8 
           4230      5.10513e+8 
           4250       5.0136e+8 
           4270      4.87976e+8 
           4290      4.83396e+8 
           4310      4.70402e+8 
           4330      4.05043e+8 
           4350      3.64893e+8 
           4370      4.45856e+8 
           4390      4.31188e+8 
           4410      4.40458e+8 
           4430      4.32689e+8 
           4450      4.28713e+8 
           4470      3.98452e+8 
           4490      4.11859e+8 
           4510      4.10289e+8 
           4530      4.03057e+8 
           4550      3.97047e+8 
           4570      3.91396e+8 
           4590      3.85722e+8 
           4610      3.79865e+8 
           4630      3.73796e+8 
           4650      3.67399e+8 
           4670      3.63154e+8 
           4690      3.58539e+8 
           4710      3.46194e+8 
           4730      3.46321e+8 
           4750      3.40939e+8 
           4770      3.38318e+8 
           4790      3.32559e+8 
           4810      3.25615e+8 
           4830      3.17611e+8 
           4850      2.81268e+8 
           4870      2.47193e+8 
           4890       3.0257e+8 
           4910      3.02986e+8 
           4930      2.91217e+8 
           4950      2.96925e+8 
           4970      2.93365e+8 
           4990      2.89052e+8 
           5010      2.79469e+8 
           5030      2.80572e+8 
           5050       2.7277e+8 
           5070      2.73568e+8 
           5090      2.69706e+8 
           5110      2.65709e+8 
           5130      2.62052e+8 
           5150       2.5843e+8 
           5170      2.55462e+8 
           5190      2.51959e+8 
           5210      2.46877e+8 
           5230       2.4542e+8 
           5250      2.42187e+8 
           5270      2.38806e+8 
           5290      2.35967e+8 
           5310      2.32803e+8 
           5330      2.29468e+8 
           5350      2.26044e+8 
           5370       2.2388e+8 
           5390      2.20977e+8 
           5410      2.17956e+8 
           5430      2.14577e+8 
           5450       2.1213e+8 
           5470       2.0931e+8 
           5490       2.0715e+8 
           5510      2.04371e+8 
           5530      2.01787e+8 
           5550      1.99357e+8 
           5570       1.9675e+8 
           5590      1.94416e+8 
           5610      1.91704e+8 
           5630      1.89702e+8 
           5650       1.8619e+8 
           5670      1.84176e+8 
           5690      1.82395e+8 
           5710      1.80426e+8 
           5730      1.78285e+8 
           5750      1.76033e+8 
           5770         1.74e+8 
           5790      1.71879e+8 
           5810      1.69715e+8 
           5830      1.67688e+8 
           5850      1.65696e+8 
           5870      1.58304e+8 
           5890      1.61053e+8 
           5910      1.59782e+8 
           5930      1.57956e+8 
           5950      1.55704e+8 
           5970       1.5424e+8 
           5990      1.52203e+8 
           6010      1.50691e+8 
           6030      1.48906e+8 
           6050      1.47192e+8 
           6070      1.45467e+8 
           6090      1.43721e+8 
           6110      1.42146e+8 
           6130      1.40518e+8 
           6150       1.3856e+8 
           6170      1.37267e+8 
           6190      1.35752e+8 
           6210      1.34196e+8 
           6230      1.32666e+8 
           6250      1.30979e+8 
           6270      1.29656e+8 
           6290      1.28185e+8 
           6310      1.26636e+8 
           6330      1.25367e+8 
           6350      1.23326e+8 
           6370      1.22182e+8 
           6390      1.21178e+8 
           6410      1.19781e+8 
           6430      1.18618e+8 
           6450      1.17241e+8 
           6470       1.1595e+8 
           6490      1.14611e+8 
           6510      1.12992e+8 
           6530      1.10993e+8 
           6550      1.03494e+8 
           6570      9.05584e+7 
           6590       1.0591e+8 
           6610      1.06874e+8 
           6630      1.06119e+8 
           6650      1.05235e+8 
           6670      1.02979e+8 
           6690      1.01951e+8 
           6710       1.0193e+8 
           6730       1.0086e+8 
           6750      9.98245e+7 
           6770      9.87835e+7 
           6790      9.76141e+7 
           6810      9.67004e+7 
           6830      9.56503e+7 
           6850      9.47072e+7 
           6870      9.37336e+7 
           6890      9.27616e+7 
           6910      9.17994e+7 
           6930      9.07918e+7 
           6950      8.99346e+7 
           6970       8.9016e+7 
           6990       8.8091e+7 
           7010      8.71827e+7 
           7030      8.62986e+7 
           7050      8.54003e+7 
           7070      8.32899e+7 
           7090      8.37425e+7 
           7110      8.28845e+7 
           7130       8.2057e+7 
           7150       8.1208e+7 
           7170      8.04185e+7 
           7190      7.96366e+7 
           7210      7.88475e+7 
           7230      7.76191e+7 
           7250      7.72631e+7 
           7270      7.65392e+7 
           7290      7.52479e+7 
           7310      7.50412e+7 
           7330      7.43097e+7 
           7350       7.3592e+7 
           7370      7.28741e+7 
           7390      7.21698e+7 
           7410       7.1472e+7 
           7430      7.07329e+7 
           7450      7.00889e+7 
           7470        6.939e+7 
           7490      6.87379e+7 
           7510      6.80917e+7 
           7530      6.74581e+7 
           7550       6.6817e+7 
           7570      6.61948e+7 
           7590      6.55587e+7 
           7610      6.49472e+7 
           7630      6.43367e+7 
           7650       6.3731e+7 
           7670      6.31365e+7 
           7690      6.25467e+7 
           7710       6.1964e+7 
           7730      6.13815e+7 
           7750       6.0818e+7 
           7770      5.98557e+7 
           7790       5.9699e+7 
           7810      5.91274e+7 
           7830       5.8607e+7 
           7850      5.79878e+7 
           7870      5.74763e+7 
           7890      5.68561e+7 
           7910      5.65256e+7 
           7930      5.60198e+7 
           7950      5.53997e+7 
           7970      5.49797e+7 
           7990       5.4346e+7 
           8010      5.40174e+7 
           8030      5.35196e+7 
           8050      5.30226e+7 
           8070      5.25658e+7 
           8090      5.20414e+7 
           8110      5.15926e+7 
           8130      5.11538e+7 
           8150      5.06717e+7 
           8170      5.02732e+7 
           8190      4.97791e+7 
           8210      4.92122e+7 
           8230      4.88081e+7 
           8250      4.85108e+7 
           8270      4.79322e+7 
           8290      4.76618e+7 
           8310       4.7258e+7 
           8330      4.68544e+7 
           8350       4.6292e+7 
           8370      4.59828e+7 
           8390      4.56659e+7 
           8410      4.52593e+7 
           8430      4.48264e+7 
           8450      4.40858e+7 
           8470      4.39918e+7 
           8490      4.35669e+7 
           8510      4.30845e+7 
           8530      4.28631e+7 
           8550      4.18629e+7 
           8570      4.25295e+7 
