# Kurucz ODFNEW /NOVER (2003)
# teff = 27000 K (value for the effective temperature for the model. Temperatures are given in K)
# logg = 4.5 log(cm/s2) (value for Log(G) for the model.)
# meta = -2  (value for the Metallicity for the model.)
# lh = 1.25  (l/Hp where l is the  mixing length of the convective element and Hp is the pressure scale height)
# vtur = 2 km/s (Microturbulence velocity)
# alpha = 0  (Alpha)
#
# column 1: WAVELENGTH (ANGSTROM), Wavelength in Angstrom
# column 2: FLUX (ERG/CM2/S/A), Flux in erg/cm2/s/A
          147.2     8.50151e-12 
            151     3.58918e-11 
          155.2     1.62425e-10 
          158.8     5.55695e-10 
            162      1.58291e-9 
            166      5.52995e-9 
          170.3      1.98561e-8 
          173.4      4.79439e-8 
          176.8      1.21486e-7 
          180.2      2.96886e-7 
          181.7      4.35611e-7 
          186.1      1.29292e-6 
            191      4.08608e-6 
          193.9      7.84677e-6 
          198.4      2.07638e-5 
          201.8      4.20318e-5 
            205      7.98451e-5 
          210.5     0.000229488 
          216.2     0.000645661 
          219.8      0.00120531 
            223      0.00206255 
          226.8      0.00382345 
            230       0.0616611 
            234        0.140486 
            240        0.311083 
          246.5         0.70507 
          252.4         1.44185 
          256.8         2.24297 
            260         3.38104 
            264         5.17506 
          268.5         8.23616 
          273.5         13.5291 
          278.5          21.843 
            284          36.253 
            290         61.4414 
            296          101.66 
            301         151.235 
            308         248.335 
            318         544.843 
            328         1075.55 
            338         2043.22 
            348         3720.51 
            357          6189.7 
            366           10051 
            375         15773.2 
            385         25525.3 
            395         40040.4 
            405         61319.4 
            414           88417 
            422          120145 
            430          161058 
            441          237954 
            451          332702 
            460          442176 
            470          599834 
            480          800158 
            490      1.05415e+6 
            500      1.37113e+6 
            506      7.69626e+6 
            512      2.56696e+7 
            520      2.91896e+7 
            530       3.6026e+7 
            540      3.71071e+7 
            550      4.70993e+7 
            560      5.21751e+7 
            570      5.93769e+7 
            580      5.88399e+7 
            590       7.1347e+7 
            600      8.01303e+7 
            610      8.92852e+7 
            620      9.72528e+7 
            630      1.07305e+8 
            640      1.14582e+8 
            650      1.26688e+8 
            658      1.36199e+8 
            665      1.43945e+8 
            675      1.52519e+8 
            685      1.62606e+8 
            695      1.81429e+8 
            705      1.91956e+8 
            716      2.08516e+8 
            726      2.21988e+8 
            735      2.36885e+8 
            745      2.53565e+8 
            755      2.69713e+8 
            765      2.85393e+8 
            775      3.03604e+8 
            785      3.21803e+8 
            795      3.38006e+8 
            805       3.5649e+8 
            815       3.7367e+8 
            825      3.94096e+8 
            835      4.03619e+8 
            845      4.30153e+8 
            855      4.48231e+8 
            865      4.70166e+8 
            875      4.92448e+8 
            885      5.13609e+8 
            895      5.34036e+8 
            905       5.4976e+8 
            915      7.28463e+8 
            925      4.19868e+9 
            935      1.0859e+10 
            945     2.85817e+10 
            955     3.79871e+10 
            965     5.01969e+10 
            975     2.11519e+10 
            985     5.43879e+10 
            995       5.131e+10 
           1005     5.37591e+10 
           1015     4.86643e+10 
           1025     1.80195e+10 
           1035     4.40058e+10 
           1045      5.1292e+10 
           1055     5.00095e+10 
           1065     4.61751e+10 
           1075     4.69043e+10 
           1085     4.29204e+10 
           1095     4.53763e+10 
           1105     4.35282e+10 
           1115     4.26054e+10 
           1125     3.99523e+10 
           1135     4.07867e+10 
           1145     3.88188e+10 
           1155     3.88894e+10 
           1165     3.80775e+10 
           1175     3.30035e+10 
           1185     3.58158e+10 
           1195     3.39895e+10 
           1205      2.9977e+10 
           1215     1.20721e+10 
           1225      2.8976e+10 
           1235     3.17518e+10 
           1245     3.10566e+10 
           1255     3.07526e+10 
           1265     2.99882e+10 
           1275     2.96053e+10 
           1285     2.89342e+10 
           1295     2.69974e+10 
           1305      2.6948e+10 
           1315     2.70038e+10 
           1325     2.60505e+10 
           1335      2.5129e+10 
           1345     2.51004e+10 
           1355     2.47354e+10 
           1365     2.40386e+10 
           1375     2.35767e+10 
           1385        2.31e+10 
           1395      2.1833e+10 
           1405     2.15977e+10 
           1415     2.15306e+10 
           1425     2.10625e+10 
           1435     2.07297e+10 
           1442     2.05109e+10 
           1447     2.02722e+10 
           1455     1.99235e+10 
           1465     1.94787e+10 
           1475     1.90925e+10 
           1485     1.87115e+10 
           1495     1.83205e+10 
           1505     1.77884e+10 
           1512     1.75252e+10 
           1517     1.73952e+10 
           1525     1.70949e+10 
           1535     1.63996e+10 
           1545     1.60933e+10 
           1555     1.56798e+10 
           1565     1.56861e+10 
           1575     1.54982e+10 
           1585     1.52373e+10 
           1595     1.49683e+10 
           1605     1.44757e+10 
           1615     1.41878e+10 
           1625     1.40531e+10 
           1635     1.38206e+10 
           1645     1.32891e+10 
           1655     1.33765e+10 
           1665     1.31652e+10 
           1672     1.29438e+10 
           1677     1.29559e+10 
           1685      1.2738e+10 
           1695     1.24687e+10 
           1705     1.22044e+10 
           1715     1.19137e+10 
           1725     1.17282e+10 
           1735     1.15916e+10 
           1745     1.13716e+10 
           1755     1.12092e+10 
           1765     1.08846e+10 
           1775      1.0752e+10 
           1785     1.06232e+10 
           1795     1.04667e+10 
           1805     1.03178e+10 
           1815     1.00907e+10 
           1825      9.93746e+9 
           1835      9.77137e+9 
           1845      9.45026e+9 
           1855      9.20818e+9 
           1865      9.14403e+9 
           1875      9.10462e+9 
           1885      8.76813e+9 
           1895      8.51606e+9 
           1905      8.57824e+9 
           1915       8.3085e+9 
           1925      8.15032e+9 
           1935      8.13039e+9 
           1945      8.08424e+9 
           1955      7.76233e+9 
           1967      7.79108e+9 
           1976      7.76407e+9 
           1984      7.56262e+9 
           1995      7.33681e+9 
           2005      7.36989e+9 
           2015      7.30462e+9 
           2025      7.22292e+9 
           2035      7.05522e+9 
           2045      6.94693e+9 
           2055      6.68715e+9 
           2065      6.57201e+9 
           2074      6.60303e+9 
           2078        6.465e+9 
           2085      6.46586e+9 
           2095      6.35715e+9 
           2105      6.36542e+9 
           2115      6.30335e+9 
           2125       6.2314e+9 
           2135      6.13308e+9 
           2145       6.0269e+9 
           2155      5.95601e+9 
           2165      5.87331e+9 
           2175      5.78685e+9 
           2185      5.70599e+9 
           2195      5.63293e+9 
           2205      5.55228e+9 
           2215      5.47116e+9 
           2225      5.39454e+9 
           2235      5.31598e+9 
           2245      5.24825e+9 
           2255      5.16735e+9 
           2265      5.10384e+9 
           2275      5.03366e+9 
           2285      4.96553e+9 
           2295      4.84317e+9 
           2305      4.82506e+9 
           2315      4.76126e+9 
           2325      4.69767e+9 
           2335      4.63119e+9 
           2345       4.5728e+9 
           2355      4.51353e+9 
           2365      4.45301e+9 
           2375      4.39222e+9 
           2385      4.32997e+9 
           2395      4.27667e+9 
           2405      4.22093e+9 
           2415       4.1646e+9 
           2425      4.11303e+9 
           2435      4.05752e+9 
           2445      4.00625e+9 
           2455      3.95574e+9 
           2465      3.90467e+9 
           2475      3.85455e+9 
           2485      3.80523e+9 
           2495      3.69405e+9 
           2505       3.7079e+9 
           2513      3.64914e+9 
           2518      3.64702e+9 
           2525      3.61613e+9 
           2535      3.57054e+9 
           2545      3.51805e+9 
           2555      3.48046e+9 
           2565      3.43895e+9 
           2575      3.39718e+9 
           2585      3.35555e+9 
           2595      3.31441e+9 
           2605      3.29523e+9 
           2615      3.25515e+9 
           2625      3.21536e+9 
           2635      3.17326e+9 
           2645      3.13358e+9 
           2655      3.09191e+9 
           2665      3.04779e+9 
           2675      3.00768e+9 
           2685      2.99117e+9 
           2695      2.93109e+9 
           2705      2.91971e+9 
           2715      2.88526e+9 
           2725      2.82724e+9 
           2735      2.81582e+9 
           2745      2.78339e+9 
           2755      2.75175e+9 
           2765      2.69557e+9 
           2775      2.68919e+9 
           2785      2.65782e+9 
           2795        2.614e+9 
           2805      2.59353e+9 
           2815      2.56762e+9 
           2825      2.50911e+9 
           2835      2.48887e+9 
           2845      2.48099e+9 
           2855      2.45273e+9 
           2865      2.42522e+9 
           2875      2.39803e+9 
           2885       2.3713e+9 
           2895       2.3447e+9 
           2910      2.30551e+9 
           2930      2.25474e+9 
           2950      2.18765e+9 
           2970       2.1576e+9 
           2990      2.11067e+9 
           3010        2.065e+9 
           3030      2.02154e+9 
           3050      1.97867e+9 
           3070      1.93691e+9 
           3090      1.89487e+9 
           3110       1.8566e+9 
           3130      1.81972e+9 
           3150      1.78229e+9 
           3170       1.7451e+9 
           3190      1.69367e+9 
           3210      1.67391e+9 
           3230         1.64e+9 
           3250      1.60686e+9 
           3270      1.57666e+9 
           3290      1.54296e+9 
           3310      1.51495e+9 
           3330      1.48515e+9 
           3350      1.45327e+9 
           3370      1.42785e+9 
           3390       1.4003e+9 
           3410      1.37339e+9 
           3430      1.34045e+9 
           3450      1.30986e+9 
           3470      1.28911e+9 
           3490      1.26476e+9 
           3510      1.24372e+9 
           3530      1.22322e+9 
           3550      1.20084e+9 
           3570      1.18624e+9 
           3590      1.15567e+9 
           3610      1.13848e+9 
           3630       1.1141e+9 
           3640      1.11291e+9 
           3650      1.09194e+9 
           3670      1.07714e+9 
           3690      1.05661e+9 
           3710      1.02032e+9 
           3730      9.78209e+8 
           3750      9.93253e+8 
           3770      9.81417e+8 
           3790       1.0302e+9 
           3810      1.07417e+9 
           3830      9.35063e+8 
           3850      1.10384e+9 
           3870      1.11893e+9 
           3890      8.81046e+8 
           3910      1.09884e+9 
           3930      1.08883e+9 
           3950      1.06344e+9 
           3970      8.18168e+8 
           3990      1.01783e+9 
           4010       1.0162e+9 
           4030      9.52418e+8 
           4050      9.93381e+8 
           4070      9.70633e+8 
           4090      8.83489e+8 
           4110      7.68798e+8 
           4130      9.08445e+8 
           4150      9.01591e+8 
           4170      8.95087e+8 
           4190      8.82142e+8 
           4210      8.67425e+8 
           4230      8.52715e+8 
           4250      8.38097e+8 
           4270      8.22516e+8 
           4290      8.08539e+8 
           4310      7.89655e+8 
           4330      7.07087e+8 
           4350      6.43879e+8 
           4370      7.48787e+8 
           4390      7.20673e+8 
           4410      7.32592e+8 
           4430      7.18314e+8 
           4450      7.09836e+8 
           4470      6.63338e+8 
           4490      6.86481e+8 
           4510      6.76591e+8 
           4530      6.65801e+8 
           4550      6.55121e+8 
           4570      6.44745e+8 
           4590      6.34668e+8 
           4610      6.24795e+8 
           4630      6.15068e+8 
           4650      6.04666e+8 
           4670      5.96095e+8 
           4690      5.86398e+8 
           4710      5.70101e+8 
           4730      5.69079e+8 
           4750      5.60256e+8 
           4770       5.5214e+8 
           4790      5.43763e+8 
           4810      5.34186e+8 
           4830       5.2265e+8 
           4850      4.77412e+8 
           4870      4.25671e+8 
           4890      4.97315e+8 
           4910      4.94459e+8 
           4930      4.75498e+8 
           4950      4.82364e+8 
           4970       4.7547e+8 
           4990       4.6855e+8 
           5010      4.55526e+8 
           5030      4.55082e+8 
           5050      4.45679e+8 
           5070       4.4214e+8 
           5090      4.35837e+8 
           5110      4.29633e+8 
           5130      4.23527e+8 
           5150      4.17531e+8 
           5170      4.11699e+8 
           5190      4.05931e+8 
           5210      4.00239e+8 
           5230      3.94691e+8 
           5250      3.89215e+8 
           5270      3.83839e+8 
           5290      3.78559e+8 
           5310      3.73361e+8 
           5330      3.68257e+8 
           5350      3.63232e+8 
           5370       3.5831e+8 
           5390      3.53465e+8 
           5410      3.48668e+8 
           5430      3.44009e+8 
           5450      3.39396e+8 
           5470      3.34866e+8 
           5490      3.30406e+8 
           5510      3.26026e+8 
           5530      3.21726e+8 
           5550      3.17491e+8 
           5570      3.13321e+8 
           5590      3.09226e+8 
           5610      3.05182e+8 
           5630      3.01223e+8 
           5650      2.97312e+8 
           5670      2.93449e+8 
           5690      2.89633e+8 
           5710      2.85989e+8 
           5730      2.82333e+8 
           5750      2.78709e+8 
           5770      2.75196e+8 
           5790      2.71713e+8 
           5810      2.68283e+8 
           5830      2.64905e+8 
           5850      2.61589e+8 
           5870      2.49718e+8 
           5890      2.54595e+8 
           5910      2.51936e+8 
           5930      2.48815e+8 
           5950      2.45729e+8 
           5970      2.42722e+8 
           5990      2.39739e+8 
           6010      2.36811e+8 
           6030      2.33927e+8 
           6050      2.31086e+8 
           6070      2.28288e+8 
           6090      2.25541e+8 
           6110      2.22826e+8 
           6130      2.20151e+8 
           6150      2.17507e+8 
           6170      2.14921e+8 
           6190      2.12364e+8 
           6210      2.09856e+8 
           6230      2.07375e+8 
           6250      2.04922e+8 
           6270      2.02514e+8 
           6290      2.00143e+8 
           6310      1.97807e+8 
           6330      1.95506e+8 
           6350       1.9323e+8 
           6370      1.90997e+8 
           6390      1.88789e+8 
           6410      1.86622e+8 
           6430      1.84479e+8 
           6450      1.82368e+8 
           6470       1.8027e+8 
           6490      1.78222e+8 
           6510      1.75964e+8 
           6530      1.73147e+8 
           6550      1.64504e+8 
           6570      1.45752e+8 
           6590      1.66148e+8 
           6610      1.65998e+8 
           6630      1.64664e+8 
           6650      1.62934e+8 
           6670      1.59257e+8 
           6690      1.57557e+8 
           6710      1.57598e+8 
           6730      1.55856e+8 
           6750      1.54156e+8 
           6770      1.52466e+8 
           6790      1.50785e+8 
           6810      1.49161e+8 
           6830      1.47546e+8 
           6850      1.45947e+8 
           6870      1.44372e+8 
           6890      1.42821e+8 
           6910      1.41293e+8 
           6930       1.3978e+8 
           6950      1.38291e+8 
           6970      1.36816e+8 
           6990      1.35363e+8 
           7010      1.33933e+8 
           7030      1.32516e+8 
           7050      1.31121e+8 
           7070      1.27516e+8 
           7090      1.28387e+8 
           7110      1.27047e+8 
           7130      1.25727e+8 
           7150      1.24421e+8 
           7170      1.23105e+8 
           7190       1.2186e+8 
           7210      1.20605e+8 
           7230      1.19254e+8 
           7250      1.18138e+8 
           7270      1.16933e+8 
           7290      1.14719e+8 
           7310      1.14543e+8 
           7330        1.134e+8 
           7350      1.12247e+8 
           7370      1.11118e+8 
           7390      1.09993e+8 
           7410      1.08892e+8 
           7430      1.07802e+8 
           7450      1.06735e+8 
           7470      1.05672e+8 
           7490      1.04624e+8 
           7510      1.03547e+8 
           7530      1.02559e+8 
           7550      1.01547e+8 
           7570      1.00545e+8 
           7590      9.95577e+7 
           7610      9.85797e+7 
           7630      9.76171e+7 
           7650      9.66696e+7 
           7670      9.57242e+7 
           7690      9.48001e+7 
           7710       9.3878e+7 
           7730      9.29767e+7 
           7750      9.20772e+7 
           7770      9.11857e+7 
           7790      9.03208e+7 
           7810      8.94018e+7 
           7830      8.86015e+7 
           7850      8.78511e+7 
           7870      8.70158e+7 
           7890      8.61335e+7 
           7910      8.53793e+7 
           7930      8.45778e+7 
           7950      8.37653e+7 
           7970      8.27998e+7 
           7990      8.20259e+7 
           8010       8.1241e+7 
           8030      8.04745e+7 
           8050      7.97264e+7 
           8070      7.90193e+7 
           8090      7.81801e+7 
           8110      7.75716e+7 
           8130      7.69054e+7 
           8150      7.61144e+7 
           8170      7.55221e+7 
           8190      7.47381e+7 
           8210      7.38546e+7 
           8230      7.33904e+7 
           8250      7.27472e+7 
           8270      7.17292e+7 
           8290       7.1389e+7 
           8310      7.07785e+7 
           8330      7.01024e+7 
           8350      6.91186e+7 
           8370      6.87457e+7 
           8390      6.82364e+7 
           8410      6.76299e+7 
           8430      6.69754e+7 
           8450      6.59042e+7 
           8470      6.57614e+7 
           8490      6.50234e+7 
           8510      6.44892e+7 
           8530      6.38713e+7 
           8550      6.29029e+7 
           8570      6.32919e+7 
           8590      6.10523e+7 
