# Kurucz ODFNEW /NOVER (2003)
# teff = 20000 K (value for the effective temperature for the model. Temperatures are given in K)
# logg = 4.5 log(cm/s2) (value for Log(G) for the model.)
# meta = 0.5  (value for the Metallicity for the model.)
# lh = 1.25  (l/Hp where l is the  mixing length of the convective element and Hp is the pressure scale height)
# vtur = 2 km/s (Microturbulence velocity)
# alpha = 0  (Alpha)
#
# column 1: WAVELENGTH (ANGSTROM), Wavelength in Angstrom
# column 2: FLUX (ERG/CM2/S/A), Flux in erg/cm2/s/A
          147.2     3.20208e-19 
            151     1.83234e-18 
          155.2     1.14232e-17 
          158.8      5.0762e-17 
            162     1.81058e-16 
            166     8.29308e-16 
          170.3     3.92277e-15 
          173.4      1.1533e-14 
          176.8     3.59552e-14 
          180.2     1.07559e-13 
          181.7     1.71939e-13 
          186.1     6.54054e-13 
            191     2.70034e-12 
          193.9     6.03102e-12 
          198.4     2.00651e-11 
          201.8     4.81356e-11 
            205     1.06999e-10 
          210.5     3.98442e-10 
          216.2       1.4534e-9 
          219.8      3.18269e-9 
            223      6.25021e-9 
          226.8      1.36086e-8 
            230       7.4299e-8 
            234      1.86294e-7 
            240      5.62812e-7 
          246.5      1.73614e-6 
          252.4      4.61041e-6 
          256.8      9.09686e-6 
            260      1.51985e-5 
            264      2.76228e-5 
          268.5      5.28575e-5 
          273.5     0.000105733 
          278.5     0.000207676 
            284     0.000428066 
            290     0.000900119 
            296      0.00183317 
            301       0.0032462 
            308      0.00700292 
            318       0.0201039 
            328       0.0524698 
            338        0.132949 
            348        0.314252 
            357        0.702357 
            366         1.42389 
            375         2.70817 
            385         5.40371 
            395         10.4021 
            405         19.2948 
            414         32.9415 
            422         51.3782 
            430         79.4432 
            441         140.692 
            451         230.148 
            460         349.757 
            470         550.172 
            480         844.109 
            490         1276.94 
            500         1893.74 
            506         12360.9 
            512          131178 
            520          164220 
            530          226225 
            540          264331 
            550          398449 
            560          486601 
            570          638701 
            580          665940 
            590          928490 
            600      1.14955e+6 
            610      1.45306e+6 
            620      1.67108e+6 
            630      1.94155e+6 
            640      2.00551e+6 
            650      1.64753e+6 
            658      2.61992e+6 
            665      3.11359e+6 
            675      3.55823e+6 
            685      3.93602e+6 
            695      4.92632e+6 
            705      5.40629e+6 
            716      6.24137e+6 
            726      6.90237e+6 
            735      7.48891e+6 
            745       8.6895e+6 
            755      9.72448e+6 
            765      1.08836e+7 
            775      1.21381e+7 
            785      1.34106e+7 
            795      1.44159e+7 
            805      1.56232e+7 
            815       1.6866e+7 
            825      1.87544e+7 
            835      1.88466e+7 
            845      2.10919e+7 
            855      2.26772e+7 
            865      2.47887e+7 
            875      2.70807e+7 
            885      2.99541e+7 
            895      3.21757e+7 
            905      3.23283e+7 
            915      5.27324e+7 
            925      2.51542e+8 
            935      6.09378e+8 
            945       1.5413e+9 
            955      2.83555e+9 
            965      3.71027e+9 
            975      7.33268e+8 
            985      3.96367e+9 
            995      4.12185e+9 
           1005      5.45647e+9 
           1015      5.23759e+9 
           1025      1.53915e+9 
           1035      3.29191e+9 
           1045      7.63998e+9 
           1055      7.51851e+9 
           1065      5.54553e+9 
           1075        7.272e+9 
           1085      6.29405e+9 
           1095      7.65288e+9 
           1105       6.5462e+9 
           1115      6.03143e+9 
           1125      5.51807e+9 
           1135       7.7023e+9 
           1145      6.49709e+9 
           1155       7.1998e+9 
           1165      7.49531e+9 
           1175      4.95557e+9 
           1185      7.71259e+9 
           1195      5.15435e+9 
           1205      2.68065e+9 
           1215      1.68494e+9 
           1225      4.58063e+9 
           1235      7.78122e+9 
           1245      8.10636e+9 
           1255      7.91861e+9 
           1265      7.36614e+9 
           1275      7.92102e+9 
           1285       8.3759e+9 
           1295      4.71343e+9 
           1305      4.37159e+9 
           1315      7.84994e+9 
           1325      7.25144e+9 
           1335      6.36597e+9 
           1345      7.60071e+9 
           1355       7.3215e+9 
           1365      6.23197e+9 
           1375      6.35486e+9 
           1385      6.44607e+9 
           1395      5.22594e+9 
           1405      5.58121e+9 
           1415      5.59104e+9 
           1425       5.8492e+9 
           1435      5.92072e+9 
           1442      6.25544e+9 
           1447      6.16496e+9 
           1455      5.98845e+9 
           1465      5.44234e+9 
           1475      5.53347e+9 
           1485      5.44246e+9 
           1495       5.4385e+9 
           1505      4.85867e+9 
           1512      4.29158e+9 
           1517      4.56962e+9 
           1525      4.74228e+9 
           1535      4.07727e+9 
           1545      4.14272e+9 
           1555      3.98195e+9 
           1565      4.14949e+9 
           1575      4.43806e+9 
           1585      4.54029e+9 
           1595      4.53418e+9 
           1605      4.57935e+9 
           1615      4.59966e+9 
           1625      4.36503e+9 
           1635      4.70301e+9 
           1645       4.6836e+9 
           1655      4.38028e+9 
           1665      4.78552e+9 
           1672      4.56212e+9 
           1677       4.7237e+9 
           1685      4.83155e+9 
           1695      4.50078e+9 
           1705       4.2846e+9 
           1715      3.97246e+9 
           1725      3.92552e+9 
           1735      4.20303e+9 
           1745      4.01903e+9 
           1755      4.18338e+9 
           1765      3.90065e+9 
           1775      3.80876e+9 
           1785      3.92357e+9 
           1795      4.17042e+9 
           1805      4.20979e+9 
           1815      3.64067e+9 
           1825       3.8659e+9 
           1835      3.63144e+9 
           1845      3.29713e+9 
           1855      3.16884e+9 
           1865       3.2633e+9 
           1875       3.6765e+9 
           1885      3.21573e+9 
           1895      2.98885e+9 
           1905      3.32088e+9 
           1915      3.02372e+9 
           1925      2.93027e+9 
           1935      3.12393e+9 
           1945      3.16518e+9 
           1955      2.86675e+9 
           1967      3.20773e+9 
           1976      3.34038e+9 
           1984      3.05795e+9 
           1995      2.98428e+9 
           2005      3.14623e+9 
           2015      2.97024e+9 
           2025      3.21558e+9 
           2035      2.88731e+9 
           2045      2.98706e+9 
           2055      2.86074e+9 
           2065      2.87815e+9 
           2074      3.05396e+9 
           2078      2.72735e+9 
           2085      2.91896e+9 
           2095      2.71202e+9 
           2105      2.80331e+9 
           2115      2.81855e+9 
           2125      2.85207e+9 
           2135      2.73078e+9 
           2145      2.64905e+9 
           2155      2.77565e+9 
           2165      2.73552e+9 
           2175      2.70357e+9 
           2185      2.58222e+9 
           2195      2.65985e+9 
           2205      2.61021e+9 
           2215      2.53071e+9 
           2225       2.4256e+9 
           2235      2.49618e+9 
           2245      2.47123e+9 
           2255      2.34349e+9 
           2265       2.4269e+9 
           2275      2.42592e+9 
           2285      2.44196e+9 
           2295       2.2884e+9 
           2305      2.30156e+9 
           2315      2.19877e+9 
           2325      2.15941e+9 
           2335       2.0532e+9 
           2345        2.051e+9 
           2355      2.07078e+9 
           2365      2.00535e+9 
           2375      2.00706e+9 
           2385      1.94609e+9 
           2395      2.01979e+9 
           2405      1.91601e+9 
           2415      1.95037e+9 
           2425       1.9657e+9 
           2435      1.87201e+9 
           2445      1.93034e+9 
           2455      1.91158e+9 
           2465      1.88035e+9 
           2475      1.82915e+9 
           2485       1.8729e+9 
           2495      1.77241e+9 
           2505      1.84468e+9 
           2513       1.7205e+9 
           2518      1.81124e+9 
           2525      1.73184e+9 
           2535      1.72254e+9 
           2545      1.65325e+9 
           2555      1.71195e+9 
           2565      1.69033e+9 
           2575      1.73069e+9 
           2585        1.722e+9 
           2595      1.71228e+9 
           2605      1.67635e+9 
           2615      1.66162e+9 
           2625      1.65166e+9 
           2635      1.65158e+9 
           2645      1.66329e+9 
           2655      1.65805e+9 
           2665      1.57779e+9 
           2675      1.60861e+9 
           2685      1.59059e+9 
           2695       1.5413e+9 
           2705      1.53214e+9 
           2715      1.51055e+9 
           2725      1.49446e+9 
           2735      1.51679e+9 
           2745      1.43132e+9 
           2755      1.43191e+9 
           2765      1.43217e+9 
           2775      1.45817e+9 
           2785      1.44198e+9 
           2795      1.36595e+9 
           2805      1.40157e+9 
           2815      1.41132e+9 
           2825      1.38713e+9 
           2835       1.3131e+9 
           2845      1.31929e+9 
           2855       1.3201e+9 
           2865      1.34091e+9 
           2875      1.31679e+9 
           2885      1.30632e+9 
           2895      1.29335e+9 
           2910      1.28344e+9 
           2930        1.255e+9 
           2950      1.21891e+9 
           2970      1.20806e+9 
           2990      1.17969e+9 
           3010      1.15887e+9 
           3030      1.15343e+9 
           3050      1.12774e+9 
           3070       1.1067e+9 
           3090      1.07955e+9 
           3110      1.06225e+9 
           3130      1.04449e+9 
           3150      1.02595e+9 
           3170      1.00015e+9 
           3190      9.71949e+8 
           3210      9.66566e+8 
           3230      9.50156e+8 
           3250      9.35074e+8 
           3270      9.18315e+8 
           3290      9.01407e+8 
           3310      8.87727e+8 
           3330      8.69995e+8 
           3350      8.52588e+8 
           3370       8.3812e+8 
           3390      8.24851e+8 
           3410      8.11283e+8 
           3430      7.92948e+8 
           3450      7.76659e+8 
           3470      7.64572e+8 
           3490      7.51226e+8 
           3510      7.39601e+8 
           3530      7.29672e+8 
           3550      7.17736e+8 
           3570      7.09362e+8 
           3590      6.88444e+8 
           3610      6.78495e+8 
           3630      6.69181e+8 
           3640      6.69205e+8 
           3650      6.61132e+8 
           3670      6.53974e+8 
           3690      6.41952e+8 
           3710      6.17395e+8 
           3730       5.8913e+8 
           3750      6.16698e+8 
           3770      6.16878e+8 
           3790      6.65986e+8 
           3810      7.04559e+8 
           3830      5.98934e+8 
           3850      7.30584e+8 
           3870       7.4715e+8 
           3890      5.61182e+8 
           3910      7.49043e+8 
           3930      7.28877e+8 
           3950      7.22094e+8 
           3970      5.22921e+8 
           3990      6.88544e+8 
           4010      6.98515e+8 
           4030      6.46412e+8 
           4050      6.82557e+8 
           4070      6.51713e+8 
           4090      5.88602e+8 
           4110      5.03002e+8 
           4130       6.1403e+8 
           4150      6.14689e+8 
           4170      6.13638e+8 
           4190      6.09832e+8 
           4210      6.04052e+8 
           4230      5.91174e+8 
           4250      5.77134e+8 
           4270      5.55934e+8 
           4290      5.56924e+8 
           4310      5.39538e+8 
           4330       4.7101e+8 
           4350      4.24481e+8 
           4370      5.09062e+8 
           4390      4.97846e+8 
           4410      5.05719e+8 
           4430      4.97247e+8 
           4450      4.94842e+8 
           4470      4.60238e+8 
           4490      4.74329e+8 
           4510      4.75188e+8 
           4530      4.64778e+8 
           4550      4.59391e+8 
           4570      4.53052e+8 
           4590      4.45768e+8 
           4610      4.36059e+8 
           4630      4.27449e+8 
           4650      4.20435e+8 
           4670      4.17878e+8 
           4690       4.1415e+8 
           4710      3.95221e+8 
           4730      3.96146e+8 
           4750      3.90663e+8 
           4770      3.91616e+8 
           4790      3.83328e+8 
           4810       3.7339e+8 
           4830      3.65685e+8 
           4850      3.27121e+8 
           4870      2.86047e+8 
           4890      3.49724e+8 
           4910      3.48725e+8 
           4930      3.33842e+8 
           4950      3.40913e+8 
           4970      3.38007e+8 
           4990       3.3202e+8 
           5010      3.15296e+8 
           5030      3.20462e+8 
           5050       3.1038e+8 
           5070      3.13447e+8 
           5090      3.08502e+8 
           5110      3.02528e+8 
           5130      2.95149e+8 
           5150      2.91384e+8 
           5170      2.91643e+8 
           5190      2.87805e+8 
           5210      2.79742e+8 
           5230       2.7988e+8 
           5250      2.76521e+8 
           5270      2.71849e+8 
           5290      2.69892e+8 
           5310      2.65618e+8 
           5330      2.61506e+8 
           5350      2.56949e+8 
           5370       2.5577e+8 
           5390      2.52228e+8 
           5410      2.48539e+8 
           5430      2.44437e+8 
           5450      2.41632e+8 
           5470       2.3798e+8 
           5490      2.36061e+8 
           5510      2.32973e+8 
           5530      2.29813e+8 
           5550      2.27389e+8 
           5570      2.24181e+8 
           5590      2.21711e+8 
           5610      2.18481e+8 
           5630      2.16599e+8 
           5650      2.10513e+8 
           5670      2.07882e+8 
           5690      2.06353e+8 
           5710      2.05072e+8 
           5730      2.02817e+8 
           5750      2.00064e+8 
           5770      1.98136e+8 
           5790      1.95545e+8 
           5810      1.93018e+8 
           5830      1.90421e+8 
           5850      1.88329e+8 
           5870      1.79132e+8 
           5890      1.81241e+8 
           5910      1.81019e+8 
           5930      1.78997e+8 
           5950      1.75805e+8 
           5970      1.75126e+8 
           5990      1.72352e+8 
           6010      1.71092e+8 
           6030      1.68788e+8 
           6050      1.66944e+8 
           6070      1.65027e+8 
           6090      1.62868e+8 
           6110      1.61198e+8 
           6130      1.59436e+8 
           6150      1.55911e+8 
           6170      1.55337e+8 
           6190      1.53834e+8 
           6210      1.52073e+8 
           6230      1.50205e+8 
           6250      1.47673e+8 
           6270      1.46608e+8 
           6290      1.44963e+8 
           6310      1.43043e+8 
           6330       1.4182e+8 
           6350      1.38957e+8 
           6370      1.37965e+8 
           6390      1.36789e+8 
           6410      1.35231e+8 
           6430      1.34127e+8 
           6450      1.32354e+8 
           6470      1.30521e+8 
           6490      1.29163e+8 
           6510       1.2741e+8 
           6530      1.25209e+8 
           6550      1.16893e+8 
           6570      1.01014e+8 
           6590      1.18862e+8 
           6610      1.20472e+8 
           6630      1.19669e+8 
           6650      1.18567e+8 
           6670      1.15816e+8 
           6690      1.14695e+8 
           6710      1.14808e+8 
           6730      1.13486e+8 
           6750       1.1245e+8 
           6770      1.11294e+8 
           6790       1.0898e+8 
           6810      1.08658e+8 
           6830      1.07498e+8 
           6850      1.06566e+8 
           6870      1.05467e+8 
           6890      1.04316e+8 
           6910      1.03216e+8 
           6930      1.01923e+8 
           6950      1.01127e+8 
           6970      1.00105e+8 
           6990      9.90089e+7 
           7010      9.79387e+7 
           7030      9.69325e+7 
           7050      9.57315e+7 
           7070      9.31406e+7 
           7090      9.38899e+7 
           7110      9.24458e+7 
           7130      9.15648e+7 
           7150      9.09427e+7 
           7170      9.01869e+7 
           7190      8.93652e+7 
           7210      8.84715e+7 
           7230      8.60657e+7 
           7250      8.65304e+7 
           7270       8.5834e+7 
           7290      8.42507e+7 
           7310      8.41076e+7 
           7330      8.32776e+7 
           7350      8.24973e+7 
           7370      8.16756e+7 
           7390      8.08685e+7 
           7410      8.00758e+7 
           7430      7.90925e+7 
           7450      7.84309e+7 
           7470      7.74443e+7 
           7490        7.685e+7 
           7510      7.61206e+7 
           7530      7.53779e+7 
           7550      7.47346e+7 
           7570      7.40378e+7 
           7590      7.32688e+7 
           7610      7.26175e+7 
           7630      7.19202e+7 
           7650      7.12356e+7 
           7670      7.05572e+7 
           7690      6.98722e+7 
           7710      6.92313e+7 
           7730      6.85394e+7 
           7750      6.79164e+7 
           7770      6.65251e+7 
           7790      6.66495e+7 
           7810      6.59998e+7 
           7830      6.54234e+7 
           7850      6.45342e+7 
           7870      6.40119e+7 
           7890      6.31916e+7 
           7910      6.29688e+7 
           7930      6.24598e+7 
           7950      6.15439e+7 
           7970      6.12117e+7 
           7990      6.02506e+7 
           8010      6.00852e+7 
           8030      5.95117e+7 
           8050      5.89431e+7 
           8070      5.84662e+7 
           8090      5.78551e+7 
           8110       5.7341e+7 
           8130      5.68757e+7 
           8150      5.63627e+7 
           8170      5.59358e+7 
           8190      5.52894e+7 
           8210      5.46448e+7 
           8230      5.40642e+7 
           8250      5.39562e+7 
           8270      5.31921e+7 
           8290        5.295e+7 
           8310      5.25023e+7 
           8330      5.20665e+7 
           8350      5.13646e+7 
           8370      5.10263e+7 
           8390      5.07534e+7 
           8410      5.02939e+7 
           8430      4.97868e+7 
           8450      4.87024e+7 
           8470      4.88944e+7 
           8490      4.83026e+7 
           8510      4.78355e+7 
           8530      4.75618e+7 
           8550      4.64907e+7 
           8570       4.7225e+7 
