# Kurucz ODFNEW /NOVER (2003)
# teff = 8500 K (value for the effective temperature for the model. Temperatures are given in K)
# logg = 4.5 log(cm/s2) (value for Log(G) for the model.)
# meta = -2.5  (value for the Metallicity for the model.)
# lh = 1.25  (l/Hp where l is the  mixing length of the convective element and Hp is the pressure scale height)
# vtur = 2 km/s (Microturbulence velocity)
# alpha = 0.4  (Alpha)
#
# column 1: WAVELENGTH (ANGSTROM), Wavelength in Angstrom
# column 2: FLUX (ERG/CM2/S/A), Flux in erg/cm2/s/A
          273.5      4.1023e-23 
          278.5     2.07414e-22 
            284     9.98948e-22 
            290     5.07129e-21 
            296     2.40143e-20 
            301     8.35656e-20 
            308     4.46449e-19 
            318     4.28684e-18 
            328     3.57071e-17 
            338     2.61251e-16 
            348     1.69821e-15 
            357     8.34221e-15 
            366     3.77837e-14 
            375     1.58707e-13 
            385     7.20443e-13 
            395     3.01939e-12 
            405     1.17547e-11 
            414     3.76694e-11 
            422      1.0154e-10 
            430     2.63323e-10 
            441     9.20181e-10 
            451      2.71451e-9 
            460      6.88955e-9 
            470      1.85568e-8 
            480      4.78564e-8 
            490      1.18485e-7 
            500      2.82321e-7 
            506      4.67461e-7 
            512      7.63766e-7 
            520      1.44255e-6 
            530      3.10436e-6 
            540      6.48192e-6 
            550       1.3155e-5 
            560      2.59902e-5 
            570      5.00567e-5 
            580      9.41129e-5 
            590     0.000172943 
            600     0.000311001 
            610     0.000547832 
            620     0.000946322 
            630      0.00160449 
            640      0.00267261 
            650      0.00437719 
            658      0.00642016 
            665      0.00890316 
            675       0.0140257 
            685       0.0217788 
            695       0.0333587 
            705       0.0504292 
            716       0.0783065 
            726        0.115376 
            735        0.161926 
            745        0.233514 
            755        0.333219 
            765        0.470679 
            775        0.658402 
            785        0.912379 
            795         1.25299 
            805         1.70597 
            815         2.30334 
            825         3.08513 
            835         4.10043 
            845         5.40962 
            855         7.08547 
            865         9.21652 
            875         11.9087 
            885          15.289 
            895         19.5075 
            905         24.7401 
            915         40.1008 
            925         118.827 
            935         204.037 
            945         383.528 
            955         590.441 
            965         805.181 
            975         588.857 
            985         1467.16 
            995         1965.49 
           1005         2197.02 
           1015         1889.23 
           1025         1162.29 
           1035         2584.75 
           1045         4191.54 
           1055         5273.42 
           1065         6919.95 
           1075         8784.62 
           1085         12225.8 
           1095         14396.5 
           1105         20940.3 
           1115         35932.8 
           1125         31147.4 
           1135         30115.5 
           1145         23269.1 
           1155         20417.6 
           1165         20047.7 
           1175         19113.9 
           1185         22264.8 
           1195         15917.3 
           1205         12067.3 
           1215         6438.13 
           1225         13731.6 
           1235         23928.3 
           1245         27945.6 
           1255         38901.8 
           1265         50067.4 
           1275         65963.7 
           1285          128520 
           1295          210595 
           1305          428864 
           1315          681772 
           1325      1.06992e+6 
           1335      1.58585e+6 
           1345       2.1935e+6 
           1355      2.65533e+6 
           1365      3.19464e+6 
           1375      2.82513e+6 
           1385      2.25795e+6 
           1395      2.08128e+6 
           1405      4.11172e+6 
           1415      8.13659e+6 
           1425      8.90106e+6 
           1435      9.44007e+6 
           1442      1.09241e+7 
           1447      9.68233e+6 
           1455      1.13578e+7 
           1465      1.02249e+7 
           1475      1.08865e+7 
           1485      1.13667e+7 
           1495      1.17771e+7 
           1505       1.2577e+7 
           1512      1.28103e+7 
           1517      1.12618e+7 
           1525       1.1461e+7 
           1535      1.11569e+7 
           1545      9.73836e+6 
           1555      8.46635e+6 
           1565      6.18324e+6 
           1575      5.99851e+6 
           1585          5.4e+6 
           1595      4.83494e+6 
           1605      4.94219e+6 
           1615      7.96307e+6 
           1625      1.26005e+7 
           1635      1.85079e+7 
           1645      2.66938e+7 
           1655      2.72841e+7 
           1665      3.56383e+7 
           1672      3.55898e+7 
           1677      3.79579e+7 
           1685      4.02627e+7 
           1695      3.97615e+7 
           1705      4.08101e+7 
           1715       4.3293e+7 
           1725      4.32078e+7 
           1735      4.46297e+7 
           1745      4.38648e+7 
           1755      4.50005e+7 
           1765      4.32258e+7 
           1775      4.48339e+7 
           1785      4.47562e+7 
           1795      4.60245e+7 
           1805      4.50626e+7 
           1815      4.51393e+7 
           1825      4.47285e+7 
           1835      4.53041e+7 
           1845      4.35781e+7 
           1855      4.50955e+7 
           1865      4.56747e+7 
           1875      4.57214e+7 
           1885      4.58186e+7 
           1895      4.59321e+7 
           1905      4.50858e+7 
           1915      4.59074e+7 
           1925      4.63823e+7 
           1935       4.5403e+7 
           1945      4.65875e+7 
           1955       4.6534e+7 
           1967      4.66368e+7 
           1976      4.57219e+7 
           1984      4.55453e+7 
           1995      4.61349e+7 
           2005      4.54481e+7 
           2015      4.50937e+7 
           2025      4.47716e+7 
           2035      4.57818e+7 
           2045       4.5727e+7 
           2055      4.46372e+7 
           2065      4.49613e+7 
           2074        4.582e+7 
           2078      4.58671e+7 
           2085      4.55865e+7 
           2095      4.54425e+7 
           2105      4.52702e+7 
           2115      4.52036e+7 
           2125      4.49051e+7 
           2135      4.44557e+7 
           2145      4.52155e+7 
           2155      4.48244e+7 
           2165      4.39081e+7 
           2175      4.40819e+7 
           2185      4.43106e+7 
           2195      4.49196e+7 
           2205      4.40063e+7 
           2215      4.25011e+7 
           2225      4.31548e+7 
           2235      4.44506e+7 
           2245      4.37879e+7 
           2255      4.27906e+7 
           2265      4.22212e+7 
           2275      4.32921e+7 
           2285       4.3466e+7 
           2295      4.27583e+7 
           2305      4.30248e+7 
           2315      4.26996e+7 
           2325      4.26934e+7 
           2335      4.22414e+7 
           2345      4.04987e+7 
           2355       4.2137e+7 
           2365      4.06593e+7 
           2375      4.15338e+7 
           2385       3.9461e+7 
           2395      4.10966e+7 
           2405      4.08473e+7 
           2415      4.08373e+7 
           2425      4.17344e+7 
           2435      4.08255e+7 
           2445      4.12271e+7 
           2455      4.12788e+7 
           2465      4.04107e+7 
           2475      4.01273e+7 
           2485       4.0246e+7 
           2495      3.97238e+7 
           2505      4.07791e+7 
           2513      3.96805e+7 
           2518      3.93531e+7 
           2525      3.86885e+7 
           2535      3.86225e+7 
           2545       3.8889e+7 
           2555      4.00383e+7 
           2565      3.96964e+7 
           2575      4.01983e+7 
           2585      4.03496e+7 
           2595      4.00018e+7 
           2605      3.94732e+7 
           2615      3.92192e+7 
           2625      3.92277e+7 
           2635      3.93977e+7 
           2645      4.07934e+7 
           2655      4.06144e+7 
           2665      3.98147e+7 
           2675      4.00077e+7 
           2685      4.02862e+7 
           2695      3.98716e+7 
           2705       3.9843e+7 
           2715        3.909e+7 
           2725      3.90381e+7 
           2735      3.92613e+7 
           2745      3.77123e+7 
           2755      3.78138e+7 
           2765      3.85169e+7 
           2775      3.90989e+7 
           2785      3.86865e+7 
           2795      3.54781e+7 
           2805      3.71342e+7 
           2815       3.9168e+7 
           2825      3.90196e+7 
           2835      3.84884e+7 
           2845      3.83533e+7 
           2855      3.76465e+7 
           2865      3.80418e+7 
           2875      3.80958e+7 
           2885      3.79942e+7 
           2895      3.83188e+7 
           2910      3.83896e+7 
           2930      3.77357e+7 
           2950      3.75357e+7 
           2970      3.75452e+7 
           2990      3.73181e+7 
           3010      3.73557e+7 
           3030      3.72039e+7 
           3050      3.70404e+7 
           3070       3.6686e+7 
           3090      3.66534e+7 
           3110      3.65274e+7 
           3130      3.63209e+7 
           3150      3.61019e+7 
           3170      3.60103e+7 
           3190      3.55242e+7 
           3210      3.55849e+7 
           3230       3.5177e+7 
           3250      3.52401e+7 
           3270      3.52458e+7 
           3290      3.51319e+7 
           3310      3.49871e+7 
           3330      3.46768e+7 
           3350      3.43647e+7 
           3370      3.42732e+7 
           3390      3.41289e+7 
           3410      3.41412e+7 
           3430      3.39748e+7 
           3450      3.37941e+7 
           3470      3.36403e+7 
           3490      3.35033e+7 
           3510      3.33672e+7 
           3530       3.3223e+7 
           3550      3.30769e+7 
           3570       3.2864e+7 
           3590      3.27151e+7 
           3610      3.25646e+7 
           3630      3.24241e+7 
           3640      3.23428e+7 
           3650      3.24373e+7 
           3670      3.23756e+7 
           3690      3.13837e+7 
           3710      3.14979e+7 
           3730      3.13045e+7 
           3750      3.79663e+7 
           3770       3.9791e+7 
           3790      4.73793e+7 
           3810      5.54242e+7 
           3830      4.49207e+7 
           3850      6.18957e+7 
           3870      7.02929e+7 
           3890      3.95698e+7 
           3910      7.06536e+7 
           3930      7.76368e+7 
           3950      7.05385e+7 
           3970      3.84668e+7 
           3990      6.70205e+7 
           4010      7.83794e+7 
           4030      7.98789e+7 
           4050       7.8566e+7 
           4070      7.36361e+7 
           4090      5.44709e+7 
           4110      4.19726e+7 
           4130      6.90759e+7 
           4150        7.439e+7 
           4170      7.52185e+7 
           4190      7.49485e+7 
           4210      7.43082e+7 
           4230      7.33819e+7 
           4250      7.25281e+7 
           4270      7.12387e+7 
           4290      6.92168e+7 
           4310      6.42197e+7 
           4330      4.62992e+7 
           4350       3.9629e+7 
           4370      6.11249e+7 
           4390      6.53663e+7 
           4410      6.61288e+7 
           4430      6.59995e+7 
           4450      6.55369e+7 
           4470      6.49801e+7 
           4490       6.4253e+7 
           4510      6.37399e+7 
           4530      6.31673e+7 
           4550       6.2495e+7 
           4570      6.18986e+7 
           4590      6.12495e+7 
           4610      6.06572e+7 
           4630      6.00042e+7 
           4650      5.93968e+7 
           4670      5.87113e+7 
           4690      5.80437e+7 
           4710      5.73345e+7 
           4730      5.67715e+7 
           4750      5.60807e+7 
           4770      5.52985e+7 
           4790      5.43024e+7 
           4810      5.27152e+7 
           4830      4.91192e+7 
           4850      3.74912e+7 
           4870      3.07538e+7 
           4890      4.61189e+7 
           4910      4.97319e+7 
           4930      5.04561e+7 
           4950      5.04612e+7 
           4970      5.01916e+7 
           4990      4.98022e+7 
           5010      4.93529e+7 
           5030      4.89329e+7 
           5050      4.85357e+7 
           5070      4.80847e+7 
           5090      4.76159e+7 
           5110      4.71545e+7 
           5130      4.66945e+7 
           5150      4.62373e+7 
           5170      4.56209e+7 
           5190      4.52672e+7 
           5210      4.49092e+7 
           5230      4.44645e+7 
           5250      4.40621e+7 
           5270       4.3609e+7 
           5290      4.32206e+7 
           5310      4.28048e+7 
           5330       4.2386e+7 
           5350      4.20013e+7 
           5370      4.15975e+7 
           5390      4.12077e+7 
           5410      4.08122e+7 
           5430      4.04355e+7 
           5450      4.00568e+7 
           5470      3.96838e+7 
           5490      3.93152e+7 
           5510      3.89509e+7 
           5530      3.85847e+7 
           5550      3.82325e+7 
           5570      3.78771e+7 
           5590      3.75233e+7 
           5610      3.71808e+7 
           5630      3.68423e+7 
           5650       3.6504e+7 
           5670      3.61696e+7 
           5690      3.58402e+7 
           5710      3.55133e+7 
           5730      3.51912e+7 
           5750      3.48705e+7 
           5770      3.45556e+7 
           5790      3.42442e+7 
           5810      3.39352e+7 
           5830      3.36308e+7 
           5850      3.33285e+7 
           5870      3.30264e+7 
           5890      3.27123e+7 
           5910      3.24449e+7 
           5930      3.21568e+7 
           5950      3.18718e+7 
           5970      3.15899e+7 
           5990      3.13111e+7 
           6010      3.10363e+7 
           6030      3.07624e+7 
           6050      3.04934e+7 
           6070      3.02264e+7 
           6090      2.99632e+7 
           6110      2.97017e+7 
           6130      2.94411e+7 
           6150      2.91831e+7 
           6170      2.89299e+7 
           6190      2.86853e+7 
           6210      2.84383e+7 
           6230      2.81919e+7 
           6250      2.79481e+7 
           6270      2.77117e+7 
           6290      2.74748e+7 
           6310      2.72403e+7 
           6330      2.70083e+7 
           6350      2.67721e+7 
           6370      2.65476e+7 
           6390       2.6295e+7 
           6410      2.60358e+7 
           6430      2.57902e+7 
           6450      2.55264e+7 
           6470      2.52392e+7 
           6490      2.48782e+7 
           6510      2.43353e+7 
           6530      2.32102e+7 
           6550      1.98338e+7 
           6570       1.6175e+7 
           6590      2.17321e+7 
           6610      2.30752e+7 
           6630      2.33758e+7 
           6650      2.33777e+7 
           6670      2.32767e+7 
           6690      2.31343e+7 
           6710      2.29724e+7 
           6730      2.28152e+7 
           6750      2.26588e+7 
           6770      2.24782e+7 
           6790      2.22961e+7 
           6810       2.2115e+7 
           6830      2.19364e+7 
           6850      2.17595e+7 
           6870      2.15843e+7 
           6890      2.14108e+7 
           6910      2.12389e+7 
           6930      2.10687e+7 
           6950      2.09008e+7 
           6970      2.07337e+7 
           6990       2.0569e+7 
           7010      2.04058e+7 
           7030      2.02441e+7 
           7050      2.00839e+7 
           7070      1.99252e+7 
           7090      1.97687e+7 
           7110      1.96107e+7 
           7130      1.94586e+7 
           7150      1.93057e+7 
           7170      1.91556e+7 
           7190      1.90062e+7 
           7210      1.88582e+7 
           7230      1.87115e+7 
           7250      1.85661e+7 
           7270       1.8422e+7 
           7290      1.82793e+7 
           7310      1.81385e+7 
           7330      1.79983e+7 
           7350      1.78607e+7 
           7370      1.77237e+7 
           7390      1.75878e+7 
           7410      1.74519e+7 
           7430      1.73191e+7 
           7450      1.71876e+7 
           7470      1.70572e+7 
           7490      1.69273e+7 
           7510      1.67992e+7 
           7530      1.66728e+7 
           7550      1.65469e+7 
           7570      1.64222e+7 
           7590      1.62984e+7 
           7610      1.61765e+7 
           7630      1.60555e+7 
           7650       1.5935e+7 
           7670      1.58161e+7 
           7690      1.56983e+7 
           7710      1.55815e+7 
           7730      1.54656e+7 
           7750      1.53514e+7 
           7770      1.52064e+7 
           7790      1.51253e+7 
           7810      1.50139e+7 
           7830      1.49029e+7 
           7850      1.47935e+7 
           7870      1.46843e+7 
           7890      1.45755e+7 
           7910      1.44711e+7 
           7930      1.43653e+7 
           7950      1.42603e+7 
           7970       1.4158e+7 
           7990       1.4053e+7 
           8010      1.39529e+7 
           8030      1.38526e+7 
           8050      1.37524e+7 
           8070      1.36531e+7 
           8090      1.35552e+7 
           8110       1.3458e+7 
           8130      1.33617e+7 
           8150      1.32661e+7 
           8170      1.31714e+7 
           8190      1.30751e+7 
           8210       1.3002e+7 
           8230      1.29149e+7 
           8250      1.28286e+7 
           8270      1.27484e+7 
           8290      1.26651e+7 
           8310      1.25818e+7 
           8330      1.24954e+7 
           8350       1.2414e+7 
           8370      1.23257e+7 
           8390      1.22349e+7 
           8410      1.21422e+7 
           8430      1.20512e+7 
           8450      1.19663e+7 
           8470      1.17927e+7 
           8490      1.18193e+7 
           8510      1.14834e+7 
           8530      1.16958e+7 
           8550      1.10526e+7 
           8570      1.16484e+7 
           8590      1.10801e+7 
           8610      1.08782e+7 
           8630      1.15755e+7 
           8650      1.11646e+7 
           8670      9.79501e+6 
           8690      1.12855e+7 
           8710      1.15247e+7 
           8730      1.10904e+7 
           8750      9.13155e+6 
           8770      1.05873e+7 
           8790      1.13466e+7 
           8810      1.14301e+7 
           8830      1.11426e+7 
           8850      9.99032e+6 
           8870      8.62614e+6 
           8890      1.05556e+7 
           8910      1.10843e+7 
           8930      1.12006e+7 
           8950      1.11407e+7 
           8970      1.08944e+7 
           8990      1.02796e+7 
           9010      8.35551e+6 
           9030      9.04806e+6 
           9050      1.02873e+7 
           9070       1.0628e+7 
           9090      1.07103e+7 
           9110      1.07192e+7 
           9130      1.06614e+7 
           9150      1.05523e+7 
           9170      1.03697e+7 
           9190      1.00271e+7 
