# Kurucz ODFNEW /NOVER (2003)
# teff = 20000 K (value for the effective temperature for the model. Temperatures are given in K)
# logg = 3.5 log(cm/s2) (value for Log(G) for the model.)
# meta = -0.5  (value for the Metallicity for the model.)
# lh = 1.25  (l/Hp where l is the  mixing length of the convective element and Hp is the pressure scale height)
# vtur = 2 km/s (Microturbulence velocity)
# alpha = 0  (Alpha)
#
# column 1: WAVELENGTH (ANGSTROM), Wavelength in Angstrom
# column 2: FLUX (ERG/CM2/S/A), Flux in erg/cm2/s/A
          147.2     4.62552e-20 
            151     2.85261e-19 
          155.2     1.92955e-18 
          158.8     9.21019e-18 
            162     3.50144e-17 
            166     1.73682e-16 
          170.3     8.97162e-16 
          173.4     2.79594e-15 
          176.8     9.31367e-15 
          180.2      2.9713e-14 
          181.7      4.8906e-14 
          186.1     2.02075e-13 
            191     9.11458e-13 
          193.9     2.14641e-12 
          198.4     7.72829e-12 
          201.8     1.96204e-11 
            205     4.58808e-11 
          210.5     1.85949e-10 
          216.2     7.36438e-10 
          219.8      1.69431e-9 
            223      3.47412e-9 
          226.8      7.93693e-9 
            230      8.03666e-8 
            234      2.07347e-7 
            240      6.31486e-7 
          246.5      1.97608e-6 
          252.4      5.33228e-6 
          256.8      1.05593e-5 
            260       1.7767e-5 
            264         3.25e-5 
          268.5      6.26191e-5 
          273.5     0.000126377 
          278.5     0.000249447 
            284     0.000513089 
            290      0.00108696 
            296      0.00222905 
            301      0.00396971 
            308      0.00848618 
            318       0.0246712 
            328       0.0653562 
            338        0.165216 
            348        0.392613 
            357        0.830319 
            366         1.67947 
            375         3.23539 
            385         6.50219 
            395         12.5535 
            405         23.4341 
            414         40.0718 
            422         62.9095 
            430         97.0511 
            441         172.536 
            451         283.101 
            460         432.046 
            470         679.341 
            480         1043.59 
            490          1576.9 
            500         2337.68 
            506         19073.7 
            512         86561.4 
            520          111288 
            530          160630 
            540          184063 
            550          279639 
            560          345616 
            570          448747 
            580          455670 
            590          632853 
            600          812898 
            610      1.01619e+6 
            620      1.19869e+6 
            630      1.43459e+6 
            640      1.60745e+6 
            650         1.74e+6 
            658      2.23751e+6 
            665      2.46828e+6 
            675      2.76868e+6 
            685      3.14888e+6 
            695      3.81179e+6 
            705      4.27366e+6 
            716      4.95647e+6 
            726      5.51947e+6 
            735      6.10361e+6 
            745      7.04418e+6 
            755      7.91361e+6 
            765      8.85006e+6 
            775      9.90959e+6 
            785      1.10312e+7 
            795      1.20292e+7 
            805      1.31786e+7 
            815      1.42893e+7 
            825      1.58917e+7 
            835      1.66459e+7 
            845      1.83831e+7 
            855      1.99047e+7 
            865      2.17536e+7 
            875       2.3843e+7 
            885      2.60965e+7 
            895      2.80855e+7 
            905      2.91931e+7 
            915       5.1423e+7 
            925      4.00935e+8 
            935      1.46844e+9 
            945      4.16964e+9 
            955      6.16795e+9 
            965      7.62096e+9 
            975      1.39564e+9 
            985       7.8726e+9 
            995      7.66035e+9 
           1005      8.85889e+9 
           1015       8.4102e+9 
           1025      2.87238e+9 
           1035      5.91492e+9 
           1045      1.0196e+10 
           1055      9.56255e+9 
           1065      8.08745e+9 
           1075      9.37533e+9 
           1085      8.26854e+9 
           1095      9.41992e+9 
           1105      8.44338e+9 
           1115      8.21109e+9 
           1125      7.35882e+9 
           1135      8.93962e+9 
           1145      8.10915e+9 
           1155      8.45479e+9 
           1165      8.63919e+9 
           1175       6.3472e+9 
           1185      8.57432e+9 
           1195      7.10444e+9 
           1205      4.35022e+9 
           1215      2.20932e+9 
           1225        6.286e+9 
           1235      7.90348e+9 
           1245      8.06139e+9 
           1255      7.84231e+9 
           1265       7.5227e+9 
           1275      7.87467e+9 
           1285      7.78795e+9 
           1295      5.67489e+9 
           1305      5.76456e+9 
           1315      7.47283e+9 
           1325      7.05338e+9 
           1335      6.42515e+9 
           1345      6.99803e+9 
           1355      6.88958e+9 
           1365      6.37047e+9 
           1375      6.31839e+9 
           1385      6.34002e+9 
           1395      5.46193e+9 
           1405      5.74686e+9 
           1415      5.80798e+9 
           1425       5.8158e+9 
           1435      5.87754e+9 
           1442       5.9969e+9 
           1447      5.87366e+9 
           1455      5.75266e+9 
           1465      5.43199e+9 
           1475      5.41642e+9 
           1485      5.31023e+9 
           1495       5.2423e+9 
           1505      4.91822e+9 
           1512      4.45505e+9 
           1517      4.61268e+9 
           1525       4.7149e+9 
           1535      4.23732e+9 
           1545      4.32201e+9 
           1555      4.11048e+9 
           1565      4.26347e+9 
           1575      4.44186e+9 
           1585      4.40773e+9 
           1595      4.42875e+9 
           1605      4.35896e+9 
           1615      4.31093e+9 
           1625      4.20182e+9 
           1635      4.35112e+9 
           1645      4.30381e+9 
           1655      4.15018e+9 
           1665      4.31831e+9 
           1672      4.15407e+9 
           1677      4.28272e+9 
           1685      4.25529e+9 
           1695      4.05954e+9 
           1705      3.89452e+9 
           1715      3.71475e+9 
           1725      3.67649e+9 
           1735      3.79705e+9 
           1745      3.68276e+9 
           1755      3.75271e+9 
           1765       3.5566e+9 
           1775      3.50803e+9 
           1785       3.5218e+9 
           1795      3.61316e+9 
           1805      3.60931e+9 
           1815      3.30262e+9 
           1825      3.41289e+9 
           1835       3.2996e+9 
           1845      3.05509e+9 
           1855      2.97944e+9 
           1865       3.0314e+9 
           1875      3.20211e+9 
           1885      2.89543e+9 
           1895      2.71115e+9 
           1905      2.91748e+9 
           1915      2.76022e+9 
           1925      2.66686e+9 
           1935      2.77701e+9 
           1945      2.81863e+9 
           1955      2.59539e+9 
           1967      2.77804e+9 
           1976      2.87368e+9 
           1984      2.68211e+9 
           1995       2.6174e+9 
           2005       2.6861e+9 
           2015      2.64828e+9 
           2025        2.734e+9 
           2035      2.52998e+9 
           2045      2.55547e+9 
           2055      2.48178e+9 
           2065      2.50489e+9 
           2074      2.61001e+9 
           2078      2.40786e+9 
           2085      2.49207e+9 
           2095      2.36663e+9 
           2105      2.41748e+9 
           2115      2.41026e+9 
           2125      2.44469e+9 
           2135      2.38953e+9 
           2145      2.28452e+9 
           2155      2.36144e+9 
           2165      2.33405e+9 
           2175      2.30372e+9 
           2185      2.24867e+9 
           2195      2.27084e+9 
           2205      2.23387e+9 
           2215      2.19462e+9 
           2225      2.13788e+9 
           2235      2.14338e+9 
           2245      2.13905e+9 
           2255        2.073e+9 
           2265      2.09601e+9 
           2275      2.07173e+9 
           2285      2.07282e+9 
           2295      1.98778e+9 
           2305      2.00397e+9 
           2315      1.95218e+9 
           2325      1.93152e+9 
           2335      1.86775e+9 
           2345      1.84664e+9 
           2355      1.86414e+9 
           2365      1.82161e+9 
           2375      1.81071e+9 
           2385      1.77655e+9 
           2395       1.7867e+9 
           2405      1.74465e+9 
           2415      1.73081e+9 
           2425      1.73943e+9 
           2435      1.68832e+9 
           2445      1.69301e+9 
           2455      1.69168e+9 
           2465      1.65287e+9 
           2475      1.63444e+9 
           2485      1.63028e+9 
           2495      1.56852e+9 
           2505      1.59967e+9 
           2513       1.5348e+9 
           2518      1.57345e+9 
           2525      1.53939e+9 
           2535      1.51484e+9 
           2545      1.48644e+9 
           2555      1.51118e+9 
           2565      1.48545e+9 
           2575      1.49263e+9 
           2585      1.48082e+9 
           2595      1.46641e+9 
           2605      1.45589e+9 
           2615      1.44098e+9 
           2625      1.42565e+9 
           2635      1.41099e+9 
           2645      1.41941e+9 
           2655      1.40751e+9 
           2665      1.37463e+9 
           2675      1.37459e+9 
           2685      1.36661e+9 
           2695      1.33439e+9 
           2705      1.33078e+9 
           2715      1.31419e+9 
           2725      1.29275e+9 
           2735      1.29605e+9 
           2745      1.25143e+9 
           2755      1.24772e+9 
           2765      1.24103e+9 
           2775      1.24878e+9 
           2785      1.23128e+9 
           2795      1.19085e+9 
           2805      1.20349e+9 
           2815      1.20218e+9 
           2825      1.18118e+9 
           2835       1.1483e+9 
           2845      1.15555e+9 
           2855      1.14807e+9 
           2865      1.14572e+9 
           2875       1.1312e+9 
           2885      1.12233e+9 
           2895      1.11081e+9 
           2910      1.09539e+9 
           2930      1.07087e+9 
           2950      1.04523e+9 
           2970      1.03406e+9 
           2990      1.01126e+9 
           3010         9.93e+8 
           3030      9.80385e+8 
           3050      9.61738e+8 
           3070      9.44252e+8 
           3090      9.23585e+8 
           3110      9.09057e+8 
           3130      8.93708e+8 
           3150      8.77612e+8 
           3170      8.60087e+8 
           3190      8.38637e+8 
           3210      8.30559e+8 
           3230      8.15828e+8 
           3250       8.0193e+8 
           3270      7.88381e+8 
           3290      7.73778e+8 
           3310      7.61945e+8 
           3330      7.48505e+8 
           3350      7.34257e+8 
           3370      7.22881e+8 
           3390      7.10902e+8 
           3410      6.98991e+8 
           3430      6.84043e+8 
           3450      6.70343e+8 
           3470      6.60948e+8 
           3490      6.50147e+8 
           3510      6.42331e+8 
           3530      6.32805e+8 
           3550      6.22646e+8 
           3570      6.14921e+8 
           3590       6.0119e+8 
           3610      5.91627e+8 
           3630      5.82496e+8 
           3640      5.81176e+8 
           3650      5.71718e+8 
           3670      5.64917e+8 
           3690       5.4813e+8 
           3710      5.38595e+8 
           3730      5.32185e+8 
           3750      5.92319e+8 
           3770      5.99808e+8 
           3790      6.29609e+8 
           3810      6.57611e+8 
           3830      5.74896e+8 
           3850      6.73144e+8 
           3870      6.70984e+8 
           3890      5.47688e+8 
           3910       6.6356e+8 
           3930      6.44091e+8 
           3950      6.41738e+8 
           3970      5.09297e+8 
           3990      6.17222e+8 
           4010      6.11619e+8 
           4030      5.80024e+8 
           4050      5.97094e+8 
           4070      5.81552e+8 
           4090      5.45453e+8 
           4110        4.776e+8 
           4130      5.47329e+8 
           4150      5.43553e+8 
           4170       5.3898e+8 
           4190      5.33268e+8 
           4210       5.2596e+8 
           4230      5.16724e+8 
           4250      5.07638e+8 
           4270      4.94939e+8 
           4290      4.91461e+8 
           4310      4.81293e+8 
           4330      4.42336e+8 
           4350      4.02721e+8 
           4370      4.57988e+8 
           4390      4.44637e+8 
           4410      4.47393e+8 
           4430      4.39178e+8 
           4450      4.35144e+8 
           4470      4.13158e+8 
           4490      4.19801e+8 
           4510      4.16345e+8 
           4530      4.09262e+8 
           4550      4.03288e+8 
           4570      3.97313e+8 
           4590      3.91712e+8 
           4610      3.85307e+8 
           4630      3.79332e+8 
           4650      3.72713e+8 
           4670      3.68941e+8 
           4690       3.6443e+8 
           4710      3.53123e+8 
           4730      3.51456e+8 
           4750      3.46199e+8 
           4770      3.44146e+8 
           4790      3.38865e+8 
           4810      3.33056e+8 
           4830      3.27316e+8 
           4850      3.06076e+8 
           4870      2.73085e+8 
           4890       3.1352e+8 
           4910      3.10596e+8 
           4930      3.00083e+8 
           4950      3.02491e+8 
           4970      2.98734e+8 
           4990      2.94362e+8 
           5010      2.85007e+8 
           5030      2.86021e+8 
           5050      2.79092e+8 
           5070      2.78609e+8 
           5090      2.74796e+8 
           5110       2.7086e+8 
           5130      2.66504e+8 
           5150      2.63004e+8 
           5170      2.60395e+8 
           5190      2.56938e+8 
           5210      2.52429e+8 
           5230       2.5013e+8 
           5250      2.46888e+8 
           5270      2.43553e+8 
           5290      2.40571e+8 
           5310      2.37346e+8 
           5330      2.34149e+8 
           5350      2.30783e+8 
           5370      2.28348e+8 
           5390      2.25399e+8 
           5410      2.22474e+8 
           5430      2.19203e+8 
           5450      2.16608e+8 
           5470      2.13868e+8 
           5490       2.1135e+8 
           5510      2.08665e+8 
           5530      2.06012e+8 
           5550       2.0354e+8 
           5570      2.00927e+8 
           5590      1.98491e+8 
           5610      1.95857e+8 
           5630      1.93672e+8 
           5650      1.90474e+8 
           5670       1.8816e+8 
           5690      1.85967e+8 
           5710      1.84193e+8 
           5730      1.81968e+8 
           5750      1.79691e+8 
           5770      1.77678e+8 
           5790      1.75508e+8 
           5810      1.73387e+8 
           5830      1.71246e+8 
           5850      1.69252e+8 
           5870      1.62754e+8 
           5890      1.64506e+8 
           5910      1.63212e+8 
           5930      1.61255e+8 
           5950      1.59173e+8 
           5970      1.57601e+8 
           5990      1.55595e+8 
           6010      1.53945e+8 
           6030      1.52107e+8 
           6050      1.50373e+8 
           6070      1.48657e+8 
           6090      1.46901e+8 
           6110      1.45254e+8 
           6130      1.43596e+8 
           6150      1.41678e+8 
           6170      1.40286e+8 
           6190      1.38732e+8 
           6210      1.37165e+8 
           6230      1.35597e+8 
           6250      1.33959e+8 
           6270       1.3255e+8 
           6290      1.31061e+8 
           6310      1.29531e+8 
           6330      1.28178e+8 
           6350      1.26344e+8 
           6370      1.25116e+8 
           6390      1.23919e+8 
           6410       1.2255e+8 
           6430       1.2127e+8 
           6450      1.19912e+8 
           6470      1.18497e+8 
           6490      1.17267e+8 
           6510      1.15979e+8 
           6530      1.14368e+8 
           6550      1.09939e+8 
           6570      9.75493e+7 
           6590       1.0971e+8 
           6610      1.09797e+8 
           6630       1.0875e+8 
           6650      1.07663e+8 
           6670      1.05612e+8 
           6690      1.04536e+8 
           6710       1.0429e+8 
           6730      1.03164e+8 
           6750      1.02115e+8 
           6770      1.01044e+8 
           6790      9.97304e+7 
           6810      9.89018e+7 
           6830      9.78874e+7 
           6850      9.68911e+7 
           6870      9.58887e+7 
           6890      9.48964e+7 
           6910      9.39139e+7 
           6930      9.29176e+7 
           6950      9.20093e+7 
           6970       9.1071e+7 
           6990      9.01265e+7 
           7010       8.9222e+7 
           7030       8.8311e+7 
           7050      8.73938e+7 
           7070      8.52193e+7 
           7090      8.56835e+7 
           7110       8.4755e+7 
           7130      8.39319e+7 
           7150      8.31167e+7 
           7170      8.22872e+7 
           7190      8.14875e+7 
           7210       8.0681e+7 
           7230       7.9183e+7 
           7250      7.90764e+7 
           7270      7.83141e+7 
           7290      7.69563e+7 
           7310      7.67826e+7 
           7330      7.60416e+7 
           7350      7.53075e+7 
           7370      7.45734e+7 
           7390       7.3853e+7 
           7410      7.31392e+7 
           7430      7.24116e+7 
           7450      7.17451e+7 
           7470      7.10238e+7 
           7490      7.03697e+7 
           7510      6.96748e+7 
           7530      6.90327e+7 
           7550      6.83899e+7 
           7570      6.77398e+7 
           7590      6.70955e+7 
           7610      6.64701e+7 
           7630      6.58438e+7 
           7650      6.52296e+7 
           7670      6.46145e+7 
           7690      6.40113e+7 
           7710      6.34134e+7 
           7730      6.28241e+7 
           7750      6.22399e+7 
           7770      6.14419e+7 
           7790      6.11008e+7 
           7810      6.04924e+7 
           7830      5.99835e+7 
           7850      5.94477e+7 
           7870      5.89033e+7 
           7890      5.82837e+7 
           7910      5.78635e+7 
           7930      5.73144e+7 
           7950      5.66699e+7 
           7970      5.61534e+7 
           7990      5.56106e+7 
           8010       5.5153e+7 
           8030      5.46834e+7 
           8050      5.42144e+7 
           8070      5.37649e+7 
           8090      5.31886e+7 
           8110      5.27633e+7 
           8130      5.23621e+7 
           8150      5.18105e+7 
           8170      5.14601e+7 
           8190      5.09322e+7 
           8210      5.03205e+7 
           8230      5.00056e+7 
           8250      4.96289e+7 
           8270      4.89397e+7 
           8290      4.87044e+7 
           8310      4.82978e+7 
           8330      4.78778e+7 
           8350      4.72386e+7 
           8370      4.69217e+7 
           8390      4.65864e+7 
           8410      4.61462e+7 
           8430      4.56752e+7 
           8450      4.49854e+7 
           8470      4.46304e+7 
           8490      4.46038e+7 
           8510      4.36188e+7 
           8530      4.40881e+7 
           8550      4.21242e+7 
           8570      4.40878e+7 
