# Kurucz ODFNEW /NOVER (2003)
# teff = 23000 K (value for the effective temperature for the model. Temperatures are given in K)
# logg = 4 log(cm/s2) (value for Log(G) for the model.)
# meta = -0.5  (value for the Metallicity for the model.)
# lh = 1.25  (l/Hp where l is the  mixing length of the convective element and Hp is the pressure scale height)
# vtur = 2 km/s (Microturbulence velocity)
# alpha = 0  (Alpha)
#
# column 1: WAVELENGTH (ANGSTROM), Wavelength in Angstrom
# column 2: FLUX (ERG/CM2/S/A), Flux in erg/cm2/s/A
          147.2     2.46941e-16 
            151     1.22004e-15 
          155.2     6.55002e-15 
          158.8     2.59256e-14 
            162     8.40851e-14 
            166     3.45135e-13 
          170.3     1.47018e-12 
          173.4     4.01268e-12 
          176.8     1.16183e-11 
          180.2     3.24034e-11 
          181.7     5.03586e-11 
          186.1     1.76741e-10 
            191     6.70669e-10 
          193.9      1.43238e-9 
          198.4      4.45815e-9 
          201.8      1.01779e-8 
            205      2.16069e-8 
          210.5      7.48243e-8 
          216.2      2.53912e-7 
          219.8      5.31929e-7 
            223      1.00627e-6 
          226.8      2.09603e-6 
            230      6.69069e-5 
            234     0.000159014 
            240     0.000406292 
          246.5      0.00106548 
          252.4      0.00247892 
          256.8      0.00432701 
            260       0.0068898 
            264       0.0114339 
          268.5       0.0198606 
          273.5       0.0358129 
          278.5       0.0635506 
            284        0.117471 
            290        0.220461 
            296        0.402932 
            301        0.651743 
            308         1.21973 
            318          3.0541 
            328         6.85672 
            338         15.0673 
            348         31.1204 
            357         61.1433 
            366         111.374 
            375         190.418 
            385          341.49 
            395         592.409 
            405         993.817 
            414         1559.46 
            422         2254.66 
            430         3248.76 
            441         5239.28 
            451         7915.17 
            460         11204.3 
            470         16381.5 
            480         23372.3 
            490           33016 
            500         45881.1 
            506          326458 
            512      1.46599e+6 
            520      1.78807e+6 
            530      2.34916e+6 
            540      2.62509e+6 
            550      3.70502e+6 
            560      4.35942e+6 
            570      5.41649e+6 
            580      5.44287e+6 
            590      7.18026e+6 
            600      8.54004e+6 
            610      1.02297e+7 
            620      1.15783e+7 
            630      1.32354e+7 
            640      1.39655e+7 
            650      1.36229e+7 
            658      1.79209e+7 
            665      2.00204e+7 
            675       2.1717e+7 
            685      2.37619e+7 
            695      2.84584e+7 
            705       3.0631e+7 
            716      3.47162e+7 
            726      3.74738e+7 
            735      4.03107e+7 
            745      4.55069e+7 
            755      4.97466e+7 
            765      5.42423e+7 
            775      5.93327e+7 
            785      6.45586e+7 
            795       6.8667e+7 
            805      7.34652e+7 
            815      7.78499e+7 
            825      8.49464e+7 
            835      8.57445e+7 
            845      9.39258e+7 
            855      9.94511e+7 
            865      1.06822e+8 
            875      1.15028e+8 
            885      1.23833e+8 
            895      1.30991e+8 
            905      1.34229e+8 
            915      2.01471e+8 
            925      1.29192e+9 
            935      3.94766e+9 
            945     1.05325e+10 
            955      1.4894e+10 
            965     1.87591e+10 
            975      3.78245e+9 
            985     1.91517e+10 
            995     1.81834e+10 
           1005     2.03645e+10 
           1015     1.91622e+10 
           1025      6.87463e+9 
           1035     1.46549e+10 
           1045     2.26909e+10 
           1055     2.12257e+10 
           1065      1.8002e+10 
           1075     2.03506e+10 
           1085     1.81445e+10 
           1095     2.02267e+10 
           1105     1.84118e+10 
           1115     1.80867e+10 
           1125     1.57999e+10 
           1135      1.8625e+10 
           1145      1.6868e+10 
           1155     1.75035e+10 
           1165     1.75213e+10 
           1175     1.24109e+10 
           1185     1.68586e+10 
           1195      1.5013e+10 
           1205     1.03537e+10 
           1215      5.30122e+9 
           1225     1.27947e+10 
           1235     1.53285e+10 
           1245       1.532e+10 
           1255     1.49395e+10 
           1265     1.47455e+10 
           1275     1.51329e+10 
           1285     1.48387e+10 
           1295     1.14093e+10 
           1305     1.17674e+10 
           1315     1.41441e+10 
           1325     1.33158e+10 
           1335     1.26009e+10 
           1345     1.29627e+10 
           1355     1.28562e+10 
           1365     1.19825e+10 
           1375     1.17523e+10 
           1385     1.16814e+10 
           1395      9.79445e+9 
           1405     1.02574e+10 
           1415     1.06052e+10 
           1425      1.0447e+10 
           1435     1.05679e+10 
           1442     1.07473e+10 
           1447      1.0515e+10 
           1455      1.0284e+10 
           1465      9.69195e+9 
           1475      9.67007e+9 
           1485      9.46152e+9 
           1495      9.31362e+9 
           1505      8.65786e+9 
           1512      7.85743e+9 
           1517      8.08516e+9 
           1525      8.25391e+9 
           1535      7.33289e+9 
           1545      7.39057e+9 
           1555      7.04343e+9 
           1565      7.39162e+9 
           1575      7.68501e+9 
           1585       7.5828e+9 
           1595      7.57183e+9 
           1605      7.46871e+9 
           1615      7.32566e+9 
           1625      7.21323e+9 
           1635      7.45109e+9 
           1645       7.3346e+9 
           1655      7.19135e+9 
           1665      7.31328e+9 
           1672      7.05314e+9 
           1677      7.35072e+9 
           1685      7.20506e+9 
           1695      6.89069e+9 
           1705      6.62802e+9 
           1715      6.33705e+9 
           1725      6.24505e+9 
           1735      6.39378e+9 
           1745      6.23287e+9 
           1755      6.29023e+9 
           1765      6.03884e+9 
           1775      5.86158e+9 
           1785      5.88453e+9 
           1795      5.99863e+9 
           1805      5.99004e+9 
           1815      5.49754e+9 
           1825      5.64909e+9 
           1835      5.47402e+9 
           1845       5.0442e+9 
           1855      4.99872e+9 
           1865      5.07046e+9 
           1875      5.25827e+9 
           1885      4.74715e+9 
           1895      4.43522e+9 
           1905      4.74506e+9 
           1915      4.50897e+9 
           1925       4.3314e+9 
           1935      4.51384e+9 
           1945      4.59023e+9 
           1955      4.20324e+9 
           1967      4.47635e+9 
           1976      4.64455e+9 
           1984      4.32005e+9 
           1995      4.22578e+9 
           2005      4.32233e+9 
           2015      4.28427e+9 
           2025      4.38915e+9 
           2035      4.05765e+9 
           2045      4.08626e+9 
           2055      3.97432e+9 
           2065      4.00166e+9 
           2074      4.15215e+9 
           2078      3.83841e+9 
           2085      3.95212e+9 
           2095      3.75869e+9 
           2105      3.85042e+9 
           2115      3.83035e+9 
           2125      3.87823e+9 
           2135      3.79604e+9 
           2145      3.62005e+9 
           2155      3.73061e+9 
           2165      3.69767e+9 
           2175      3.64065e+9 
           2185       3.5588e+9 
           2195       3.5732e+9 
           2205      3.52777e+9 
           2215      3.47687e+9 
           2225      3.39333e+9 
           2235      3.35881e+9 
           2245      3.36207e+9 
           2255      3.26994e+9 
           2265      3.28688e+9 
           2275      3.24108e+9 
           2285      3.23154e+9 
           2295      3.08342e+9 
           2305      3.13124e+9 
           2315      3.05174e+9 
           2325      3.01753e+9 
           2335      2.93266e+9 
           2345      2.91496e+9 
           2355      2.92001e+9 
           2365      2.86904e+9 
           2375       2.8307e+9 
           2385      2.79589e+9 
           2395      2.77837e+9 
           2405      2.72691e+9 
           2415      2.69482e+9 
           2425      2.69743e+9 
           2435      2.63072e+9 
           2445      2.62166e+9 
           2455      2.61422e+9 
           2465      2.56546e+9 
           2475      2.53536e+9 
           2485      2.50694e+9 
           2495      2.38298e+9 
           2505       2.4475e+9 
           2513      2.34992e+9 
           2518      2.41136e+9 
           2525      2.37662e+9 
           2535      2.33991e+9 
           2545      2.28922e+9 
           2555      2.30746e+9 
           2565       2.2725e+9 
           2575      2.26942e+9 
           2585      2.24418e+9 
           2595      2.22003e+9 
           2605      2.20535e+9 
           2615      2.18036e+9 
           2625       2.1593e+9 
           2635      2.13431e+9 
           2645      2.12558e+9 
           2655      2.10613e+9 
           2665      2.05773e+9 
           2675      2.04927e+9 
           2685      2.04062e+9 
           2695      1.98655e+9 
           2705      1.97946e+9 
           2715      1.96066e+9 
           2725       1.9292e+9 
           2735      1.92761e+9 
           2745      1.87174e+9 
           2755      1.86533e+9 
           2765      1.84501e+9 
           2775      1.85096e+9 
           2785      1.82477e+9 
           2795      1.76559e+9 
           2805      1.77735e+9 
           2815      1.77425e+9 
           2825      1.73976e+9 
           2835      1.69418e+9 
           2845      1.71138e+9 
           2855       1.6928e+9 
           2865      1.68307e+9 
           2875      1.66387e+9 
           2885      1.64782e+9 
           2895       1.6285e+9 
           2910      1.60157e+9 
           2930      1.56767e+9 
           2950      1.52571e+9 
           2970      1.50749e+9 
           2990      1.47285e+9 
           3010      1.44012e+9 
           3030      1.42109e+9 
           3050      1.39308e+9 
           3070      1.36635e+9 
           3090      1.33073e+9 
           3110      1.31184e+9 
           3130      1.28686e+9 
           3150      1.26264e+9 
           3170      1.23555e+9 
           3190      1.20366e+9 
           3210      1.19091e+9 
           3230      1.16743e+9 
           3250      1.14633e+9 
           3270      1.12537e+9 
           3290      1.10293e+9 
           3310      1.08472e+9 
           3330      1.06432e+9 
           3350      1.04309e+9 
           3370      1.02557e+9 
           3390      1.00761e+9 
           3410      9.89538e+8 
           3430      9.66664e+8 
           3450       9.4593e+8 
           3470       9.3171e+8 
           3490      9.14938e+8 
           3510       9.0185e+8 
           3530      8.88546e+8 
           3550      8.73331e+8 
           3570      8.62568e+8 
           3590      8.40882e+8 
           3610      8.27284e+8 
           3630      8.13418e+8 
           3640       8.1231e+8 
           3650      7.96922e+8 
           3670      7.87448e+8 
           3690      7.69916e+8 
           3710      7.44202e+8 
           3730      7.17695e+8 
           3750      7.62835e+8 
           3770      7.65896e+8 
           3790      8.07009e+8 
           3810      8.41147e+8 
           3830      7.34459e+8 
           3850      8.62926e+8 
           3870      8.65148e+8 
           3890      6.96118e+8 
           3910      8.55151e+8 
           3930      8.33615e+8 
           3950      8.26209e+8 
           3970      6.47216e+8 
           3990       7.9302e+8 
           4010      7.89393e+8 
           4030      7.43651e+8 
           4050       7.6972e+8 
           4070      7.46868e+8 
           4090      6.92243e+8 
           4110      6.07286e+8 
           4130      7.03305e+8 
           4150      6.99211e+8 
           4170      6.94058e+8 
           4190      6.85731e+8 
           4210      6.76489e+8 
           4230      6.64002e+8 
           4250       6.5128e+8 
           4270      6.34511e+8 
           4290       6.2908e+8 
           4310      6.14372e+8 
           4330      5.58537e+8 
           4350      5.09254e+8 
           4370      5.83473e+8 
           4390      5.66362e+8 
           4410      5.71077e+8 
           4430      5.61651e+8 
           4450      5.55549e+8 
           4470      5.24041e+8 
           4490      5.36239e+8 
           4510       5.3129e+8 
           4530      5.22203e+8 
           4550      5.14164e+8 
           4570      5.06012e+8 
           4590      4.98626e+8 
           4610      4.90001e+8 
           4630      4.82368e+8 
           4650      4.72582e+8 
           4670      4.68595e+8 
           4690      4.63031e+8 
           4710       4.4795e+8 
           4730      4.46409e+8 
           4750      4.39536e+8 
           4770      4.36752e+8 
           4790      4.29845e+8 
           4810       4.2206e+8 
           4830      4.13857e+8 
           4850       3.8324e+8 
           4870      3.42278e+8 
           4890      3.95665e+8 
           4910      3.92464e+8 
           4930      3.78312e+8 
           4950       3.8218e+8 
           4970       3.7757e+8 
           4990      3.71932e+8 
           5010      3.59513e+8 
           5030       3.6126e+8 
           5050      3.52643e+8 
           5070      3.51537e+8 
           5090       3.4657e+8 
           5110      3.41525e+8 
           5130      3.35718e+8 
           5150      3.31255e+8 
           5170      3.27879e+8 
           5190      3.23441e+8 
           5210      3.18187e+8 
           5230       3.1467e+8 
           5250      3.10459e+8 
           5270       3.0614e+8 
           5290      3.02228e+8 
           5310      2.98085e+8 
           5330      2.94035e+8 
           5350      2.89827e+8 
           5370      2.86497e+8 
           5390      2.82663e+8 
           5410      2.78981e+8 
           5430      2.75013e+8 
           5450      2.71501e+8 
           5470      2.67984e+8 
           5490      2.64622e+8 
           5510      2.61278e+8 
           5530      2.57827e+8 
           5550      2.54651e+8 
           5570      2.51308e+8 
           5590      2.48198e+8 
           5610      2.44912e+8 
           5630      2.41962e+8 
           5650      2.38223e+8 
           5670       2.3494e+8 
           5690      2.31906e+8 
           5710      2.29764e+8 
           5730      2.26959e+8 
           5750      2.23947e+8 
           5770      2.21503e+8 
           5790      2.18739e+8 
           5810      2.16042e+8 
           5830      2.13265e+8 
           5850      2.10753e+8 
           5870      2.01939e+8 
           5890      2.04555e+8 
           5910      2.03022e+8 
           5930      2.00455e+8 
           5950      1.97897e+8 
           5970      1.95928e+8 
           5990      1.93341e+8 
           6010      1.91232e+8 
           6030      1.88899e+8 
           6050      1.86684e+8 
           6070      1.84536e+8 
           6090      1.82331e+8 
           6110        1.802e+8 
           6130      1.78114e+8 
           6150      1.75683e+8 
           6170      1.73873e+8 
           6190      1.71935e+8 
           6210       1.6996e+8 
           6230      1.67987e+8 
           6250       1.6593e+8 
           6270      1.64106e+8 
           6290      1.62245e+8 
           6310      1.60339e+8 
           6330      1.58584e+8 
           6350       1.5641e+8 
           6370      1.54835e+8 
           6390      1.53203e+8 
           6410      1.51487e+8 
           6430      1.49845e+8 
           6450      1.48138e+8 
           6470      1.46306e+8 
           6490      1.44752e+8 
           6510      1.43144e+8 
           6530      1.40988e+8 
           6550      1.34842e+8 
           6570      1.19491e+8 
           6590       1.3498e+8 
           6610      1.35233e+8 
           6630      1.34041e+8 
           6650      1.32666e+8 
           6670      1.29941e+8 
           6690      1.28567e+8 
           6710      1.28438e+8 
           6730      1.26994e+8 
           6750      1.25705e+8 
           6770      1.24355e+8 
           6790      1.22626e+8 
           6810      1.21655e+8 
           6830      1.20379e+8 
           6850      1.19139e+8 
           6870      1.17879e+8 
           6890      1.16625e+8 
           6910       1.1539e+8 
           6930      1.14176e+8 
           6950      1.13005e+8 
           6970      1.11838e+8 
           6990      1.10659e+8 
           7010      1.09515e+8 
           7030      1.08382e+8 
           7050      1.07245e+8 
           7070      1.04423e+8 
           7090      1.05079e+8 
           7110        1.039e+8 
           7130      1.02873e+8 
           7150      1.01879e+8 
           7170      1.00835e+8 
           7190      9.98372e+7 
           7210      9.88275e+7 
           7230      9.68833e+7 
           7250      9.68154e+7 
           7270      9.58701e+7 
           7290      9.41326e+7 
           7310      9.39495e+7 
           7330      9.30309e+7 
           7350      9.21138e+7 
           7370      9.11984e+7 
           7390      9.02985e+7 
           7410      8.94069e+7 
           7430      8.85099e+7 
           7450      8.76688e+7 
           7470      8.67544e+7 
           7490      8.59627e+7 
           7510      8.50913e+7 
           7530      8.42877e+7 
           7550      8.34915e+7 
           7570      8.26893e+7 
           7590      8.18879e+7 
           7610      8.10937e+7 
           7630      8.03197e+7 
           7650      7.95591e+7 
           7670      7.87989e+7 
           7690      7.80456e+7 
           7710      7.73053e+7 
           7730      7.65717e+7 
           7750      7.58445e+7 
           7770      7.49304e+7 
           7790      7.44282e+7 
           7810      7.36769e+7 
           7830      7.30429e+7 
           7850      7.23961e+7 
           7870      7.17184e+7 
           7890      7.09438e+7 
           7910      7.04169e+7 
           7930      6.97446e+7 
           7950      6.89531e+7 
           7970       6.8299e+7 
           7990      6.76389e+7 
           8010      6.70549e+7 
           8030      6.64409e+7 
           8050      6.58437e+7 
           8070      6.53037e+7 
           8090      6.45783e+7 
           8110      6.40597e+7 
           8130      6.35796e+7 
           8150      6.29107e+7 
           8170      6.24619e+7 
           8190      6.17978e+7 
           8210      6.10555e+7 
           8230       6.0659e+7 
           8250      6.01881e+7 
           8270      5.93025e+7 
           8290       5.9066e+7 
           8310      5.85638e+7 
           8330      5.80332e+7 
           8350      5.72152e+7 
           8370      5.68937e+7 
           8390      5.64943e+7 
           8410      5.59863e+7 
           8430      5.54188e+7 
           8450      5.44972e+7 
           8470      5.43504e+7 
           8490      5.38699e+7 
           8510      5.32061e+7 
           8530      5.30293e+7 
           8550      5.16375e+7 
           8570      5.28125e+7 
           8590      5.04679e+7 
