# Kurucz ODFNEW /NOVER (2003)
# teff = 25000 K (value for the effective temperature for the model. Temperatures are given in K)
# logg = 3.5 log(cm/s2) (value for Log(G) for the model.)
# meta = -2  (value for the Metallicity for the model.)
# lh = 1.25  (l/Hp where l is the  mixing length of the convective element and Hp is the pressure scale height)
# vtur = 2 km/s (Microturbulence velocity)
# alpha = 0.4  (Alpha)
#
# column 1: WAVELENGTH (ANGSTROM), Wavelength in Angstrom
# column 2: FLUX (ERG/CM2/S/A), Flux in erg/cm2/s/A
          147.2     6.09747e-14 
            151     2.85277e-13 
          155.2     1.43619e-12 
          158.8     5.35646e-12 
            162      1.6422e-11 
            166     6.26383e-11 
          170.3     2.45766e-10 
          173.4     6.30932e-10 
          176.8      1.70635e-9 
          180.2      4.43972e-9 
          181.7      6.69066e-9 
          186.1       2.1441e-8 
            191      7.35263e-8 
          193.9      1.47867e-7 
          198.4      4.19486e-7 
          201.8      8.93727e-7 
            205       1.7789e-6 
          210.5      5.51981e-6 
          216.2      1.67754e-5 
          219.8      3.28227e-5 
            223      5.84863e-5 
          226.8     0.000113616 
            230      0.00540788 
            234       0.0128494 
            240       0.0301299 
          246.5       0.0726895 
          252.4        0.156669 
          256.8         0.24673 
            260        0.390556 
            264        0.612802 
          268.5         1.01143 
          273.5         1.72051 
          278.5         2.87547 
            284         4.96788 
            290         8.73421 
            296         14.9637 
            301         22.7757 
            308         38.2607 
            318         90.7959 
            328         187.122 
            338         375.166 
            348         713.958 
            357         1252.81 
            366          2124.1 
            375         3427.47 
            385         5767.41 
            395         9342.84 
            405         14767.8 
            414           21964 
            422         30407.6 
            430         41690.8 
            441         63492.4 
            451         91438.9 
            460          124031 
            470          172504 
            480          235341 
            490          317153 
            500          422208 
            506      3.11641e+6 
            512      8.87702e+6 
            520      1.02352e+7 
            530       1.2839e+7 
            540      1.34982e+7 
            550       1.7804e+7 
            560      2.02528e+7 
            570      2.36033e+7 
            580      2.35601e+7 
            590      2.94944e+7 
            600      3.39098e+7 
            610      3.86661e+7 
            620      4.27417e+7 
            630      4.80541e+7 
            640      5.17322e+7 
            650      5.78737e+7 
            658      6.35795e+7 
            665      6.77163e+7 
            675      7.22188e+7 
            685      7.80347e+7 
            695      8.87647e+7 
            705      9.42079e+7 
            716      1.04622e+8 
            726      1.11988e+8 
            735      1.20615e+8 
            745      1.31157e+8 
            755      1.40699e+8 
            765      1.50454e+8 
            775      1.61925e+8 
            785      1.73403e+8 
            795      1.83195e+8 
            805      1.95089e+8 
            815      2.05429e+8 
            825      2.18994e+8 
            835      2.22842e+8 
            845      2.41885e+8 
            855      2.54034e+8 
            865      2.68425e+8 
            875      2.83468e+8 
            885      2.98329e+8 
            895      3.12299e+8 
            905      3.23062e+8 
            915      5.71287e+8 
            925      6.16592e+9 
            935      1.3414e+10 
            945     2.42969e+10 
            955     2.71994e+10 
            965     3.17384e+10 
            975     1.63575e+10 
            985     3.07918e+10 
            995     2.91201e+10 
           1005     3.00156e+10 
           1015     2.89814e+10 
           1025     1.71324e+10 
           1035      2.6931e+10 
           1045      3.0068e+10 
           1055     2.91202e+10 
           1065     2.67657e+10 
           1075     2.75988e+10 
           1085     2.58882e+10 
           1095     2.72151e+10 
           1105     2.60111e+10 
           1115     2.56578e+10 
           1125     2.39598e+10 
           1135     2.50525e+10 
           1145     2.36697e+10 
           1155     2.40631e+10 
           1165     2.38069e+10 
           1175     2.05653e+10 
           1185      2.2748e+10 
           1195     2.15782e+10 
           1205     1.92969e+10 
           1215     1.18248e+10 
           1225     2.03186e+10 
           1235     2.08734e+10 
           1245     2.03798e+10 
           1255     2.01429e+10 
           1265     1.96971e+10 
           1275     1.96389e+10 
           1285     1.92473e+10 
           1295     1.75503e+10 
           1305     1.77854e+10 
           1315     1.81859e+10 
           1325     1.76307e+10 
           1335      1.7042e+10 
           1345     1.70238e+10 
           1355     1.69676e+10 
           1365     1.64192e+10 
           1375      1.6184e+10 
           1385     1.59859e+10 
           1395     1.47048e+10 
           1405     1.47423e+10 
           1415     1.50219e+10 
           1425     1.47443e+10 
           1435     1.46021e+10 
           1442     1.45261e+10 
           1447     1.43687e+10 
           1455     1.41362e+10 
           1465     1.38566e+10 
           1475     1.36268e+10 
           1485     1.33962e+10 
           1495      1.3136e+10 
           1505     1.27182e+10 
           1512     1.25961e+10 
           1517     1.25425e+10 
           1525     1.23471e+10 
           1535     1.18016e+10 
           1545      1.1663e+10 
           1555     1.13561e+10 
           1565     1.14245e+10 
           1575      1.1358e+10 
           1585     1.11836e+10 
           1595     1.10334e+10 
           1605     1.06562e+10 
           1615     1.04671e+10 
           1625     1.03886e+10 
           1635     1.02961e+10 
           1645      9.95233e+9 
           1655      1.0003e+10 
           1665      9.84173e+9 
           1672       9.7091e+9 
           1677      9.77105e+9 
           1685      9.61254e+9 
           1695      9.40832e+9 
           1705      9.21508e+9 
           1715      8.98971e+9 
           1725      8.87008e+9 
           1735      8.80129e+9 
           1745      8.65011e+9 
           1755      8.55976e+9 
           1765      8.31768e+9 
           1775      8.20928e+9 
           1785       8.1282e+9 
           1795       8.0546e+9 
           1805      7.96954e+9 
           1815      7.77926e+9 
           1825      7.68701e+9 
           1835      7.57246e+9 
           1845      7.27014e+9 
           1855      7.11609e+9 
           1865      7.10346e+9 
           1875      7.09047e+9 
           1885      6.78346e+9 
           1895      6.56109e+9 
           1905      6.68298e+9 
           1915      6.46287e+9 
           1925      6.33693e+9 
           1935      6.36971e+9 
           1945      6.35357e+9 
           1955      6.06302e+9 
           1967      6.13425e+9 
           1976      6.14932e+9 
           1984      5.96239e+9 
           1995      5.78532e+9 
           2005      5.83252e+9 
           2015      5.80725e+9 
           2025      5.76418e+9 
           2035      5.60924e+9 
           2045      5.53119e+9 
           2055      5.30808e+9 
           2065      5.24487e+9 
           2074      5.31681e+9 
           2078      5.19568e+9 
           2085      5.21345e+9 
           2095      5.10861e+9 
           2105      5.11621e+9 
           2115       5.0757e+9 
           2125      5.03413e+9 
           2135      4.95824e+9 
           2145      4.86585e+9 
           2155      4.82631e+9 
           2165      4.76584e+9 
           2175      4.69782e+9 
           2185      4.63851e+9 
           2195      4.58672e+9 
           2205      4.52491e+9 
           2215      4.46395e+9 
           2225      4.40299e+9 
           2235      4.34151e+9 
           2245      4.29387e+9 
           2255      4.23009e+9 
           2265       4.1832e+9 
           2275      4.12962e+9 
           2285      4.07761e+9 
           2295      3.97177e+9 
           2305       3.9695e+9 
           2315      3.91764e+9 
           2325      3.86882e+9 
           2335      3.81336e+9 
           2345      3.77228e+9 
           2355       3.7272e+9 
           2365      3.68039e+9 
           2375      3.63223e+9 
           2385      3.58475e+9 
           2395      3.54174e+9 
           2405      3.49926e+9 
           2415      3.45257e+9 
           2425       3.4148e+9 
           2435      3.36934e+9 
           2445      3.33018e+9 
           2455      3.29123e+9 
           2465      3.25125e+9 
           2475      3.21082e+9 
           2485      3.17192e+9 
           2495       3.0396e+9 
           2505      3.09463e+9 
           2513      3.04662e+9 
           2518       3.0422e+9 
           2525      3.02169e+9 
           2535      2.98653e+9 
           2545      2.93135e+9 
           2555      2.91133e+9 
           2565        2.879e+9 
           2575      2.84861e+9 
           2585      2.81528e+9 
           2595      2.78261e+9 
           2605      2.76711e+9 
           2615       2.7347e+9 
           2625      2.70176e+9 
           2635      2.66529e+9 
           2645      2.63548e+9 
           2655      2.60263e+9 
           2665      2.56939e+9 
           2675        2.539e+9 
           2685      2.52342e+9 
           2695      2.47744e+9 
           2705      2.46523e+9 
           2715      2.43791e+9 
           2725      2.39428e+9 
           2735      2.38143e+9 
           2745      2.35521e+9 
           2755      2.32971e+9 
           2765      2.28731e+9 
           2775      2.27942e+9 
           2785      2.25356e+9 
           2795       2.2078e+9 
           2805      2.19721e+9 
           2815      2.18054e+9 
           2825      2.13855e+9 
           2835      2.12105e+9 
           2845      2.10999e+9 
           2855       2.0865e+9 
           2865      2.06424e+9 
           2875      2.04207e+9 
           2885      2.02047e+9 
           2895      1.99853e+9 
           2910      1.96611e+9 
           2930      1.92452e+9 
           2950      1.87302e+9 
           2970      1.84497e+9 
           2990       1.8063e+9 
           3010      1.76824e+9 
           3030      1.73287e+9 
           3050      1.69762e+9 
           3070      1.66322e+9 
           3090      1.62586e+9 
           3110      1.59653e+9 
           3130      1.56546e+9 
           3150      1.53444e+9 
           3170       1.5036e+9 
           3190      1.46318e+9 
           3210      1.44468e+9 
           3230      1.41626e+9 
           3250      1.38872e+9 
           3270      1.36336e+9 
           3290      1.33535e+9 
           3310       1.3117e+9 
           3330      1.28668e+9 
           3350      1.26022e+9 
           3370      1.23857e+9 
           3390      1.21548e+9 
           3410       1.1929e+9 
           3430      1.16555e+9 
           3450      1.14014e+9 
           3470      1.12241e+9 
           3490      1.10203e+9 
           3510        1.087e+9 
           3530      1.06822e+9 
           3550      1.04931e+9 
           3570      1.03487e+9 
           3590      1.01106e+9 
           3610      9.94515e+8 
           3630       9.7541e+8 
           3640      9.72674e+8 
           3650      9.61583e+8 
           3670      9.48501e+8 
           3690      9.22643e+8 
           3710      8.98571e+8 
           3730      8.76695e+8 
           3750       9.4037e+8 
           3770      9.40333e+8 
           3790      9.68123e+8 
           3810      9.99587e+8 
           3830      8.91326e+8 
           3850       1.0077e+9 
           3870      9.97458e+8 
           3890       8.5025e+8 
           3910      9.76144e+8 
           3930      9.55818e+8 
           3950      9.43073e+8 
           3970      7.88409e+8 
           3990      9.08688e+8 
           4010      8.94844e+8 
           4030      8.55991e+8 
           4050      8.70962e+8 
           4070      8.52439e+8 
           4090      8.10927e+8 
           4110      7.24328e+8 
           4130      8.03799e+8 
           4150      7.93423e+8 
           4170      7.84899e+8 
           4190      7.73368e+8 
           4210      7.61085e+8 
           4230       7.4862e+8 
           4250      7.35835e+8 
           4270      7.22573e+8 
           4290      7.11901e+8 
           4310       6.9888e+8 
           4330       6.5615e+8 
           4350      6.03464e+8 
           4370      6.65262e+8 
           4390      6.45238e+8 
           4410      6.45752e+8 
           4430      6.34348e+8 
           4450       6.2649e+8 
           4470       5.9863e+8 
           4490      6.06838e+8 
           4510      5.97837e+8 
           4530      5.88586e+8 
           4550      5.79074e+8 
           4570      5.69994e+8 
           4590      5.61426e+8 
           4610      5.53126e+8 
           4630      5.44843e+8 
           4650      5.34626e+8 
           4670      5.28104e+8 
           4690      5.19979e+8 
           4710      5.06759e+8 
           4730      5.05126e+8 
           4750      4.97441e+8 
           4770      4.90497e+8 
           4790      4.83257e+8 
           4810      4.76006e+8 
           4830      4.67938e+8 
           4850      4.44852e+8 
           4870      4.02909e+8 
           4890      4.47341e+8 
           4910       4.4236e+8 
           4930       4.2861e+8 
           4950      4.29751e+8 
           4970      4.23859e+8 
           4990       4.1782e+8 
           5010      4.07602e+8 
           5030      4.06079e+8 
           5050       3.9826e+8 
           5070      3.94772e+8 
           5090      3.89248e+8 
           5110      3.83841e+8 
           5130      3.78492e+8 
           5150      3.73242e+8 
           5170      3.68133e+8 
           5190      3.63092e+8 
           5210      3.58103e+8 
           5230      3.53262e+8 
           5250       3.4847e+8 
           5270      3.43742e+8 
           5290      3.39115e+8 
           5310      3.34547e+8 
           5330      3.30065e+8 
           5350      3.25641e+8 
           5370      3.21339e+8 
           5390      3.17052e+8 
           5410      3.12846e+8 
           5430      3.08744e+8 
           5450      3.04681e+8 
           5470      3.00707e+8 
           5490      2.96783e+8 
           5510      2.92932e+8 
           5530      2.89129e+8 
           5550      2.85398e+8 
           5570      2.81725e+8 
           5590       2.7811e+8 
           5610       2.7455e+8 
           5630      2.71058e+8 
           5650      2.67584e+8 
           5670      2.64165e+8 
           5690      2.60787e+8 
           5710      2.57588e+8 
           5730      2.54359e+8 
           5750      2.51111e+8 
           5770      2.48049e+8 
           5790      2.44968e+8 
           5810      2.41934e+8 
           5830      2.38936e+8 
           5850      2.35995e+8 
           5870      2.27359e+8 
           5890      2.30107e+8 
           5910      2.27431e+8 
           5930      2.24656e+8 
           5950      2.21925e+8 
           5970      2.19256e+8 
           5990      2.16598e+8 
           6010      2.14011e+8 
           6030      2.11434e+8 
           6050      2.08916e+8 
           6070      2.06427e+8 
           6090      2.03977e+8 
           6110      2.01564e+8 
           6130      1.99188e+8 
           6150      1.96829e+8 
           6170      1.94525e+8 
           6190      1.92258e+8 
           6210      1.90015e+8 
           6230      1.87807e+8 
           6250      1.85623e+8 
           6270      1.83473e+8 
           6290      1.81366e+8 
           6310      1.79272e+8 
           6330      1.77219e+8 
           6350       1.7518e+8 
           6370       1.7319e+8 
           6390      1.71231e+8 
           6410      1.69293e+8 
           6430      1.67376e+8 
           6450      1.65497e+8 
           6470      1.63621e+8 
           6490      1.61791e+8 
           6510       1.5999e+8 
           6530      1.58004e+8 
           6550      1.53317e+8 
           6570       1.3836e+8 
           6590      1.52242e+8 
           6610      1.51314e+8 
           6630      1.49665e+8 
           6650      1.48102e+8 
           6670      1.45318e+8 
           6690      1.43761e+8 
           6710      1.43323e+8 
           6730      1.41757e+8 
           6750       1.4024e+8 
           6770      1.38731e+8 
           6790       1.3722e+8 
           6810      1.35766e+8 
           6830      1.34309e+8 
           6850      1.32884e+8 
           6870      1.31465e+8 
           6890      1.30068e+8 
           6910      1.28693e+8 
           6930      1.27339e+8 
           6950      1.25999e+8 
           6970       1.2468e+8 
           6990      1.23358e+8 
           7010      1.22088e+8 
           7030      1.20815e+8 
           7050      1.19562e+8 
           7070      1.16543e+8 
           7090        1.171e+8 
           7110      1.15891e+8 
           7130      1.14701e+8 
           7150      1.13522e+8 
           7170       1.1234e+8 
           7190       1.1122e+8 
           7210      1.10089e+8 
           7230      1.08854e+8 
           7250       1.0786e+8 
           7270      1.06776e+8 
           7290      1.04886e+8 
           7310      1.04623e+8 
           7330       1.0359e+8 
           7350       1.0256e+8 
           7370      1.01533e+8 
           7390      1.00529e+8 
           7410       9.9527e+7 
           7430      9.85415e+7 
           7450      9.75855e+7 
           7470      9.66113e+7 
           7490       9.5673e+7 
           7510      9.47032e+7 
           7530      9.38088e+7 
           7550      9.28961e+7 
           7570      9.19917e+7 
           7590      9.11021e+7 
           7610       9.0214e+7 
           7630       8.9347e+7 
           7650      8.84877e+7 
           7670      8.76362e+7 
           7690      8.67987e+7 
           7710      8.59624e+7 
           7730      8.51462e+7 
           7750      8.43309e+7 
           7770       8.3523e+7 
           7790       8.2747e+7 
           7810      8.19037e+7 
           7830      8.11909e+7 
           7850      8.05026e+7 
           7870      7.97473e+7 
           7890      7.89562e+7 
           7910      7.82684e+7 
           7930      7.74967e+7 
           7950      7.66483e+7 
           7970      7.58845e+7 
           7990      7.52159e+7 
           8010       7.4512e+7 
           8030       7.3855e+7 
           8050      7.32094e+7 
           8070      7.25809e+7 
           8090      7.17735e+7 
           8110      7.11851e+7 
           8130      7.06415e+7 
           8150      6.98642e+7 
           8170      6.93814e+7 
           8190      6.86667e+7 
           8210       6.7919e+7 
           8230      6.75114e+7 
           8250      6.69298e+7 
           8270      6.59786e+7 
           8290      6.56496e+7 
           8310      6.50831e+7 
           8330      6.44832e+7 
           8350      6.36127e+7 
           8370      6.32015e+7 
           8390      6.27186e+7 
           8410      6.21383e+7 
           8430      6.15046e+7 
           8450      6.06334e+7 
           8470      6.01951e+7 
           8490      5.99484e+7 
           8510      5.88762e+7 
           8530      5.91079e+7 
           8550      5.70486e+7 
           8570      5.89062e+7 
