# Kurucz ODFNEW /NOVER (2003)
# teff = 31000 K (value for the effective temperature for the model. Temperatures are given in K)
# logg = 5 log(cm/s2) (value for Log(G) for the model.)
# meta = -1.5  (value for the Metallicity for the model.)
# lh = 1.25  (l/Hp where l is the  mixing length of the convective element and Hp is the pressure scale height)
# vtur = 2 km/s (Microturbulence velocity)
# alpha = 0  (Alpha)
#
# column 1: WAVELENGTH (ANGSTROM), Wavelength in Angstrom
# column 2: FLUX (ERG/CM2/S/A), Flux in erg/cm2/s/A
          147.2      1.16627e-7 
            151      3.63941e-7 
          155.2      1.20049e-6 
          158.8      3.17892e-6 
            162      7.29386e-6 
            166      1.96909e-5 
          170.3      5.43828e-5 
          173.4     0.000109715 
          176.8     0.000230269 
          180.2     0.000470018 
          181.7     0.000638508 
          186.1      0.00152647 
            191      0.00384268 
          193.9      0.00649225 
          198.4       0.0142174 
          201.8       0.0251201 
            205       0.0421794 
          210.5       0.0991853 
          216.2        0.229741 
          219.8        0.381782 
            223        0.591461 
          226.8        0.978988 
            230          143.62 
            234         479.244 
            240         870.271 
          246.5         1585.35 
          252.4         2666.02 
          256.8         3280.96 
            260         4952.15 
            264         6526.93 
          268.5         9276.59 
          273.5         13292.4 
          278.5         18590.2 
            284         27660.6 
            290           40229 
            296         57427.8 
            301         73723.4 
            308          100532 
            318          196099 
            328          316570 
            338          512940 
            348          793190 
            357      1.16552e+6 
            366      1.68625e+6 
            375      2.28899e+6 
            385      3.28299e+6 
            395      4.54586e+6 
            405      6.14641e+6 
            414      8.04426e+6 
            422      9.90585e+6 
            430      1.22096e+7 
            441      1.61035e+7 
            451      2.04959e+7 
            460      2.48577e+7 
            470      3.10695e+7 
            480      3.80114e+7 
            490      4.60689e+7 
            500       5.5765e+7 
            506      2.47944e+8 
            512      1.01744e+9 
            520      1.04569e+9 
            530      1.14216e+9 
            540      1.06576e+9 
            550      1.24738e+9 
            560      1.32228e+9 
            570      1.40407e+9 
            580      1.33524e+9 
            590      1.49047e+9 
            600       1.5313e+9 
            610      1.60745e+9 
            620       1.6847e+9 
            630      1.75342e+9 
            640      1.75792e+9 
            650      1.86599e+9 
            658      1.90773e+9 
            665      1.95842e+9 
            675      1.98467e+9 
            685      1.99057e+9 
            695       2.1761e+9 
            705      2.17484e+9 
            716      2.30981e+9 
            726       2.3539e+9 
            735       2.4328e+9 
            745      2.51596e+9 
            755      2.57817e+9 
            765      2.64626e+9 
            775      2.72424e+9 
            785      2.82248e+9 
            795       2.8675e+9 
            805       2.9321e+9 
            815      2.98213e+9 
            825      3.07622e+9 
            835      3.00076e+9 
            845      3.17602e+9 
            855      3.22827e+9 
            865      3.30959e+9 
            875      3.38873e+9 
            885      3.45919e+9 
            895      3.52045e+9 
            905      3.54455e+9 
            915      3.80322e+9 
            925     1.32274e+10 
            935     2.64642e+10 
            945     5.58961e+10 
            955     6.96228e+10 
            965     9.17849e+10 
            975     4.19757e+10 
            985     9.59272e+10 
            995     8.82894e+10 
           1005     9.36728e+10 
           1015       8.668e+10 
           1025      3.8633e+10 
           1035      7.9494e+10 
           1045     8.99887e+10 
           1055     8.77526e+10 
           1065     8.05324e+10 
           1075     8.14241e+10 
           1085     7.34754e+10 
           1095     7.88665e+10 
           1105     7.56498e+10 
           1115     7.38656e+10 
           1125     6.83702e+10 
           1135     7.06391e+10 
           1145     6.69795e+10 
           1155     6.66324e+10 
           1165     6.50993e+10 
           1175     5.48412e+10 
           1185     6.07151e+10 
           1195     5.84659e+10 
           1205     5.26608e+10 
           1215     2.56601e+10 
           1225     5.06716e+10 
           1235     5.43176e+10 
           1245     5.28239e+10 
           1255     5.24208e+10 
           1265     5.14634e+10 
           1275      5.0511e+10 
           1285      4.9413e+10 
           1295     4.61593e+10 
           1305      4.6074e+10 
           1315     4.60535e+10 
           1325      4.4391e+10 
           1335     4.29443e+10 
           1345     4.26558e+10 
           1355     4.19711e+10 
           1365     4.06669e+10 
           1375     3.98982e+10 
           1385     3.89804e+10 
           1395      3.6207e+10 
           1405     3.59033e+10 
           1415     3.62256e+10 
           1425     3.50603e+10 
           1435     3.47563e+10 
           1442     3.44632e+10 
           1447     3.40149e+10 
           1455     3.33305e+10 
           1465     3.25751e+10 
           1475     3.18561e+10 
           1485     3.12935e+10 
           1495     3.05476e+10 
           1505     2.96208e+10 
           1512     2.91988e+10 
           1517     2.89363e+10 
           1525     2.83727e+10 
           1535     2.69074e+10 
           1545     2.60867e+10 
           1555       2.545e+10 
           1565     2.55749e+10 
           1575        2.54e+10 
           1585     2.50761e+10 
           1595     2.46086e+10 
           1605     2.36287e+10 
           1615     2.30467e+10 
           1625     2.28538e+10 
           1635     2.24483e+10 
           1645     2.14578e+10 
           1655     2.19048e+10 
           1665     2.15352e+10 
           1672     2.10655e+10 
           1677     2.13299e+10 
           1685     2.09036e+10 
           1695     2.04465e+10 
           1705     1.99638e+10 
           1715     1.94229e+10 
           1725     1.90553e+10 
           1735     1.89877e+10 
           1745     1.86012e+10 
           1755     1.82712e+10 
           1765     1.78181e+10 
           1775     1.75533e+10 
           1785     1.73323e+10 
           1795     1.70544e+10 
           1805     1.68186e+10 
           1815     1.64256e+10 
           1825     1.61579e+10 
           1835     1.58983e+10 
           1845     1.53269e+10 
           1855     1.49749e+10 
           1865     1.48548e+10 
           1875     1.47418e+10 
           1885     1.41946e+10 
           1895     1.37892e+10 
           1905     1.38711e+10 
           1915     1.34359e+10 
           1925     1.31086e+10 
           1935     1.31153e+10 
           1945     1.30475e+10 
           1955     1.24915e+10 
           1967     1.25363e+10 
           1976     1.25024e+10 
           1984     1.21606e+10 
           1995     1.17912e+10 
           2005     1.18379e+10 
           2015     1.17197e+10 
           2025     1.15794e+10 
           2035     1.12967e+10 
           2045     1.11144e+10 
           2055     1.02697e+10 
           2065     1.00326e+10 
           2074     1.00806e+10 
           2078      9.88743e+9 
           2085      9.92167e+9 
           2095      9.88898e+9 
           2105     1.00826e+10 
           2115     1.00321e+10 
           2125      9.90624e+9 
           2135      9.74506e+9 
           2145       9.5799e+9 
           2155       9.4628e+9 
           2165       9.2928e+9 
           2175      9.18684e+9 
           2185      9.02088e+9 
           2195      8.92792e+9 
           2205      8.79522e+9 
           2215      8.62307e+9 
           2225       8.5328e+9 
           2235       8.4008e+9 
           2245      8.28502e+9 
           2255       8.1139e+9 
           2265      8.04535e+9 
           2275      7.92892e+9 
           2285      7.80989e+9 
           2295      7.57318e+9 
           2305      7.54306e+9 
           2315      7.47452e+9 
           2325      7.36924e+9 
           2335      7.25996e+9 
           2345      7.16529e+9 
           2355      7.06449e+9 
           2365      6.96514e+9 
           2375      6.86386e+9 
           2385       6.7296e+9 
           2395      6.67024e+9 
           2405      6.58232e+9 
           2415      6.49045e+9 
           2425       6.4034e+9 
           2435       6.3105e+9 
           2445      6.22735e+9 
           2455      6.14391e+9 
           2465       6.0613e+9 
           2475      5.97829e+9 
           2485      5.89812e+9 
           2495      5.64226e+9 
           2505      5.73503e+9 
           2513      5.58487e+9 
           2518      5.62718e+9 
           2525      5.58935e+9 
           2535      5.51614e+9 
           2545      5.42786e+9 
           2555      5.36474e+9 
           2565       5.3006e+9 
           2575      5.23161e+9 
           2585       5.1646e+9 
           2595      5.09786e+9 
           2605      5.05535e+9 
           2615      4.98988e+9 
           2625      4.92629e+9 
           2635      4.86195e+9 
           2645      4.79736e+9 
           2655      4.73344e+9 
           2665      4.66271e+9 
           2675      4.59765e+9 
           2685      4.56346e+9 
           2695      4.47177e+9 
           2705      4.44582e+9 
           2715      4.39182e+9 
           2725      4.30531e+9 
           2735      4.26583e+9 
           2745       4.2305e+9 
           2755      4.18029e+9 
           2765      4.09423e+9 
           2775      4.07989e+9 
           2785      4.02932e+9 
           2795      3.95926e+9 
           2805      3.92711e+9 
           2815      3.88595e+9 
           2825      3.79948e+9 
           2835      3.76058e+9 
           2845       3.7482e+9 
           2855      3.70239e+9 
           2865      3.65883e+9 
           2875      3.61587e+9 
           2885      3.57351e+9 
           2895      3.53156e+9 
           2910       3.4686e+9 
           2930      3.38916e+9 
           2950      3.28383e+9 
           2970      3.23536e+9 
           2990      3.16116e+9 
           3010      3.08852e+9 
           3030      3.02089e+9 
           3050      2.95394e+9 
           3070      2.88904e+9 
           3090      2.82051e+9 
           3110      2.76304e+9 
           3130       2.7037e+9 
           3150      2.64533e+9 
           3170      2.58802e+9 
           3190       2.5098e+9 
           3210      2.47457e+9 
           3230      2.42509e+9 
           3250      2.37397e+9 
           3270      2.32628e+9 
           3290      2.27487e+9 
           3310      2.23099e+9 
           3330      2.18467e+9 
           3350      2.13631e+9 
           3370      2.09636e+9 
           3390      2.05426e+9 
           3410       2.0129e+9 
           3430      1.96461e+9 
           3450       1.9188e+9 
           3470      1.88579e+9 
           3490      1.84865e+9 
           3510      1.81413e+9 
           3530      1.78021e+9 
           3550      1.74645e+9 
           3570      1.72384e+9 
           3590       1.6765e+9 
           3610       1.6522e+9 
           3630       1.6136e+9 
           3640      1.61202e+9 
           3650      1.58067e+9 
           3670      1.55719e+9 
           3690      1.52921e+9 
           3710      1.48082e+9 
           3730      1.43777e+9 
           3750      1.41243e+9 
           3770      1.36698e+9 
           3790      1.40071e+9 
           3810      1.44584e+9 
           3830       1.2761e+9 
           3850      1.47256e+9 
           3870      1.49599e+9 
           3890      1.19406e+9 
           3910      1.46502e+9 
           3930      1.45846e+9 
           3950      1.41702e+9 
           3970      1.10632e+9 
           3990      1.35461e+9 
           4010      1.35856e+9 
           4030      1.27353e+9 
           4050      1.32749e+9 
           4070      1.29265e+9 
           4090       1.1718e+9 
           4110      1.03085e+9 
           4130      1.21055e+9 
           4150       1.2028e+9 
           4170      1.19482e+9 
           4190      1.17587e+9 
           4210      1.15616e+9 
           4230      1.13678e+9 
           4250      1.11618e+9 
           4270      1.09397e+9 
           4290      1.07481e+9 
           4310      1.04762e+9 
           4330      9.35951e+8 
           4350      8.58041e+8 
           4370      9.91827e+8 
           4390      9.57496e+8 
           4410      9.71321e+8 
           4430      9.54815e+8 
           4450      9.41648e+8 
           4470       8.7909e+8 
           4490      9.09808e+8 
           4510      8.97182e+8 
           4530      8.82613e+8 
           4550       8.6721e+8 
           4570      8.53936e+8 
           4590      8.39984e+8 
           4610      8.26773e+8 
           4630        8.136e+8 
           4650      7.97104e+8 
           4670      7.87838e+8 
           4690      7.72381e+8 
           4710      7.53133e+8 
           4730      7.51846e+8 
           4750      7.39917e+8 
           4770       7.2909e+8 
           4790      7.17415e+8 
           4810      7.04183e+8 
           4830      6.87721e+8 
           4850      6.26759e+8 
           4870      5.63468e+8 
           4890      6.53366e+8 
           4910      6.50507e+8 
           4930      6.25539e+8 
           4950       6.3484e+8 
           4970      6.25836e+8 
           4990      6.16517e+8 
           5010      5.99283e+8 
           5030      5.98428e+8 
           5050      5.86311e+8 
           5070      5.81093e+8 
           5090      5.72595e+8 
           5110      5.64298e+8 
           5130      5.56071e+8 
           5150      5.48039e+8 
           5170      5.40227e+8 
           5190      5.32547e+8 
           5210      5.24954e+8 
           5230      5.17518e+8 
           5250      5.10192e+8 
           5270       5.0299e+8 
           5290      4.95936e+8 
           5310      4.88988e+8 
           5330      4.82195e+8 
           5350      4.75477e+8 
           5370      4.68911e+8 
           5390      4.62417e+8 
           5410      4.55683e+8 
           5430      4.49841e+8 
           5450      4.43692e+8 
           5470      4.37645e+8 
           5490      4.31712e+8 
           5510      4.25879e+8 
           5530      4.20143e+8 
           5550      4.14503e+8 
           5570      4.08958e+8 
           5590      4.03505e+8 
           5610      3.98143e+8 
           5630      3.92871e+8 
           5650      3.87675e+8 
           5670      3.82496e+8 
           5690       3.7731e+8 
           5710      3.72592e+8 
           5730      3.67746e+8 
           5750      3.62902e+8 
           5770      3.58297e+8 
           5790      3.53669e+8 
           5810      3.49118e+8 
           5830      3.44609e+8 
           5850      3.40221e+8 
           5870      3.24753e+8 
           5890      3.30566e+8 
           5910      3.27426e+8 
           5930      3.23261e+8 
           5950      3.19197e+8 
           5970      3.15255e+8 
           5990      3.11294e+8 
           6010      3.07432e+8 
           6030      3.03604e+8 
           6050      2.99871e+8 
           6070       2.9617e+8 
           6090      2.92531e+8 
           6110      2.88944e+8 
           6130      2.85418e+8 
           6150      2.81911e+8 
           6170      2.78513e+8 
           6190      2.75143e+8 
           6210       2.7182e+8 
           6230      2.68554e+8 
           6250      2.65324e+8 
           6270      2.62158e+8 
           6290      2.59027e+8 
           6310      2.55949e+8 
           6330      2.52915e+8 
           6350      2.49923e+8 
           6370      2.46982e+8 
           6390      2.44073e+8 
           6410      2.41213e+8 
           6430      2.38394e+8 
           6450      2.35623e+8 
           6470      2.32854e+8 
           6490      2.30151e+8 
           6510      2.27042e+8 
           6530      2.23232e+8 
           6550      2.11536e+8 
           6570      1.88623e+8 
           6590      2.13877e+8 
           6610      2.13973e+8 
           6630      2.12238e+8 
           6650      2.10035e+8 
           6670      2.05238e+8 
           6690      2.02968e+8 
           6710      2.03041e+8 
           6730      2.00746e+8 
           6750      1.98533e+8 
           6770      1.96326e+8 
           6790      1.94092e+8 
           6810      1.91995e+8 
           6830      1.89871e+8 
           6850      1.87785e+8 
           6870      1.85727e+8 
           6890      1.83682e+8 
           6910      1.81674e+8 
           6930      1.79709e+8 
           6950      1.77763e+8 
           6970      1.75837e+8 
           6990      1.73938e+8 
           7010      1.72065e+8 
           7030      1.70219e+8 
           7050      1.68398e+8 
           7070      1.63957e+8 
           7090      1.64824e+8 
           7110      1.63071e+8 
           7130      1.61343e+8 
           7150      1.59638e+8 
           7170      1.57942e+8 
           7190        1.563e+8 
           7210      1.54658e+8 
           7230      1.52845e+8 
           7250      1.51437e+8 
           7270      1.49871e+8 
           7290      1.47107e+8 
           7310      1.46769e+8 
           7330      1.45268e+8 
           7350      1.43774e+8 
           7370      1.42301e+8 
           7390      1.40842e+8 
           7410      1.39404e+8 
           7430      1.37985e+8 
           7450      1.36601e+8 
           7470      1.35195e+8 
           7490      1.33843e+8 
           7510      1.32456e+8 
           7530      1.31162e+8 
           7550      1.29847e+8 
           7570       1.2855e+8 
           7590      1.27266e+8 
           7610      1.25993e+8 
           7630      1.24744e+8 
           7650      1.23507e+8 
           7670      1.22287e+8 
           7690      1.21079e+8 
           7710      1.19887e+8 
           7730      1.18713e+8 
           7750      1.17549e+8 
           7770      1.16402e+8 
           7790      1.15271e+8 
           7810      1.14101e+8 
           7830      1.13045e+8 
           7850      1.12048e+8 
           7870      1.10956e+8 
           7890       1.0985e+8 
           7910      1.08844e+8 
           7930      1.07798e+8 
           7950      1.06768e+8 
           7970      1.05675e+8 
           7990      1.04739e+8 
           8010      1.03712e+8 
           8030      1.02682e+8 
           8050      1.01672e+8 
           8070      1.00735e+8 
           8090      9.96218e+7 
           8110      9.87816e+7 
           8130        9.792e+7 
           8150      9.69523e+7 
           8170      9.61226e+7 
           8190      9.51145e+7 
           8210      9.40369e+7 
           8230      9.33357e+7 
           8250      9.25073e+7 
           8270      9.13278e+7 
           8290         9.08e+7 
           8310      9.00088e+7 
           8330      8.91374e+7 
           8350      8.79976e+7 
           8370      8.74378e+7 
           8390      8.67538e+7 
           8410      8.59688e+7 
           8430      8.51532e+7 
           8450      8.39011e+7 
           8470      8.36419e+7 
           8490      8.27361e+7 
           8510      8.21188e+7 
           8530      8.12009e+7 
           8550      8.04504e+7 
           8570      8.00599e+7 
           8590      7.80844e+7 
