# Kurucz ODFNEW /NOVER (2003)
# teff = 24000 K (value for the effective temperature for the model. Temperatures are given in K)
# logg = 5 log(cm/s2) (value for Log(G) for the model.)
# meta = -0.5  (value for the Metallicity for the model.)
# lh = 1.25  (l/Hp where l is the  mixing length of the convective element and Hp is the pressure scale height)
# vtur = 2 km/s (Microturbulence velocity)
# alpha = 0  (Alpha)
#
# column 1: WAVELENGTH (ANGSTROM), Wavelength in Angstrom
# column 2: FLUX (ERG/CM2/S/A), Flux in erg/cm2/s/A
          147.2     1.03575e-14 
            151     4.63159e-14 
          155.2     2.23266e-13 
          158.8     8.06644e-13 
            162     2.41392e-12 
            166     8.97692e-12 
          170.3     3.44838e-11 
          173.4     8.75344e-11 
          176.8     2.34523e-10 
          180.2     6.06616e-10 
          181.7     9.12586e-10 
          186.1      2.92033e-9 
            191      1.00489e-8 
          193.9      2.02998e-8 
          198.4      5.81481e-8 
          201.8      1.25055e-7 
            205      2.51479e-7 
          210.5      7.97028e-7 
          216.2      2.48214e-6 
          219.8      4.93977e-6 
            223      8.94381e-6 
          226.8      1.77231e-5 
            230      0.00029251 
            234     0.000674626 
            240      0.00167854 
          246.5        0.004268 
          252.4      0.00964742 
          256.8       0.0167136 
            260       0.0258088 
            264       0.0422096 
          268.5         0.07202 
          273.5        0.127495 
          278.5        0.221815 
            284        0.399551 
            290        0.734914 
            296         1.31595 
            301         2.09956 
            308         3.85788 
            318         9.24947 
            328         20.2536 
            338         43.0434 
            348         86.5702 
            357         160.069 
            366          283.99 
            375         478.865 
            385         841.144 
            395         1426.85 
            405         2352.59 
            414         3627.15 
            422         5185.62 
            430         7342.05 
            441           11640 
            451         17332.6 
            460         24241.7 
            470         34862.4 
            480         49089.3 
            490           68293 
            500         93573.6 
            506          553376 
            512      2.25554e+6 
            520      2.76863e+6 
            530      3.64927e+6 
            540      4.04054e+6 
            550       5.5462e+6 
            560      6.43672e+6 
            570      7.87897e+6 
            580      8.00628e+6 
            590      1.03317e+7 
            600      1.21307e+7 
            610      1.43129e+7 
            620      1.60688e+7 
            630      1.82869e+7 
            640       1.9426e+7 
            650      2.09613e+7 
            658       2.4707e+7 
            665       2.7132e+7 
            675       2.9591e+7 
            685      3.23117e+7 
            695      3.80539e+7 
            705      4.11873e+7 
            716      4.61557e+7 
            726      4.98512e+7 
            735      5.38394e+7 
            745      5.98803e+7 
            755      6.52183e+7 
            765      7.07078e+7 
            775      7.69108e+7 
            785      8.33393e+7 
            795        8.851e+7 
            805      9.46496e+7 
            815      1.00571e+8 
            825      1.08808e+8 
            835       1.1194e+8 
            845      1.20808e+8 
            855      1.27743e+8 
            865      1.36679e+8 
            875       1.4616e+8 
            885      1.56074e+8 
            895      1.64571e+8 
            905      1.69035e+8 
            915      2.16406e+8 
            925        8.116e+8 
            935      2.10384e+9 
            945       7.2859e+9 
            955     1.40485e+10 
            965     1.97685e+10 
            975      4.41316e+9 
            985      2.6481e+10 
            995     2.59187e+10 
           1005     2.84871e+10 
           1015     2.30431e+10 
           1025      4.48077e+9 
           1035     1.73372e+10 
           1045     3.06331e+10 
           1055     2.96181e+10 
           1065     2.49403e+10 
           1075     2.81599e+10 
           1085     2.52053e+10 
           1095     2.76653e+10 
           1105     2.53064e+10 
           1115     2.48148e+10 
           1125     2.19392e+10 
           1135     2.47911e+10 
           1145     2.20582e+10 
           1155     2.32006e+10 
           1165     2.30705e+10 
           1175     1.70196e+10 
           1185     2.19123e+10 
           1195     1.89145e+10 
           1205     1.26236e+10 
           1215       3.8198e+9 
           1225     1.29423e+10 
           1235     1.86944e+10 
           1245     1.91791e+10 
           1255      1.8756e+10 
           1265     1.84487e+10 
           1275     1.88665e+10 
           1285     1.85382e+10 
           1295     1.48421e+10 
           1305     1.48336e+10 
           1315     1.74484e+10 
           1325     1.64144e+10 
           1335     1.55691e+10 
           1345     1.58695e+10 
           1355     1.57635e+10 
           1365     1.47309e+10 
           1375     1.44768e+10 
           1385     1.43975e+10 
           1395     1.24851e+10 
           1405     1.28882e+10 
           1415     1.31408e+10 
           1425     1.29251e+10 
           1435     1.29051e+10 
           1442     1.30995e+10 
           1447     1.28407e+10 
           1455     1.25688e+10 
           1465     1.19317e+10 
           1475     1.18166e+10 
           1485      1.1463e+10 
           1495     1.13326e+10 
           1505     1.05456e+10 
           1512      9.78924e+9 
           1517     1.00124e+10 
           1525     1.01155e+10 
           1535      9.16551e+9 
           1545       9.2368e+9 
           1555      8.79556e+9 
           1565      9.08405e+9 
           1575      9.33735e+9 
           1585      9.17821e+9 
           1595      9.15781e+9 
           1605      8.96084e+9 
           1615      8.77915e+9 
           1625      8.66972e+9 
           1635      8.82738e+9 
           1645      8.65008e+9 
           1655      8.44449e+9 
           1665      8.58974e+9 
           1672       8.2812e+9 
           1677      8.53289e+9 
           1685      8.38969e+9 
           1695      8.08263e+9 
           1705      7.76999e+9 
           1715      7.47176e+9 
           1725      7.31968e+9 
           1735      7.43804e+9 
           1745      7.25183e+9 
           1755      7.30017e+9 
           1765      6.92757e+9 
           1775      6.83838e+9 
           1785      6.81931e+9 
           1795      6.90046e+9 
           1805      6.85589e+9 
           1815      6.43015e+9 
           1825      6.52196e+9 
           1835      6.32566e+9 
           1845      5.87047e+9 
           1855      5.79509e+9 
           1865      5.84738e+9 
           1875      6.00581e+9 
           1885      5.49918e+9 
           1895      5.18343e+9 
           1905      5.46508e+9 
           1915      5.21441e+9 
           1925      5.04112e+9 
           1935      5.18626e+9 
           1945      5.26691e+9 
           1955       4.8731e+9 
           1967      5.10399e+9 
           1976      5.26176e+9 
           1984      4.92281e+9 
           1995      4.80819e+9 
           2005      4.87787e+9 
           2015      4.83959e+9 
           2025      4.92577e+9 
           2035      4.62512e+9 
           2045      4.61387e+9 
           2055      4.47933e+9 
           2065      4.51495e+9 
           2074      4.61484e+9 
           2078      4.37034e+9 
           2085      4.42875e+9 
           2095      4.24056e+9 
           2105      4.31991e+9 
           2115      4.28185e+9 
           2125      4.32215e+9 
           2135      4.22035e+9 
           2145      4.07334e+9 
           2155      4.13702e+9 
           2165      4.08467e+9 
           2175       4.0194e+9 
           2185      3.95326e+9 
           2195      3.94407e+9 
           2205       3.8811e+9 
           2215      3.82663e+9 
           2225      3.74095e+9 
           2235      3.70506e+9 
           2245       3.6873e+9 
           2255       3.6014e+9 
           2265      3.60124e+9 
           2275      3.54905e+9 
           2285      3.52859e+9 
           2295      3.39691e+9 
           2305      3.41813e+9 
           2315      3.34234e+9 
           2325      3.30619e+9 
           2335        3.221e+9 
           2345      3.18016e+9 
           2355      3.18133e+9 
           2365      3.11966e+9 
           2375      3.08517e+9 
           2385      3.03928e+9 
           2395      3.02032e+9 
           2405       2.9653e+9 
           2415      2.93007e+9 
           2425       2.9278e+9 
           2435      2.86085e+9 
           2445      2.84203e+9 
           2455      2.82805e+9 
           2465      2.77614e+9 
           2475      2.74575e+9 
           2485      2.71662e+9 
           2495      2.61507e+9 
           2505      2.64862e+9 
           2513      2.55364e+9 
           2518      2.60958e+9 
           2525      2.57185e+9 
           2535      2.52985e+9 
           2545      2.48692e+9 
           2555      2.49628e+9 
           2565      2.45905e+9 
           2575       2.4484e+9 
           2585      2.42413e+9 
           2595      2.39542e+9 
           2605      2.37578e+9 
           2615      2.35142e+9 
           2625      2.32736e+9 
           2635      2.30094e+9 
           2645      2.29144e+9 
           2655      2.26667e+9 
           2665      2.21798e+9 
           2675       2.2019e+9 
           2685      2.19274e+9 
           2695      2.13645e+9 
           2705       2.1334e+9 
           2715      2.10877e+9 
           2725       2.0675e+9 
           2735      2.07014e+9 
           2745      2.01008e+9 
           2755      2.00172e+9 
           2765      1.97525e+9 
           2775      1.98432e+9 
           2785      1.95698e+9 
           2795      1.89025e+9 
           2805      1.90251e+9 
           2815      1.90014e+9 
           2825      1.85551e+9 
           2835      1.81014e+9 
           2845      1.83207e+9 
           2855       1.8139e+9 
           2865      1.80057e+9 
           2875       1.7794e+9 
           2885      1.76112e+9 
           2895      1.74227e+9 
           2910      1.71346e+9 
           2930      1.67474e+9 
           2950      1.62596e+9 
           2970      1.60995e+9 
           2990      1.57188e+9 
           3010      1.54058e+9 
           3030       1.5151e+9 
           3050       1.4842e+9 
           3070      1.45465e+9 
           3090       1.4199e+9 
           3110      1.39609e+9 
           3130      1.36988e+9 
           3150       1.3432e+9 
           3170      1.31472e+9 
           3190      1.27641e+9 
           3210      1.26556e+9 
           3230      1.24059e+9 
           3250      1.21723e+9 
           3270      1.19527e+9 
           3290      1.17079e+9 
           3310      1.15108e+9 
           3330      1.12918e+9 
           3350      1.10597e+9 
           3370      1.08747e+9 
           3390       1.0678e+9 
           3410      1.04828e+9 
           3430      1.02433e+9 
           3450      1.00189e+9 
           3470      9.86682e+8 
           3490       9.6891e+8 
           3510      9.52824e+8 
           3530      9.37311e+8 
           3550      9.21519e+8 
           3570      9.11754e+8 
           3590      8.86921e+8 
           3610      8.75126e+8 
           3630      8.57561e+8 
           3640      8.57889e+8 
           3650      8.43382e+8 
           3670      8.33096e+8 
           3690      8.19497e+8 
           3710       7.9221e+8 
           3730      7.62183e+8 
           3750      7.59513e+8 
           3770      7.43047e+8 
           3790       7.8372e+8 
           3810      8.22539e+8 
           3830      7.09188e+8 
           3850      8.57817e+8 
           3870      8.84391e+8 
           3890      6.63629e+8 
           3910      8.77058e+8 
           3930      8.74837e+8 
           3950      8.51224e+8 
           3970      6.18795e+8 
           3990      8.10389e+8 
           4010      8.26785e+8 
           4030      7.61605e+8 
           4050      8.13129e+8 
           4070      7.85985e+8 
           4090      6.90013e+8 
           4110      5.93125e+8 
           4130      7.33121e+8 
           4150      7.36769e+8 
           4170      7.34636e+8 
           4190      7.26889e+8 
           4210      7.16768e+8 
           4230      7.03711e+8 
           4250      6.90158e+8 
           4270      6.70939e+8 
           4290      6.64329e+8 
           4310      6.43535e+8 
           4330      5.53574e+8 
           4350      5.01549e+8 
           4370      6.08053e+8 
           4390      5.86809e+8 
           4410      6.02652e+8 
           4430      5.92903e+8 
           4450      5.86007e+8 
           4470      5.37937e+8 
           4490      5.64624e+8 
           4510      5.61109e+8 
           4530      5.51576e+8 
           4550      5.42971e+8 
           4570      5.34405e+8 
           4590       5.2645e+8 
           4610      5.17566e+8 
           4630      5.09168e+8 
           4650      4.99814e+8 
           4670      4.94575e+8 
           4690      4.88088e+8 
           4710      4.70655e+8 
           4730      4.70724e+8 
           4750      4.63413e+8 
           4770      4.59667e+8 
           4790      4.51403e+8 
           4810        4.423e+8 
           4830      4.29925e+8 
           4850      3.79684e+8 
           4870      3.36035e+8 
           4890       4.0808e+8 
           4910      4.09653e+8 
           4930       3.9158e+8 
           4950      4.01445e+8 
           4970      3.96802e+8 
           4990      3.90904e+8 
           5010      3.76848e+8 
           5030      3.79471e+8 
           5050      3.69809e+8 
           5070        3.693e+8 
           5090      3.64019e+8 
           5110      3.58679e+8 
           5130      3.52896e+8 
           5150      3.47945e+8 
           5170      3.44159e+8 
           5190      3.39427e+8 
           5210       3.3387e+8 
           5230      3.30151e+8 
           5250      3.25658e+8 
           5270      3.21156e+8 
           5290      3.16956e+8 
           5310      3.12635e+8 
           5330      3.08278e+8 
           5350      3.03819e+8 
           5370      3.00292e+8 
           5390      2.96253e+8 
           5410      2.92316e+8 
           5430      2.88148e+8 
           5450      2.84438e+8 
           5470      2.80713e+8 
           5490      2.77159e+8 
           5510      2.73562e+8 
           5530      2.69986e+8 
           5550      2.66551e+8 
           5570       2.6305e+8 
           5590      2.59736e+8 
           5610      2.56271e+8 
           5630      2.53147e+8 
           5650      2.49292e+8 
           5670       2.4599e+8 
           5690      2.42879e+8 
           5710      2.40372e+8 
           5730      2.37389e+8 
           5750      2.34304e+8 
           5770      2.31563e+8 
           5790      2.28662e+8 
           5810      2.25796e+8 
           5830      2.22953e+8 
           5850      2.20231e+8 
           5870      2.08554e+8 
           5890      2.13254e+8 
           5910      2.12136e+8 
           5930      2.09519e+8 
           5950      2.06825e+8 
           5970      2.04606e+8 
           5990      2.01961e+8 
           6010      1.99691e+8 
           6030       1.9726e+8 
           6050      1.94929e+8 
           6070      1.92624e+8 
           6090      1.90304e+8 
           6110      1.88072e+8 
           6130      1.85864e+8 
           6150      1.83372e+8 
           6170      1.81443e+8 
           6190      1.79378e+8 
           6210      1.77286e+8 
           6230      1.75208e+8 
           6250      1.73057e+8 
           6270       1.7114e+8 
           6290      1.69187e+8 
           6310      1.67189e+8 
           6330      1.65325e+8 
           6350      1.63043e+8 
           6370       1.6138e+8 
           6390      1.59698e+8 
           6410      1.57869e+8 
           6430       1.5615e+8 
           6450       1.5435e+8 
           6470      1.52434e+8 
           6490       1.5062e+8 
           6510       1.4854e+8 
           6530      1.45653e+8 
           6550      1.35597e+8 
           6570      1.18958e+8 
           6590      1.38528e+8 
           6610      1.40157e+8 
           6630      1.39184e+8 
           6650      1.38007e+8 
           6670      1.34564e+8 
           6690       1.3318e+8 
           6710      1.33684e+8 
           6730        1.322e+8 
           6750      1.30823e+8 
           6770       1.2941e+8 
           6790      1.27701e+8 
           6810      1.26602e+8 
           6830      1.25264e+8 
           6850      1.23948e+8 
           6870      1.22637e+8 
           6890      1.21323e+8 
           6910      1.20037e+8 
           6930      1.18757e+8 
           6950      1.17537e+8 
           6970      1.16305e+8 
           6990      1.15077e+8 
           7010      1.13877e+8 
           7030      1.12689e+8 
           7050      1.11505e+8 
           7070      1.08305e+8 
           7090      1.09238e+8 
           7110      1.08103e+8 
           7130      1.06994e+8 
           7150      1.05887e+8 
           7170      1.04806e+8 
           7190      1.03758e+8 
           7210      1.02697e+8 
           7230      1.00811e+8 
           7250      1.00614e+8 
           7270      9.96122e+7 
           7290      9.76982e+7 
           7310      9.76085e+7 
           7330      9.66419e+7 
           7350      9.56843e+7 
           7370      9.47287e+7 
           7390       9.3789e+7 
           7410       9.2858e+7 
           7430       9.1922e+7 
           7450      9.10422e+7 
           7470       9.0103e+7 
           7490      8.92599e+7 
           7510      8.83576e+7 
           7530      8.75168e+7 
           7550       8.6677e+7 
           7570      8.58383e+7 
           7590      8.50072e+7 
           7610      8.41772e+7 
           7630      8.33741e+7 
           7650      8.25718e+7 
           7670      8.17767e+7 
           7690      8.09952e+7 
           7710      8.02206e+7 
           7730      7.94529e+7 
           7750      7.87047e+7 
           7770      7.77447e+7 
           7790      7.72218e+7 
           7810      7.64501e+7 
           7830      7.57712e+7 
           7850      7.50799e+7 
           7870      7.43704e+7 
           7890      7.35944e+7 
           7910      7.30421e+7 
           7930      7.23686e+7 
           7950      7.16354e+7 
           7970      7.09145e+7 
           7990      7.02059e+7 
           8010      6.95739e+7 
           8030      6.89239e+7 
           8050      6.82854e+7 
           8070      6.76697e+7 
           8090      6.69901e+7 
           8110      6.64024e+7 
           8130      6.58709e+7 
           8150      6.52361e+7 
           8170      6.46969e+7 
           8190      6.40444e+7 
           8210      6.33415e+7 
           8230      6.28838e+7 
           8250      6.23911e+7 
           8270      6.15499e+7 
           8290      6.12642e+7 
           8310      6.07515e+7 
           8330      6.01832e+7 
           8350      5.93765e+7 
           8370      5.90393e+7 
           8390      5.86244e+7 
           8410      5.81115e+7 
           8430      5.75605e+7 
           8450      5.66077e+7 
           8470      5.65665e+7 
           8490      5.59292e+7 
           8510      5.55314e+7 
           8530      5.49347e+7 
           8550      5.43327e+7 
           8570      5.42692e+7 
           8590      5.26638e+7 
