# Kurucz ODFNEW /NOVER (2003)
# teff = 19000 K (value for the effective temperature for the model. Temperatures are given in K)
# logg = 3.5 log(cm/s2) (value for Log(G) for the model.)
# meta = -2.5  (value for the Metallicity for the model.)
# lh = 1.25  (l/Hp where l is the  mixing length of the convective element and Hp is the pressure scale height)
# vtur = 2 km/s (Microturbulence velocity)
# alpha = 0.4  (Alpha)
#
# column 1: WAVELENGTH (ANGSTROM), Wavelength in Angstrom
# column 2: FLUX (ERG/CM2/S/A), Flux in erg/cm2/s/A
          147.2     2.23904e-22 
            151      1.8981e-21 
          155.2     1.64865e-20 
          158.8     9.56515e-20 
            162     4.27531e-19 
            166     2.56175e-18 
          170.3     1.59904e-17 
          173.4     5.65892e-17 
          176.8     2.14938e-16 
          180.2     7.75849e-16 
          181.7     1.34591e-15 
          186.1     6.43274e-15 
            191     3.36806e-14 
          193.9     8.61752e-14 
          198.4      3.5028e-13 
          201.8     9.68669e-13 
            205     2.44495e-12 
          210.5     1.12151e-11 
          216.2     4.99902e-11 
          219.8     1.23284e-10 
            223     2.68102e-10 
          226.8     6.54949e-10 
            230       1.5854e-9 
            234      3.90737e-9 
            240      1.36643e-8 
          246.5      4.93363e-8 
          252.4      1.49253e-7 
          256.8      3.28187e-7 
            260      5.74624e-7 
            264      1.13101e-6 
          268.5      2.36168e-6 
          273.5      5.19448e-6 
          278.5      1.10971e-5 
            284      2.47567e-5 
            290      5.72799e-5 
            296     0.000127841 
            301     0.000243333 
            308     0.000576508 
            318      0.00184971 
            328      0.00549771 
            338       0.0152566 
            348       0.0397746 
            357       0.0897123 
            366        0.193899 
            375        0.402702 
            385        0.868771 
            395         1.79707 
            405         3.57609 
            414          6.4417 
            422         10.6219 
            430         17.1625 
            441          32.183 
            451         55.3627 
            460         88.2305 
            470         144.711 
            480         232.006 
            490         364.099 
            500         560.091 
            506         4200.53 
            512           12076 
            520           15965 
            530         25015.2 
            540         28661.7 
            550         44351.9 
            560         57313.1 
            570         73984.6 
            580         77443.4 
            590          108939 
            600          147647 
            610          183991 
            620          225352 
            630          275386 
            640          330622 
            650          400278 
            658          462546 
            665          521394 
            675          613475 
            685          719369 
            695          852004 
            705          990438 
            716      1.16313e+6 
            726      1.33931e+6 
            735      1.52226e+6 
            745      1.74306e+6 
            755      1.98614e+6 
            765       2.2494e+6 
            775      2.54661e+6 
            785      2.86742e+6 
            795      3.21465e+6 
            805       3.5953e+6 
            815      4.00366e+6 
            825      4.45107e+6 
            835      4.87521e+6 
            845      5.43864e+6 
            855      5.97541e+6 
            865      6.58172e+6 
            875      7.20663e+6 
            885      7.88884e+6 
            895       8.5996e+6 
            905      9.25972e+6 
            915      1.84377e+7 
            925      1.37813e+8 
            935      6.58676e+8 
            945      2.96207e+9 
            955      4.82093e+9 
            965       6.4158e+9 
            975      2.34077e+9 
            985      7.90055e+9 
            995      7.87268e+9 
           1005      8.05957e+9 
           1015      7.05793e+9 
           1025      1.65501e+9 
           1035      6.19767e+9 
           1045      8.08018e+9 
           1055      7.99508e+9 
           1065      7.49357e+9 
           1075      7.76882e+9 
           1085      7.35458e+9 
           1095      7.67205e+9 
           1105      7.26477e+9 
           1115      7.27474e+9 
           1125      6.96501e+9 
           1135      7.12005e+9 
           1145      6.82985e+9 
           1155      6.94988e+9 
           1165      6.87577e+9 
           1175      6.27489e+9 
           1185      6.64161e+9 
           1195      6.00303e+9 
           1205      4.72434e+9 
           1215      1.02008e+9 
           1225      4.59193e+9 
           1235      5.88871e+9 
           1245      5.99257e+9 
           1255      5.86684e+9 
           1265      5.78952e+9 
           1275      5.83648e+9 
           1285      5.74417e+9 
           1295      5.30693e+9 
           1305      5.25865e+9 
           1315       5.4818e+9 
           1325      5.33092e+9 
           1335      5.13023e+9 
           1345      5.20958e+9 
           1355      5.16826e+9 
           1365      5.05581e+9 
           1375      4.98713e+9 
           1385       4.9352e+9 
           1395      4.76578e+9 
           1405      4.73539e+9 
           1415      4.70144e+9 
           1425      4.64589e+9 
           1435      4.59033e+9 
           1442      4.55402e+9 
           1447      4.51811e+9 
           1455      4.45931e+9 
           1465      4.39109e+9 
           1475      4.32777e+9 
           1485      4.25857e+9 
           1495      4.19539e+9 
           1505      4.10988e+9 
           1512      4.07406e+9 
           1517      4.05821e+9 
           1525      3.99728e+9 
           1535      3.89309e+9 
           1545      3.88499e+9 
           1555      3.80465e+9 
           1565      3.78033e+9 
           1575      3.74022e+9 
           1585      3.68718e+9 
           1595      3.64316e+9 
           1605      3.55827e+9 
           1615      3.50698e+9 
           1625      3.48321e+9 
           1635      3.44228e+9 
           1645      3.38246e+9 
           1655      3.34171e+9 
           1665      3.31025e+9 
           1672       3.2272e+9 
           1677      3.25755e+9 
           1685      3.22245e+9 
           1695      3.17037e+9 
           1705      3.11982e+9 
           1715      3.06574e+9 
           1725      3.02915e+9 
           1735      2.99897e+9 
           1745       2.9548e+9 
           1755      2.92746e+9 
           1765      2.84165e+9 
           1775      2.83747e+9 
           1785       2.8047e+9 
           1795      2.77751e+9 
           1805      2.74081e+9 
           1815      2.69914e+9 
           1825      2.67077e+9 
           1835      2.63592e+9 
           1845      2.57943e+9 
           1855      2.51392e+9 
           1865      2.49375e+9 
           1875      2.49637e+9 
           1885      2.43549e+9 
           1895      2.37901e+9 
           1905      2.39459e+9 
           1915      2.33451e+9 
           1925      2.30574e+9 
           1935      2.29485e+9 
           1945      2.28177e+9 
           1955      2.22389e+9 
           1967      2.22225e+9 
           1976      2.20794e+9 
           1984      2.17007e+9 
           1995       2.1216e+9 
           2005       2.1241e+9 
           2015      2.10586e+9 
           2025      2.08575e+9 
           2035      2.05366e+9 
           2045      2.02903e+9 
           2055      1.97561e+9 
           2065      1.96739e+9 
           2074       1.9676e+9 
           2078      1.93526e+9 
           2085      1.93607e+9 
           2095      1.90261e+9 
           2105      1.89256e+9 
           2115      1.87429e+9 
           2125      1.85669e+9 
           2135      1.83405e+9 
           2145      1.81019e+9 
           2155      1.79254e+9 
           2165      1.77119e+9 
           2175      1.75056e+9 
           2185      1.73197e+9 
           2195      1.71365e+9 
           2205      1.69341e+9 
           2215      1.67386e+9 
           2225      1.65375e+9 
           2235       1.6371e+9 
           2245      1.61955e+9 
           2255      1.60041e+9 
           2265      1.58403e+9 
           2275       1.5662e+9 
           2285      1.55007e+9 
           2295       1.5273e+9 
           2305      1.51563e+9 
           2315      1.49828e+9 
           2325      1.48291e+9 
           2335      1.46332e+9 
           2345      1.44334e+9 
           2355      1.43477e+9 
           2365      1.41606e+9 
           2375      1.40316e+9 
           2385      1.38321e+9 
           2395       1.3707e+9 
           2405      1.35717e+9 
           2415      1.34208e+9 
           2425      1.33225e+9 
           2435      1.31701e+9 
           2445      1.30349e+9 
           2455       1.2912e+9 
           2465      1.27665e+9 
           2475      1.26408e+9 
           2485      1.25094e+9 
           2495      1.23052e+9 
           2505      1.22546e+9 
           2513      1.21266e+9 
           2518      1.20856e+9 
           2525      1.19933e+9 
           2535      1.18596e+9 
           2545      1.17317e+9 
           2555      1.16481e+9 
           2565      1.15134e+9 
           2575      1.14184e+9 
           2585      1.13009e+9 
           2595      1.11849e+9 
           2605      1.11397e+9 
           2615      1.10398e+9 
           2625      1.09318e+9 
           2635      1.07926e+9 
           2645      1.07165e+9 
           2655      1.05991e+9 
           2665      1.04793e+9 
           2675       1.0379e+9 
           2685      1.03311e+9 
           2695      1.01675e+9 
           2705      1.01295e+9 
           2715      1.00289e+9 
           2725      9.86466e+8 
           2735      9.83798e+8 
           2745      9.70494e+8 
           2755      9.61923e+8 
           2765      9.48571e+8 
           2775      9.46933e+8 
           2785      9.37716e+8 
           2795      9.15779e+8 
           2805       9.1381e+8 
           2815      9.11703e+8 
           2825       8.9563e+8 
           2835       8.9087e+8 
           2845      8.86107e+8 
           2855       8.7797e+8 
           2865       8.6997e+8 
           2875      8.61786e+8 
           2885      8.53876e+8 
           2895      8.46054e+8 
           2910      8.34418e+8 
           2930      8.18809e+8 
           2950      8.00039e+8 
           2970      7.89941e+8 
           2990        7.757e+8 
           3010      7.62016e+8 
           3030      7.48543e+8 
           3050      7.35356e+8 
           3070      7.22489e+8 
           3090      7.09813e+8 
           3110      6.97558e+8 
           3130      6.86172e+8 
           3150      6.74373e+8 
           3170      6.62592e+8 
           3190      6.47164e+8 
           3210      6.40258e+8 
           3230      6.29393e+8 
           3250      6.18781e+8 
           3270      6.08981e+8 
           3290      5.98293e+8 
           3310      5.88987e+8 
           3330      5.79317e+8 
           3350      5.69131e+8 
           3370      5.60571e+8 
           3390      5.51485e+8 
           3410      5.42605e+8 
           3430      5.32453e+8 
           3450      5.22689e+8 
           3470      5.15493e+8 
           3490      5.07343e+8 
           3510      5.01028e+8 
           3530      4.93401e+8 
           3550      4.85735e+8 
           3570      4.79628e+8 
           3590       4.7047e+8 
           3610      4.63739e+8 
           3630      4.56013e+8 
           3640       4.5442e+8 
           3650      4.50803e+8 
           3670      4.45315e+8 
           3690      4.30928e+8 
           3710      4.26842e+8 
           3730      4.25364e+8 
           3750      4.84035e+8 
           3770      4.93306e+8 
           3790       5.2331e+8 
           3810       5.5118e+8 
           3830      4.76276e+8 
           3850      5.69091e+8 
           3870      5.71726e+8 
           3890      4.52336e+8 
           3910      5.62651e+8 
           3930      5.53841e+8 
           3950      5.45349e+8 
           3970       4.2143e+8 
           3990      5.24957e+8 
           4010      5.20319e+8 
           4030      4.94291e+8 
           4050      5.09081e+8 
           4070      4.98951e+8 
           4090      4.62621e+8 
           4110      3.98427e+8 
           4130       4.6965e+8 
           4150      4.65397e+8 
           4170      4.61095e+8 
           4190       4.5518e+8 
           4210      4.48081e+8 
           4230      4.41096e+8 
           4250      4.34222e+8 
           4270      4.27188e+8 
           4290      4.20758e+8 
           4310      4.12482e+8 
           4330      3.74963e+8 
           4350      3.39171e+8 
           4370      3.93243e+8 
           4390      3.80618e+8 
           4410      3.83914e+8 
           4430      3.76539e+8 
           4450      3.72573e+8 
           4470      3.53672e+8 
           4490      3.61199e+8 
           4510      3.56243e+8 
           4530      3.50975e+8 
           4550      3.45803e+8 
           4570      3.40745e+8 
           4590      3.35815e+8 
           4610       3.3094e+8 
           4630      3.26154e+8 
           4650      3.21385e+8 
           4670      3.16825e+8 
           4690      3.12313e+8 
           4710      3.04351e+8 
           4730      3.03432e+8 
           4750      2.99096e+8 
           4770      2.94987e+8 
           4790      2.90838e+8 
           4810      2.86568e+8 
           4830      2.81277e+8 
           4850      2.60223e+8 
           4870      2.29927e+8 
           4890       2.6895e+8 
           4910       2.6681e+8 
           4930      2.58511e+8 
           4950      2.60178e+8 
           4970      2.56639e+8 
           4990      2.53164e+8 
           5010      2.47034e+8 
           5030      2.46354e+8 
           5050      2.41615e+8 
           5070      2.39815e+8 
           5090      2.36611e+8 
           5110      2.33464e+8 
           5130      2.30387e+8 
           5150      2.27337e+8 
           5170      2.24356e+8 
           5190      2.21413e+8 
           5210      2.18481e+8 
           5230       2.1567e+8 
           5250      2.12882e+8 
           5270      2.10116e+8 
           5290      2.07413e+8 
           5310      2.04745e+8 
           5330      2.02124e+8 
           5350      1.99523e+8 
           5370      1.97007e+8 
           5390      1.94498e+8 
           5410      1.92045e+8 
           5430      1.89598e+8 
           5450      1.87233e+8 
           5470      1.84884e+8 
           5490      1.82589e+8 
           5510      1.80311e+8 
           5530      1.78073e+8 
           5550      1.75874e+8 
           5570      1.73703e+8 
           5590       1.7157e+8 
           5610      1.69463e+8 
           5630      1.67394e+8 
           5650      1.65337e+8 
           5670      1.63341e+8 
           5690      1.61369e+8 
           5710      1.59431e+8 
           5730      1.57517e+8 
           5750      1.55626e+8 
           5770      1.53768e+8 
           5790      1.51932e+8 
           5810      1.50129e+8 
           5830      1.48347e+8 
           5850      1.46597e+8 
           5870      1.41182e+8 
           5890      1.43092e+8 
           5910        1.415e+8 
           5930       1.3985e+8 
           5950      1.38209e+8 
           5970      1.36619e+8 
           5990      1.35036e+8 
           6010      1.33482e+8 
           6030      1.31945e+8 
           6050      1.30436e+8 
           6070      1.28944e+8 
           6090      1.27479e+8 
           6110       1.2603e+8 
           6130      1.24608e+8 
           6150      1.23201e+8 
           6170       1.2181e+8 
           6190      1.20444e+8 
           6210      1.19093e+8 
           6230      1.17766e+8 
           6250      1.16455e+8 
           6270      1.15167e+8 
           6290      1.13893e+8 
           6310      1.12633e+8 
           6330      1.11395e+8 
           6350      1.10144e+8 
           6370      1.08952e+8 
           6390      1.07772e+8 
           6410      1.06597e+8 
           6430      1.05443e+8 
           6450      1.04301e+8 
           6470       1.0318e+8 
           6490      1.02071e+8 
           6510      1.00956e+8 
           6530      9.94813e+7 
           6550      9.51603e+7 
           6570      8.39533e+7 
           6590      9.58477e+7 
           6610      9.55703e+7 
           6630      9.47032e+7 
           6650      9.37596e+7 
           6670       9.2055e+7 
           6690      9.11014e+7 
           6710      9.08436e+7 
           6730      8.98969e+7 
           6750      8.89598e+7 
           6770      8.80404e+7 
           6790      8.71303e+7 
           6810      8.62294e+7 
           6830      8.53456e+7 
           6850      8.44706e+7 
           6870      8.36043e+7 
           6890      8.27467e+7 
           6910      8.19054e+7 
           6930      8.10725e+7 
           6950      8.02556e+7 
           6970      7.94467e+7 
           6990      7.86381e+7 
           7010      7.78603e+7 
           7030      7.70749e+7 
           7050      7.63047e+7 
           7070      7.44989e+7 
           7090      7.47956e+7 
           7110      7.40535e+7 
           7130      7.33215e+7 
           7150      7.25979e+7 
           7170      7.18732e+7 
           7190      7.11781e+7 
           7210      7.04815e+7 
           7230       6.9775e+7 
           7250      6.91132e+7 
           7270      6.84412e+7 
           7290      6.73332e+7 
           7310      6.71141e+7 
           7330      6.64749e+7 
           7350      6.58353e+7 
           7370      6.52032e+7 
           7390      6.45782e+7 
           7410      6.39611e+7 
           7430      6.33518e+7 
           7450      6.27569e+7 
           7470      6.21614e+7 
           7490      6.15733e+7 
           7510      6.09746e+7 
           7530      6.04173e+7 
           7550      5.98504e+7 
           7570      5.92894e+7 
           7590      5.87347e+7 
           7610       5.8187e+7 
           7630      5.76455e+7 
           7650      5.71108e+7 
           7670      5.65822e+7 
           7690      5.60589e+7 
           7710      5.55416e+7 
           7730       5.5032e+7 
           7750      5.45256e+7 
           7770       5.4015e+7 
           7790       5.3535e+7 
           7810      5.30216e+7 
           7830      5.25655e+7 
           7850       5.2128e+7 
           7870       5.1656e+7 
           7890      5.11681e+7 
           7910      5.07321e+7 
           7930      5.02758e+7 
           7950      4.98211e+7 
           7970      4.93395e+7 
           7990      4.89081e+7 
           8010      4.84475e+7 
           8030      4.80236e+7 
           8050      4.76079e+7 
           8070      4.71918e+7 
           8090      4.67204e+7 
           8110      4.63339e+7 
           8130      4.59677e+7 
           8150      4.55008e+7 
           8170      4.51761e+7 
           8190      4.47479e+7 
           8210       4.4291e+7 
           8230      4.40164e+7 
           8250      4.36516e+7 
           8270      4.31136e+7 
           8290      4.28718e+7 
           8310      4.25173e+7 
           8330      4.21467e+7 
           8350      4.16295e+7 
           8370      4.13329e+7 
           8390      4.10066e+7 
           8410      4.05987e+7 
           8430      4.02011e+7 
           8450      3.97288e+7 
           8470      3.91806e+7 
           8490      3.93422e+7 
           8510      3.82659e+7 
           8530      3.89539e+7 
           8550      3.68605e+7 
           8570      3.89815e+7 
