# Kurucz ODFNEW /NOVER (2003)
# teff = 22000 K (value for the effective temperature for the model. Temperatures are given in K)
# logg = 3 log(cm/s2) (value for Log(G) for the model.)
# meta = -2.5  (value for the Metallicity for the model.)
# lh = 1.25  (l/Hp where l is the  mixing length of the convective element and Hp is the pressure scale height)
# vtur = 2 km/s (Microturbulence velocity)
# alpha = 0.4  (Alpha)
#
# column 1: WAVELENGTH (ANGSTROM), Wavelength in Angstrom
# column 2: FLUX (ERG/CM2/S/A), Flux in erg/cm2/s/A
          147.2     4.63943e-17 
            151     2.75843e-16 
          155.2     1.78237e-15 
          158.8     8.14517e-15 
            162     2.96428e-14 
            166     1.38437e-13 
          170.3     6.67516e-13 
          173.4     1.97313e-12 
          176.8     6.18915e-12 
          180.2     1.85708e-11 
          181.7     2.97562e-11 
          186.1     1.13248e-10 
            191     4.64775e-10 
          193.9      1.03458e-9 
          198.4      3.41197e-9 
          201.8      8.10043e-9 
            205      1.77863e-8 
          210.5      6.48972e-8 
          216.2       2.3041e-7 
          219.8      4.94921e-7 
            223      9.55289e-7 
          226.8      2.03327e-6 
            230      9.83057e-6 
            234      2.32762e-5 
            240      6.41742e-5 
          246.5     0.000182021 
          252.4     0.000450319 
          256.8     0.000823939 
            260      0.00134084 
            264      0.00231921 
          268.5      0.00420645 
          273.5       0.0079559 
          278.5       0.0147176 
            284       0.0281991 
            290        0.055618 
            296        0.106467 
            301        0.178762 
            308        0.351294 
            318        0.928487 
            328         2.24296 
            338         5.13632 
            348         11.1749 
            357         21.6226 
            366         40.4639 
            375          73.117 
            385         136.487 
            395         245.946 
            405         429.659 
            414         692.658 
            422         1038.14 
            430         1529.31 
            441         2548.45 
            451         3955.64 
            460          5767.2 
            470         8608.33 
            480         12608.2 
            490         18155.5 
            500         25712.5 
            506          193297 
            512          546073 
            520          676469 
            530          951292 
            540      1.02871e+6 
            550      1.47167e+6 
            560      1.76784e+6 
            570       2.1479e+6 
            580      2.15231e+6 
            590      2.84641e+6 
            600      3.55947e+6 
            610      4.21105e+6 
            620      4.86308e+6 
            630      5.66679e+6 
            640      6.40652e+6 
            650      7.41662e+6 
            658      8.31223e+6 
            665      9.06502e+6 
            675      1.00709e+7 
            685      1.12812e+7 
            695      1.30296e+7 
            705      1.44241e+7 
            716       1.6308e+7 
            726      1.80361e+7 
            735      1.99186e+7 
            745      2.21045e+7 
            755      2.43363e+7 
            765      2.66384e+7 
            775      2.92784e+7 
            785      3.19755e+7 
            795      3.46786e+7 
            805      3.76988e+7 
            815      4.06906e+7 
            825        4.409e+7 
            835       4.6715e+7 
            845      5.08936e+7 
            855      5.44358e+7 
            865      5.85366e+7 
            875      6.27419e+7 
            885      6.70511e+7 
            895      7.13835e+7 
            905      7.51136e+7 
            915      1.75692e+8 
            925      3.05219e+9 
            935      6.77766e+9 
            945     1.20225e+10 
            955     1.33483e+10 
            965     1.53819e+10 
            975      8.51681e+9 
            985     1.50987e+10 
            995     1.44348e+10 
           1005     1.48767e+10 
           1015     1.43565e+10 
           1025      8.68867e+9 
           1035     1.35049e+10 
           1045     1.49598e+10 
           1055     1.45855e+10 
           1065      1.3619e+10 
           1075     1.40374e+10 
           1085     1.33008e+10 
           1095     1.39167e+10 
           1105     1.33571e+10 
           1115     1.32656e+10 
           1125     1.26105e+10 
           1135     1.30253e+10 
           1145     1.25065e+10 
           1155     1.27131e+10 
           1165     1.25988e+10 
           1175     1.12507e+10 
           1185     1.22023e+10 
           1195     1.15359e+10 
           1205     1.03871e+10 
           1215      6.04615e+9 
           1225     1.09663e+10 
           1235     1.13059e+10 
           1245     1.11192e+10 
           1255     1.09733e+10 
           1265     1.07567e+10 
           1275     1.07747e+10 
           1285     1.05942e+10 
           1295      9.78786e+9 
           1305      9.91228e+9 
           1315      1.0124e+10 
           1325      9.85671e+9 
           1335      9.54514e+9 
           1345      9.61698e+9 
           1355       9.5683e+9 
           1365      9.34815e+9 
           1375      9.21646e+9 
           1385      9.12293e+9 
           1395      8.63659e+9 
           1405       8.6202e+9 
           1415      8.67509e+9 
           1425       8.5699e+9 
           1435      8.47997e+9 
           1442      8.41922e+9 
           1447      8.34998e+9 
           1455      8.24364e+9 
           1465      8.11358e+9 
           1475      7.99788e+9 
           1485      7.87874e+9 
           1495      7.75413e+9 
           1505      7.57426e+9 
           1512      7.51862e+9 
           1517      7.48388e+9 
           1525      7.38531e+9 
           1535      7.15638e+9 
           1545      7.09418e+9 
           1555       6.9487e+9 
           1565       6.9557e+9 
           1575      6.88937e+9 
           1585      6.79147e+9 
           1595      6.70569e+9 
           1605      6.52733e+9 
           1615      6.43259e+9 
           1625      6.39176e+9 
           1635      6.32424e+9 
           1645      6.15263e+9 
           1655       6.1536e+9 
           1665      6.06999e+9 
           1672      5.99245e+9 
           1677      6.00044e+9 
           1685      5.92516e+9 
           1695      5.82123e+9 
           1705      5.72619e+9 
           1715      5.61516e+9 
           1725      5.55315e+9 
           1735      5.49458e+9 
           1745      5.41212e+9 
           1755       5.3604e+9 
           1765       5.2211e+9 
           1775      5.17559e+9 
           1785      5.12734e+9 
           1795      5.07564e+9 
           1805      5.01978e+9 
           1815      4.92837e+9 
           1825      4.87077e+9 
           1835      4.80642e+9 
           1845      4.66957e+9 
           1855      4.55805e+9 
           1865      4.53833e+9 
           1875      4.53613e+9 
           1885      4.38719e+9 
           1895      4.26926e+9 
           1905      4.32141e+9 
           1915       4.1977e+9 
           1925      4.13611e+9 
           1935      4.13472e+9 
           1945      4.11581e+9 
           1955       3.9714e+9 
           1967      3.99661e+9 
           1976      3.98508e+9 
           1984      3.89367e+9 
           1995       3.7898e+9 
           2005      3.81488e+9 
           2015      3.79204e+9 
           2025      3.75818e+9 
           2035      3.68285e+9 
           2045      3.63566e+9 
           2055      3.53319e+9 
           2065      3.49684e+9 
           2074       3.5234e+9 
           2078      3.45201e+9 
           2085      3.45677e+9 
           2095       3.3854e+9 
           2105      3.37941e+9 
           2115      3.35056e+9 
           2125      3.32118e+9 
           2135      3.27725e+9 
           2145      3.22654e+9 
           2155      3.19748e+9 
           2165      3.16053e+9 
           2175      3.11943e+9 
           2185      3.08361e+9 
           2195      3.04924e+9 
           2205      3.01196e+9 
           2215      2.97592e+9 
           2225      2.93835e+9 
           2235      2.90208e+9 
           2245      2.87113e+9 
           2255      2.83416e+9 
           2265      2.80339e+9 
           2275      2.77021e+9 
           2285      2.73837e+9 
           2295      2.68237e+9 
           2305      2.67347e+9 
           2315      2.64065e+9 
           2325      2.61046e+9 
           2335      2.57709e+9 
           2345      2.54899e+9 
           2355      2.52189e+9 
           2365      2.49212e+9 
           2375       2.4629e+9 
           2385      2.43381e+9 
           2395       2.4065e+9 
           2405      2.37943e+9 
           2415       2.3504e+9 
           2425      2.32663e+9 
           2435      2.29899e+9 
           2445      2.27379e+9 
           2455       2.2488e+9 
           2465      2.22334e+9 
           2475      2.19834e+9 
           2485      2.17354e+9 
           2495      2.11373e+9 
           2505      2.12517e+9 
           2513      2.10008e+9 
           2518       2.0927e+9 
           2525      2.07804e+9 
           2535      2.05535e+9 
           2545       2.0244e+9 
           2555      2.00974e+9 
           2565      1.98722e+9 
           2575      1.96767e+9 
           2585      1.94622e+9 
           2595      1.92521e+9 
           2605      1.91812e+9 
           2615      1.89725e+9 
           2625      1.87478e+9 
           2635      1.84967e+9 
           2645      1.83227e+9 
           2655      1.81117e+9 
           2665      1.79034e+9 
           2675      1.77039e+9 
           2685      1.76079e+9 
           2695      1.73104e+9 
           2705      1.72362e+9 
           2715      1.70548e+9 
           2725      1.67604e+9 
           2735       1.6695e+9 
           2745      1.65135e+9 
           2755      1.63447e+9 
           2765      1.60597e+9 
           2775      1.60156e+9 
           2785      1.58483e+9 
           2795      1.55615e+9 
           2805      1.54804e+9 
           2815      1.53659e+9 
           2825       1.5084e+9 
           2835      1.49947e+9 
           2845      1.49002e+9 
           2855      1.47484e+9 
           2865      1.45997e+9 
           2875      1.44523e+9 
           2885      1.43079e+9 
           2895      1.41634e+9 
           2910      1.39501e+9 
           2930      1.36721e+9 
           2950      1.33259e+9 
           2970       1.3141e+9 
           2990      1.28828e+9 
           3010      1.26319e+9 
           3030      1.23902e+9 
           3050      1.21521e+9 
           3070      1.19196e+9 
           3090      1.16837e+9 
           3110      1.14708e+9 
           3130      1.12659e+9 
           3150      1.10511e+9 
           3170      1.08416e+9 
           3190      1.05639e+9 
           3210      1.04433e+9 
           3230      1.02498e+9 
           3250      1.00605e+9 
           3270      9.88779e+8 
           3290      9.69519e+8 
           3310      9.53368e+8 
           3330      9.36243e+8 
           3350      9.17847e+8 
           3370      9.03137e+8 
           3390      8.87136e+8 
           3410      8.71511e+8 
           3430      8.52123e+8 
           3450      8.34328e+8 
           3470       8.2236e+8 
           3490      8.08941e+8 
           3510      7.99259e+8 
           3530      7.85905e+8 
           3550       7.7268e+8 
           3570      7.62421e+8 
           3590      7.46087e+8 
           3610      7.34114e+8 
           3630      7.21015e+8 
           3640      7.18878e+8 
           3650      7.11325e+8 
           3670      7.01468e+8 
           3690      6.77366e+8 
           3710      6.76105e+8 
           3730      6.77484e+8 
           3750      7.43225e+8 
           3770      7.42438e+8 
           3790      7.56103e+8 
           3810      7.80315e+8 
           3830      7.01355e+8 
           3850      7.82764e+8 
           3870      7.69739e+8 
           3890      6.73114e+8 
           3910      7.54218e+8 
           3930      7.38072e+8 
           3950      7.29748e+8 
           3970      6.25106e+8 
           3990      7.04683e+8 
           4010      6.91838e+8 
           4030      6.65874e+8 
           4050      6.73898e+8 
           4070      6.62152e+8 
           4090       6.3718e+8 
           4110      5.72651e+8 
           4130      6.25604e+8 
           4150      6.16635e+8 
           4170       6.0989e+8 
           4190      6.01635e+8 
           4210      5.92234e+8 
           4230      5.82899e+8 
           4250       5.7363e+8 
           4270      5.64219e+8 
           4290      5.55839e+8 
           4310      5.46859e+8 
           4330      5.20058e+8 
           4350       4.7961e+8 
           4370      5.21668e+8 
           4390      5.06799e+8 
           4410       5.0632e+8 
           4430      4.97074e+8 
           4450      4.91342e+8 
           4470      4.71833e+8 
           4490      4.76572e+8 
           4510      4.69576e+8 
           4530      4.62575e+8 
           4550      4.55587e+8 
           4570      4.48794e+8 
           4590      4.42245e+8 
           4610      4.35811e+8 
           4630      4.29453e+8 
           4650      4.22683e+8 
           4670      4.16928e+8 
           4690      4.10794e+8 
           4710      4.00825e+8 
           4730      3.99177e+8 
           4750      3.93368e+8 
           4770      3.87907e+8 
           4790      3.82392e+8 
           4810      3.76923e+8 
           4830      3.71321e+8 
           4850       3.5651e+8 
           4870      3.23995e+8 
           4890      3.55538e+8 
           4910      3.51194e+8 
           4930      3.41205e+8 
           4950      3.41513e+8 
           4970      3.36833e+8 
           4990      3.32201e+8 
           5010      3.24526e+8 
           5030      3.23172e+8 
           5050      3.17101e+8 
           5070      3.14443e+8 
           5090      3.10188e+8 
           5110      3.06005e+8 
           5130      3.01891e+8 
           5150      2.97832e+8 
           5170      2.93869e+8 
           5190      2.89959e+8 
           5210      2.86099e+8 
           5230      2.82331e+8 
           5250      2.78612e+8 
           5270      2.74955e+8 
           5290      2.71359e+8 
           5310      2.67822e+8 
           5330      2.64331e+8 
           5350      2.60897e+8 
           5370      2.57533e+8 
           5390      2.54212e+8 
           5410      2.50946e+8 
           5430      2.47734e+8 
           5450      2.44574e+8 
           5470      2.41467e+8 
           5490      2.38411e+8 
           5510      2.35393e+8 
           5530      2.32437e+8 
           5550      2.29517e+8 
           5570      2.26633e+8 
           5590      2.23809e+8 
           5610      2.21019e+8 
           5630      2.18275e+8 
           5650      2.15564e+8 
           5670      2.12909e+8 
           5690      2.10275e+8 
           5710      2.07718e+8 
           5730      2.05181e+8 
           5750      2.02662e+8 
           5770      2.00218e+8 
           5790      1.97792e+8 
           5810      1.95406e+8 
           5830      1.93048e+8 
           5850       1.9074e+8 
           5870      1.84107e+8 
           5890      1.86171e+8 
           5910      1.83996e+8 
           5930      1.81803e+8 
           5950      1.79657e+8 
           5970      1.77547e+8 
           5990       1.7545e+8 
           6010      1.73397e+8 
           6030      1.71368e+8 
           6050      1.69373e+8 
           6070       1.6741e+8 
           6090      1.65469e+8 
           6110       1.6356e+8 
           6130      1.61672e+8 
           6150      1.59816e+8 
           6170      1.57989e+8 
           6190      1.56184e+8 
           6210      1.54407e+8 
           6230      1.52651e+8 
           6250      1.50923e+8 
           6270      1.49214e+8 
           6290      1.47534e+8 
           6310      1.45881e+8 
           6330      1.44246e+8 
           6350      1.42629e+8 
           6370      1.41048e+8 
           6390      1.39483e+8 
           6410      1.37945e+8 
           6430      1.36423e+8 
           6450      1.34917e+8 
           6470      1.33436e+8 
           6490      1.31971e+8 
           6510       1.3053e+8 
           6530      1.29034e+8 
           6550      1.25797e+8 
           6570       1.1401e+8 
           6590      1.24596e+8 
           6610      1.23619e+8 
           6630      1.22291e+8 
           6650      1.21063e+8 
           6670      1.18898e+8 
           6690       1.1765e+8 
           6710      1.17234e+8 
           6730      1.15989e+8 
           6750      1.14766e+8 
           6770      1.13554e+8 
           6790      1.12355e+8 
           6810      1.11176e+8 
           6830      1.10017e+8 
           6850      1.08862e+8 
           6870      1.07734e+8 
           6890       1.0661e+8 
           6910      1.05512e+8 
           6930       1.0441e+8 
           6950      1.03342e+8 
           6970      1.02284e+8 
           6990      1.01222e+8 
           7010        1.002e+8 
           7030      9.91812e+7 
           7050      9.81721e+7 
           7070      9.57257e+7 
           7090      9.61907e+7 
           7110       9.5218e+7 
           7130      9.42622e+7 
           7150      9.33156e+7 
           7170      9.23633e+7 
           7190      9.14567e+7 
           7210      9.05442e+7 
           7230      8.95971e+7 
           7250      8.87523e+7 
           7270      8.78797e+7 
           7290      8.63419e+7 
           7310       8.6138e+7 
           7330       8.5304e+7 
           7350      8.44708e+7 
           7370      8.36454e+7 
           7390      8.28276e+7 
           7410      8.20243e+7 
           7430      8.12285e+7 
           7450      8.04536e+7 
           7470       7.9679e+7 
           7490      7.89116e+7 
           7510      7.81245e+7 
           7530      7.74044e+7 
           7550      7.66644e+7 
           7570      7.59311e+7 
           7590       7.5211e+7 
           7610       7.4491e+7 
           7630      7.37904e+7 
           7650      7.30896e+7 
           7670      7.24015e+7 
           7690      7.17196e+7 
           7710      7.10438e+7 
           7730      7.03867e+7 
           7750      6.97165e+7 
           7770       6.9071e+7 
           7790      6.84375e+7 
           7810      6.77477e+7 
           7830      6.71747e+7 
           7850       6.6625e+7 
           7870       6.6007e+7 
           7890      6.53641e+7 
           7910       6.4757e+7 
           7930      6.40654e+7 
           7950      6.34633e+7 
           7970      6.28427e+7 
           7990      6.23101e+7 
           8010      6.17351e+7 
           8030      6.12118e+7 
           8050      6.06871e+7 
           8070      6.01842e+7 
           8090      5.95244e+7 
           8110      5.90364e+7 
           8130      5.86095e+7 
           8150      5.79592e+7 
           8170      5.75742e+7 
           8190      5.70126e+7 
           8210      5.63718e+7 
           8230      5.60537e+7 
           8250      5.55608e+7 
           8270      5.47835e+7 
           8290      5.45041e+7 
           8310      5.40446e+7 
           8330      5.35606e+7 
           8350      5.28467e+7 
           8370      5.24385e+7 
           8390      5.20485e+7 
           8410      5.15515e+7 
           8430      5.10665e+7 
           8450      5.04167e+7 
           8470      4.97976e+7 
           8490      5.00734e+7 
           8510      4.86902e+7 
           8530      4.95034e+7 
           8550      4.71365e+7 
           8570      4.94527e+7 
