# Kurucz ODFNEW /NOVER (2003)
# teff = 8500 K (value for the effective temperature for the model. Temperatures are given in K)
# logg = 5 log(cm/s2) (value for Log(G) for the model.)
# meta = 0.5  (value for the Metallicity for the model.)
# lh = 1.25  (l/Hp where l is the  mixing length of the convective element and Hp is the pressure scale height)
# vtur = 2 km/s (Microturbulence velocity)
# alpha = 0  (Alpha)
#
# column 1: WAVELENGTH (ANGSTROM), Wavelength in Angstrom
# column 2: FLUX (ERG/CM2/S/A), Flux in erg/cm2/s/A
            318     1.48246e-22 
            328     1.73377e-21 
            338     1.70624e-20 
            348     1.46484e-19 
            357     9.11843e-19 
            366     5.17161e-18 
            375     2.69075e-17 
            385     1.53119e-16 
            395     7.95255e-16 
            405     3.79566e-15 
            414     1.44895e-14 
            422     4.53406e-14 
            430     8.31596e-15 
            441     3.20687e-14 
            451     1.02807e-13 
            460     2.79966e-13 
            470     8.11904e-13 
            480      2.2437e-12 
            490     5.92992e-12 
            500     1.50097e-11 
            506     3.39097e-11 
            512     6.47374e-11 
            520     1.27244e-10 
            530     2.89058e-10 
            540     6.22999e-10 
            550      1.32472e-9 
            560      2.71567e-9 
            570      5.40918e-9 
            580      1.03582e-8 
            590      1.98311e-8 
            600      3.66055e-8 
            610      6.62623e-8 
            620      1.17106e-7 
            630      2.02878e-7 
            640      3.44547e-7 
            650      5.75607e-7 
            658      8.56213e-7 
            665        1.197e-6 
            675      1.91753e-6 
            685      3.02355e-6 
            695      4.69616e-6 
            705       7.1215e-6 
            716      1.12845e-5 
            726       1.6791e-5 
            735      2.37471e-5 
            745      3.44702e-5 
            755      4.95272e-5 
            765      7.04503e-5 
            775      9.91273e-5 
            785     0.000138385 
            795     0.000188184 
            805      0.00025834 
            815     0.000352627 
            825     0.000473751 
            835     0.000630994 
            845      0.00083421 
            855      0.00109418 
            865      0.00142429 
            875       0.0018272 
            885      0.00236069 
            895      0.00301045 
            905      0.00377941 
            915         0.77706 
            925         2.33432 
            935         3.01819 
            945         3.93007 
            955         5.24515 
            965         6.65893 
            975          8.1003 
            985         10.1173 
            995         12.2365 
           1005         15.7816 
           1015         19.3973 
           1025         22.6782 
           1035         28.5885 
           1045         34.7432 
           1055         41.9842 
           1065          49.915 
           1075         60.5375 
           1085          72.701 
           1095         85.4771 
           1105         209.276 
           1115         605.809 
           1125         852.595 
           1135         1173.21 
           1145         1444.27 
           1155         1580.29 
           1165         2113.19 
           1175         2503.79 
           1185         2653.13 
           1195            1826 
           1205         2315.57 
           1215         699.548 
           1225         2677.93 
           1235         4569.98 
           1245         8827.96 
           1255         19999.6 
           1265         17722.2 
           1275         24991.3 
           1285         32532.1 
           1295         37683.6 
           1305         31887.7 
           1315         43643.9 
           1325         49498.1 
           1335         53547.2 
           1345         63360.1 
           1355         64211.4 
           1365         69323.6 
           1375           74506 
           1385         78418.5 
           1395         88292.2 
           1405         97196.5 
           1415         99447.6 
           1425          109893 
           1435          110434 
           1442          126163 
           1447          132909 
           1455          145650 
           1465          146902 
           1475          158733 
           1485          172987 
           1495          191161 
           1505          207706 
           1512          208968 
           1517          224585 
           1525          250632 
           1535          353542 
           1545          551736 
           1555          579952 
           1565          552137 
           1575          864012 
           1585      1.22987e+6 
           1595      1.50276e+6 
           1605      1.67201e+6 
           1615      1.75017e+6 
           1625       1.4318e+6 
           1635      2.20945e+6 
           1645      4.65826e+6 
           1655      2.20768e+6 
           1665      4.66865e+6 
           1672       2.4615e+6 
           1677      7.05615e+6 
           1685       1.0772e+7 
           1695      5.63686e+6 
           1705      8.12897e+6 
           1715      1.43021e+7 
           1725      1.55813e+7 
           1735      2.19751e+7 
           1745      2.06216e+7 
           1755      2.76882e+7 
           1765      1.53873e+7 
           1775      2.46798e+7 
           1785      2.58572e+7 
           1795      3.47589e+7 
           1805      2.68877e+7 
           1815      2.75209e+7 
           1825      2.45394e+7 
           1835      2.25116e+7 
           1845      1.82465e+7 
           1855      2.39929e+7 
           1865      3.05036e+7 
           1875      2.85342e+7 
           1885       2.9688e+7 
           1895      3.20664e+7 
           1905      2.86931e+7 
           1915      3.25034e+7 
           1925       2.9748e+7 
           1935      1.86502e+7 
           1945      3.38218e+7 
           1955      3.49384e+7 
           1967      3.97139e+7 
           1976       3.8253e+7 
           1984      3.51591e+7 
           1995      3.56584e+7 
           2005      3.13293e+7 
           2015      3.12408e+7 
           2025      2.84874e+7 
           2035      3.45124e+7 
           2045      3.79529e+7 
           2055      3.56745e+7 
           2065      3.43235e+7 
           2074      4.06737e+7 
           2078      4.49214e+7 
           2085      4.23411e+7 
           2095      3.85542e+7 
           2105      3.48645e+7 
           2115      3.64356e+7 
           2125      3.81933e+7 
           2135      2.99501e+7 
           2145      3.71209e+7 
           2155      3.70246e+7 
           2165      3.30577e+7 
           2175      3.29121e+7 
           2185      3.66927e+7 
           2195      3.94461e+7 
           2205      3.64849e+7 
           2215      3.09617e+7 
           2225      3.09115e+7 
           2235      3.78228e+7 
           2245      3.37343e+7 
           2255      2.97396e+7 
           2265      2.94893e+7 
           2275      3.25455e+7 
           2285      3.57982e+7 
           2295      3.10194e+7 
           2305      3.29539e+7 
           2315      3.11789e+7 
           2325      3.01244e+7 
           2335      2.51608e+7 
           2345       1.9616e+7 
           2355      2.97551e+7 
           2365      2.07082e+7 
           2375      2.48427e+7 
           2385      1.75986e+7 
           2395      2.13157e+7 
           2405      2.08366e+7 
           2415       2.1437e+7 
           2425      2.80608e+7 
           2435      2.63872e+7 
           2445      2.96631e+7 
           2455      2.96882e+7 
           2465      2.94131e+7 
           2475      2.64637e+7 
           2485      2.64726e+7 
           2495      2.47618e+7 
           2505      3.26844e+7 
           2513      2.47865e+7 
           2518      2.47345e+7 
           2525      2.16892e+7 
           2535      2.03694e+7 
           2545      1.81576e+7 
           2555      2.12867e+7 
           2565      2.15792e+7 
           2575      2.71907e+7 
           2585      2.78213e+7 
           2595      2.70233e+7 
           2605      2.46616e+7 
           2615      2.29644e+7 
           2625       2.9227e+7 
           2635      3.06659e+7 
           2645        3.799e+7 
           2655      4.02397e+7 
           2665      3.11155e+7 
           2675      3.54921e+7 
           2685      3.52424e+7 
           2695      3.16694e+7 
           2705      3.45244e+7 
           2715      3.04855e+7 
           2725      3.12053e+7 
           2735      3.45538e+7 
           2745      2.39631e+7 
           2755      2.63298e+7 
           2765      2.88228e+7 
           2775      3.32346e+7 
           2785      2.73951e+7 
           2795      1.24993e+7 
           2805      1.63815e+7 
           2815       3.4111e+7 
           2825      3.92032e+7 
           2835      3.67133e+7 
           2845       3.4358e+7 
           2855      2.97694e+7 
           2865      3.69802e+7 
           2875      3.62057e+7 
           2885      3.59922e+7 
           2895      3.40912e+7 
           2910      4.10629e+7 
           2930       3.7866e+7 
           2950      3.77773e+7 
           2970      4.01509e+7 
           2990      4.00901e+7 
           3010      4.12036e+7 
           3030      4.05269e+7 
           3050      4.03527e+7 
           3070       4.1043e+7 
           3090      4.16655e+7 
           3110      4.02199e+7 
           3130      3.98998e+7 
           3150      4.10995e+7 
           3170      4.06462e+7 
           3190      3.75504e+7 
           3210      3.90948e+7 
           3230      3.65828e+7 
           3250      3.86591e+7 
           3270      4.00338e+7 
           3290      3.98583e+7 
           3310       4.0757e+7 
           3330      3.97321e+7 
           3350      3.90912e+7 
           3370      3.82903e+7 
           3390      3.86003e+7 
           3410      3.84988e+7 
           3430      3.83873e+7 
           3450      3.83487e+7 
           3470      3.78516e+7 
           3490      3.79077e+7 
           3510      3.86175e+7 
           3530       3.8027e+7 
           3550      3.93903e+7 
           3570      3.70022e+7 
           3590      3.65619e+7 
           3610      3.66869e+7 
           3630      3.68698e+7 
           3640      3.63093e+7 
           3650      3.85368e+7 
           3670      3.80704e+7 
           3690      3.70612e+7 
           3710      3.63726e+7 
           3730      3.40286e+7 
           3750      3.76796e+7 
           3770      3.94703e+7 
           3790       4.7041e+7 
           3810      5.42875e+7 
           3830      4.30767e+7 
           3850      6.02335e+7 
           3870      6.81775e+7 
           3890      4.03366e+7 
           3910      6.79577e+7 
           3930      5.77111e+7 
           3950       6.6907e+7 
           3970      3.71115e+7 
           3990      6.77162e+7 
           4010      7.97593e+7 
           4030      8.08021e+7 
           4050        7.934e+7 
           4070      7.42683e+7 
           4090      5.69798e+7 
           4110       4.4089e+7 
           4130      7.04873e+7 
           4150      7.76449e+7 
           4170      7.85766e+7 
           4190      7.80235e+7 
           4210      7.81767e+7 
           4230      7.51231e+7 
           4250      7.62323e+7 
           4270      7.13565e+7 
           4290      7.24265e+7 
           4310      6.42521e+7 
           4330      4.86863e+7 
           4350      4.16239e+7 
           4370      6.51572e+7 
           4390      6.90374e+7 
           4410      6.89976e+7 
           4430      6.72012e+7 
           4450      6.96462e+7 
           4470      6.96145e+7 
           4490       6.8123e+7 
           4510      7.09615e+7 
           4530      6.77606e+7 
           4550      6.69879e+7 
           4570      6.90094e+7 
           4590      6.60632e+7 
           4610      6.71044e+7 
           4630      6.50392e+7 
           4650      6.54252e+7 
           4670       6.5405e+7 
           4690      6.18579e+7 
           4710       5.8513e+7 
           4730      6.27358e+7 
           4750      6.23655e+7 
           4770      6.10803e+7 
           4790      6.00673e+7 
           4810      5.77369e+7 
           4830      5.36683e+7 
           4850      4.01882e+7 
           4870      3.23216e+7 
           4890      4.95345e+7 
           4910      5.39589e+7 
           4930      5.41311e+7 
           4950      5.56842e+7 
           4970      5.61413e+7 
           4990      5.37995e+7 
           5010      5.18098e+7 
           5030      5.33195e+7 
           5050      5.21313e+7 
           5070      5.33667e+7 
           5090      5.24726e+7 
           5110      5.25417e+7 
           5130      5.13354e+7 
           5150      4.99261e+7 
           5170      4.88317e+7 
           5190      4.82868e+7 
           5210      4.87384e+7 
           5230      4.82397e+7 
           5250      4.88665e+7 
           5270      4.51011e+7 
           5290      4.76416e+7 
           5310      4.69868e+7 
           5330      4.44309e+7 
           5350      4.62065e+7 
           5370      4.57911e+7 
           5390      4.52924e+7 
           5410      4.38435e+7 
           5430      4.44922e+7 
           5450      4.46355e+7 
           5470      4.39912e+7 
           5490      4.34962e+7 
           5510      4.33535e+7 
           5530      4.27904e+7 
           5550      4.26722e+7 
           5570      4.19753e+7 
           5590      4.14464e+7 
           5610      4.14578e+7 
           5630      4.13765e+7 
           5650      4.08693e+7 
           5670      4.00671e+7 
           5690      4.00594e+7 
           5710      3.96799e+7 
           5730      4.00757e+7 
           5750      3.91286e+7 
           5770      3.90106e+7 
           5790      3.85359e+7 
           5810      3.83402e+7 
           5830      3.81452e+7 
           5850      3.76129e+7 
           5870      3.72959e+7 
           5890      3.63035e+7 
           5910      3.66417e+7 
           5930      3.63178e+7 
           5950      3.59655e+7 
           5970      3.57176e+7 
           5990      3.52159e+7 
           6010      3.45647e+7 
           6030      3.44954e+7 
           6050      3.43274e+7 
           6070       3.4259e+7 
           6090      3.37804e+7 
           6110      3.33154e+7 
           6130      3.26101e+7 
           6150      3.18655e+7 
           6170      3.18156e+7 
           6190      3.23723e+7 
           6210      3.20909e+7 
           6230      3.15668e+7 
           6250      3.06186e+7 
           6270      3.13206e+7 
           6290      3.10741e+7 
           6310        3.041e+7 
           6330      3.02548e+7 
           6350      2.96123e+7 
           6370      2.95075e+7 
           6390      2.95094e+7 
           6410      2.89175e+7 
           6430      2.88719e+7 
           6450      2.81163e+7 
           6470      2.81281e+7 
           6490      2.74443e+7 
           6510      2.69826e+7 
           6530      2.55188e+7 
           6550      2.13863e+7 
           6570      1.71394e+7 
           6590      2.36492e+7 
           6610      2.55946e+7 
           6630      2.60901e+7 
           6650      2.61464e+7 
           6670      2.59619e+7 
           6690      2.59702e+7 
           6710      2.57679e+7 
           6730      2.55734e+7 
           6750      2.51318e+7 
           6770      2.52622e+7 
           6790      2.50335e+7 
           6810      2.48225e+7 
           6830      2.45675e+7 
           6850      2.43376e+7 
           6870       2.4252e+7 
           6890       2.4059e+7 
           6910      2.38426e+7 
           6930      2.36157e+7 
           6950      2.34574e+7 
           6970      2.32291e+7 
           6990      2.31087e+7 
           7010      2.25462e+7 
           7030      2.26056e+7 
           7050      2.24836e+7 
           7070       2.2331e+7 
           7090       2.2158e+7 
           7110      2.13933e+7 
           7130      2.15988e+7 
           7150      2.14767e+7 
           7170      2.12764e+7 
           7190      2.10605e+7 
           7210      2.10127e+7 
           7230      2.08231e+7 
           7250      2.05421e+7 
           7270      2.05839e+7 
           7290      2.02237e+7 
           7310      2.02034e+7 
           7330      2.00422e+7 
           7350      1.99723e+7 
           7370      1.98127e+7 
           7390      1.95056e+7 
           7410      1.92406e+7 
           7430      1.90006e+7 
           7450      1.89809e+7 
           7470      1.87308e+7 
           7490      1.86981e+7 
           7510      1.86674e+7 
           7530      1.85485e+7 
           7550      1.84946e+7 
           7570      1.83043e+7 
           7590      1.81936e+7 
           7610      1.80265e+7 
           7630       1.7916e+7 
           7650      1.77272e+7 
           7670      1.74312e+7 
           7690      1.73515e+7 
           7710      1.72971e+7 
           7730      1.72234e+7 
           7750      1.70224e+7 
           7770      1.64962e+7 
           7790      1.68884e+7 
           7810      1.67118e+7 
           7830      1.64717e+7 
           7850      1.62827e+7 
           7870      1.61928e+7 
           7890      1.60127e+7 
           7910      1.58716e+7 
           7930      1.57042e+7 
           7950      1.55729e+7 
           7970      1.57552e+7 
           7990      1.54108e+7 
           8010      1.54626e+7 
           8030      1.52846e+7 
           8050      1.52256e+7 
           8070      1.51085e+7 
           8090       1.4981e+7 
           8110      1.49455e+7 
           8130      1.48755e+7 
           8150      1.47584e+7 
           8170       1.4654e+7 
           8190      1.42298e+7 
           8210      1.41377e+7 
           8230      1.40479e+7 
           8250      1.40109e+7 
           8270      1.41674e+7 
           8290      1.40344e+7 
           8310      1.38731e+7 
           8330      1.36475e+7 
           8350      1.37076e+7 
           8370      1.36937e+7 
           8390      1.35424e+7 
           8410       1.3502e+7 
           8430      1.33399e+7 
           8450      1.29946e+7 
           8470      1.31229e+7 
           8490      1.29916e+7 
           8510      1.25202e+7 
           8530      1.28079e+7 
           8550      1.15406e+7 
           8570      1.27969e+7 
           8590      1.23274e+7 
           8610      1.21767e+7 
           8630      1.25639e+7 
           8650      1.21791e+7 
           8670      1.05894e+7 
           8690      1.19116e+7 
           8710      1.23838e+7 
           8730      1.19134e+7 
           8750      1.02672e+7 
           8770      1.14993e+7 
           8790      1.21984e+7 
           8810      1.22198e+7 
           8830      1.17239e+7 
           8850      1.05978e+7 
           8870      9.38892e+6 
           8890      1.12639e+7 
           8910      1.18151e+7 
           8930      1.18865e+7 
           8950      1.20061e+7 
           8970      1.16506e+7 
           8990      1.09658e+7 
           9010      8.90682e+6 
           9030      9.61587e+6 
           9050      1.09975e+7 
           9070      1.11263e+7 
           9090      1.10354e+7 
           9110      1.14024e+7 
           9130      1.14835e+7 
           9150      1.14406e+7 
           9170      1.11546e+7 
           9190      1.06806e+7 
           9210      9.70291e+6 
           9230      7.73156e+6 
           9250      9.28763e+6 
           9270      1.00775e+7 
           9290      1.07238e+7 
           9310      1.08664e+7 
           9330      1.08502e+7 
           9350      1.08637e+7 
