# Kurucz ODFNEW /NOVER (2003)
# teff = 6500 K (value for the effective temperature for the model. Temperatures are given in K)
# logg = 3 log(cm/s2) (value for Log(G) for the model.)
# meta = -4  (value for the Metallicity for the model.)
# lh = 1.25  (l/Hp where l is the  mixing length of the convective element and Hp is the pressure scale height)
# vtur = 2 km/s (Microturbulence velocity)
# alpha = 0.4  (Alpha)
#
# column 1: WAVELENGTH (ANGSTROM), Wavelength in Angstrom
# column 2: FLUX (ERG/CM2/S/A), Flux in erg/cm2/s/A
          147.2     1.73866e-35 
            151     1.65225e-35 
          155.2     1.56403e-35 
          158.8     1.49392e-35 
            162     1.43549e-35 
            166     1.36714e-35 
          170.3     1.29897e-35 
          173.4     1.25294e-35 
          176.8     1.20522e-35 
          180.2     1.16017e-35 
          181.7     1.14109e-35 
          186.1     1.08777e-35 
            191     1.03267e-35 
          193.9     1.00201e-35 
          198.4     9.57076e-36 
          201.8     9.25097e-36 
            205     8.96441e-36 
          210.5     8.50208e-36 
          216.2     8.05969e-36 
          219.8     7.79784e-36 
            223     7.57565e-36 
          226.8     7.32392e-36 
            230     7.12154e-36 
            234     6.88015e-36 
            240     6.54044e-36 
          246.5     6.20006e-36 
          252.4     5.91358e-36 
          256.8     5.71267e-36 
            260     5.57292e-36 
            264     5.40532e-36 
          268.5     5.22566e-36 
          273.5     5.03634e-36 
          278.5     4.85712e-36 
            284     4.67082e-36 
            290     4.47954e-36 
            296     4.29978e-36 
            301     4.15812e-36 
            308     3.97126e-36 
            318     3.72542e-36 
            328     3.50172e-36 
            338      2.0138e-23 
            348     2.61692e-22 
            357      1.9285e-21 
            366     1.27385e-20 
            375     7.65675e-20 
            385     5.07355e-19 
            395     3.04498e-18 
            405     1.66737e-17 
            414     7.16198e-17 
            422     2.47847e-16 
            430     8.17578e-16 
            441      3.9205e-15 
            451     1.52156e-14 
            460     4.89268e-14 
            470     1.69607e-13 
            480     5.57017e-13 
            490     1.73898e-12 
            500     5.17686e-12 
            506     8.77553e-12 
            512     1.77727e-11 
            520      3.9551e-11 
            530     1.05498e-10 
            540     2.62122e-10 
            550     6.50029e-10 
            560      1.53311e-9 
            570      3.50292e-9 
            580      7.63818e-9 
            590      1.67402e-8 
            600      3.51164e-8 
            610     2.45841e-10 
            620      4.6118e-10 
            630     8.46118e-10 
            640      1.52071e-9 
            650      2.67893e-9 
            658      4.15594e-9 
            665      6.04386e-9 
            675      1.01644e-8 
            685      1.68058e-8 
            695      2.73368e-8 
            705      4.37795e-8 
            716      7.22388e-8 
            726      1.12202e-7 
            735       1.6489e-7 
            745      2.49818e-7 
            755      3.73765e-7 
            765      5.52524e-7 
            775      8.07369e-7 
            785      1.16682e-6 
            795      1.66833e-6 
            805       2.3611e-6 
            815      3.30876e-6 
            825      4.59376e-6 
            835      6.32074e-6 
            845      8.62174e-6 
            855      1.16607e-5 
            865      1.56422e-5 
            875      2.08198e-5 
            885      2.75039e-5 
            895      3.60708e-5 
            905      4.69724e-5 
            915        0.077373 
            925        0.276353 
            935        0.409736 
            945        0.621481 
            955        0.889049 
            965        0.982294 
            975        0.708142 
            985         2.02074 
            995         2.49236 
           1005         2.74551 
           1015         1.88163 
           1025         3.29593 
           1035          4.7498 
           1045         7.34709 
           1055         9.40584 
           1065         12.1974 
           1075         14.8178 
           1085         18.1423 
           1095         21.1426 
           1105         24.7202 
           1115         28.6711 
           1125         32.6863 
           1135         36.7832 
           1145         23.2987 
           1155         16.9762 
           1165         13.8556 
           1175         12.1956 
           1185         82.6284 
           1195          67.541 
           1205         64.1026 
           1215         53.6324 
           1225         83.6468 
           1235         120.002 
           1245         24.5429 
           1255          32.037 
           1265         43.3366 
           1275         59.6973 
           1285         87.8999 
           1295         127.329 
           1305          192.12 
           1315         303.065 
           1325         523.671 
           1335         597.639 
           1345         703.385 
           1355         821.284 
           1365         948.706 
           1375         1100.88 
           1385         1266.16 
           1395         1449.03 
           1405         1656.69 
           1415         1873.88 
           1425         2128.33 
           1435         2395.51 
           1442         2610.01 
           1447         2768.15 
           1455         3029.46 
           1465         3379.15 
           1475         3773.48 
           1485         4189.21 
           1495         4670.38 
           1505         5171.37 
           1512         5557.64 
           1517         5783.98 
           1525         6263.21 
           1535          6864.9 
           1545         7486.53 
           1555         8176.25 
           1565          8741.5 
           1575          9614.2 
           1585         10416.1 
           1595         11298.7 
           1605         12214.6 
           1615           13421 
           1625         14865.9 
           1635         16699.8 
           1645         20001.6 
           1655         25629.5 
           1665         58842.2 
           1672          106984 
           1677          181551 
           1685          331692 
           1695          605384 
           1705          928675 
           1715      1.28445e+6 
           1725      1.57421e+6 
           1735      1.84308e+6 
           1745      1.98013e+6 
           1755       2.1778e+6 
           1765      2.23615e+6 
           1775      2.39325e+6 
           1785      2.50887e+6 
           1795      2.68608e+6 
           1805      2.71884e+6 
           1815      2.82825e+6 
           1825      2.88217e+6 
           1835      3.02561e+6 
           1845      2.98105e+6 
           1855      3.17322e+6 
           1865      3.32428e+6 
           1875      3.39961e+6 
           1885      3.49998e+6 
           1895      3.60088e+6 
           1905      3.61373e+6 
           1915      3.79316e+6 
           1925      3.91977e+6 
           1935      3.92282e+6 
           1945      4.09699e+6 
           1955      4.18027e+6 
           1967      4.30576e+6 
           1976      4.29123e+6 
           1984      4.34445e+6 
           1995      4.51249e+6 
           2005      4.53909e+6 
           2015      4.62034e+6 
           2025      4.61928e+6 
           2035      4.84072e+6 
           2045      4.92448e+6 
           2055      4.91833e+6 
           2065      5.00271e+6 
           2074      5.19262e+6 
           2078      5.21714e+6 
           2085      5.22688e+6 
           2095      5.30276e+6 
           2105      5.36022e+6 
           2115      5.47161e+6 
           2125      5.48539e+6 
           2135      5.55264e+6 
           2145      5.68317e+6 
           2155      5.73731e+6 
           2165      5.70323e+6 
           2175      5.81146e+6 
           2185      5.93577e+6 
           2195      6.05641e+6 
           2205      6.03035e+6 
           2215      5.90653e+6 
           2225      6.13352e+6 
           2235       6.3434e+6 
           2245      6.34532e+6 
           2255      6.26753e+6 
           2265      6.21973e+6 
           2275      6.45145e+6 
           2285      6.53797e+6 
           2295      6.52475e+6 
           2305      6.65992e+6 
           2315      6.67856e+6 
           2325      6.72808e+6 
           2335      6.74872e+6 
           2345      6.57797e+6 
           2355      6.91234e+6 
           2365      6.71943e+6 
           2375      6.93399e+6 
           2385      6.63423e+6 
           2395      6.97498e+6 
           2405      7.03434e+6 
           2415      7.08924e+6 
           2425      7.38132e+6 
           2435      7.30874e+6 
           2445       7.4123e+6 
           2455      7.47768e+6 
           2465      7.42705e+6 
           2475      7.43972e+6 
           2485      7.41047e+6 
           2495      7.42381e+6 
           2505      7.66664e+6 
           2513      7.44848e+6 
           2518      7.43795e+6 
           2525      7.39204e+6 
           2535      7.50032e+6 
           2545      7.65496e+6 
           2555      7.90621e+6 
           2565      7.87732e+6 
           2575      7.98841e+6 
           2585      8.05076e+6 
           2595      8.04645e+6 
           2605      7.98257e+6 
           2615      7.98775e+6 
           2625      8.04564e+6 
           2635      8.16863e+6 
           2645      8.47315e+6 
           2655      8.49976e+6 
           2665      8.41488e+6 
           2675      8.47686e+6 
           2685       8.6077e+6 
           2695      8.59218e+6 
           2705      8.65594e+6 
           2715      8.51359e+6 
           2725      8.54863e+6 
           2735      8.61365e+6 
           2745      8.33352e+6 
           2755      8.43196e+6 
           2765      8.66674e+6 
           2775      8.85047e+6 
           2785      8.81568e+6 
           2795      8.13399e+6 
           2805      8.52666e+6 
           2815      9.06236e+6 
           2825      9.08612e+6 
           2835      9.01932e+6 
           2845      9.07238e+6 
           2855      8.89524e+6 
           2865      9.04897e+6 
           2875      9.14747e+6 
           2885      9.11766e+6 
           2895       9.2701e+6 
           2910      9.33048e+6 
           2930      9.28779e+6 
           2950      9.28782e+6 
           2970      9.38055e+6 
           2990      9.41139e+6 
           3010      9.49007e+6 
           3030      9.52605e+6 
           3050      9.59673e+6 
           3070      9.58522e+6 
           3090      9.67973e+6 
           3110      9.72779e+6 
           3130      9.77038e+6 
           3150      9.79136e+6 
           3170      9.82865e+6 
           3190      9.79872e+6 
           3210      9.87333e+6 
           3230      9.79946e+6 
           3250      9.90286e+6 
           3270      1.00016e+7 
           3290      1.00418e+7 
           3310       1.0067e+7 
           3330      1.00351e+7 
           3350      1.00046e+7 
           3370      1.00484e+7 
           3390      1.00662e+7 
           3410      1.01585e+7 
           3430      1.01751e+7 
           3450      1.01585e+7 
           3470      1.01838e+7 
           3490      1.02149e+7 
           3510      1.02392e+7 
           3530      1.02571e+7 
           3550      1.02764e+7 
           3570      1.02485e+7 
           3590       1.0265e+7 
           3610      1.02773e+7 
           3630      1.02959e+7 
           3640      1.03056e+7 
           3650      1.03474e+7 
           3670      1.02875e+7 
           3690      1.00393e+7 
           3710      1.12698e+7 
           3730      1.21008e+7 
           3750      1.45551e+7 
           3770      1.49752e+7 
           3790      1.63254e+7 
           3810      1.78408e+7 
           3830      1.55637e+7 
           3850       1.8692e+7 
           3870      1.94471e+7 
           3890      1.49757e+7 
           3910      1.93824e+7 
           3930      1.93942e+7 
           3950      1.93374e+7 
           3970      1.47079e+7 
           3990      1.90337e+7 
           4010      1.95125e+7 
           4030      1.94835e+7 
           4050      1.93864e+7 
           4070      1.91368e+7 
           4090      1.76853e+7 
           4110      1.52065e+7 
           4130      1.88304e+7 
           4150      1.89475e+7 
           4170      1.89122e+7 
           4190      1.88387e+7 
           4210      1.87454e+7 
           4230      1.86422e+7 
           4250      1.85671e+7 
           4270      1.84549e+7 
           4290      1.83261e+7 
           4310       1.8084e+7 
           4330      1.63978e+7 
           4350       1.4802e+7 
           4370      1.77881e+7 
           4390      1.78637e+7 
           4410      1.78273e+7 
           4430      1.77652e+7 
           4450      1.76719e+7 
           4470      1.75844e+7 
           4490       1.7498e+7 
           4510      1.74076e+7 
           4530      1.73156e+7 
           4550      1.72239e+7 
           4570      1.71404e+7 
           4590      1.70536e+7 
           4610      1.69676e+7 
           4630      1.68785e+7 
           4650      1.67916e+7 
           4670      1.67041e+7 
           4690      1.66167e+7 
           4710      1.65279e+7 
           4730      1.64426e+7 
           4750       1.6356e+7 
           4770      1.62698e+7 
           4790      1.61664e+7 
           4810      1.60384e+7 
           4830      1.58365e+7 
           4850      1.46573e+7 
           4870      1.29158e+7 
           4890      1.55032e+7 
           4910      1.56034e+7 
           4930      1.55606e+7 
           4950      1.55043e+7 
           4970       1.5424e+7 
           4990      1.53399e+7 
           5010      1.52552e+7 
           5030      1.51758e+7 
           5050      1.50928e+7 
           5070      1.50121e+7 
           5090      1.49307e+7 
           5110      1.48501e+7 
           5130      1.47689e+7 
           5150      1.46885e+7 
           5170      1.45821e+7 
           5190      1.45175e+7 
           5210      1.44493e+7 
           5230      1.43693e+7 
           5250      1.42942e+7 
           5270      1.42117e+7 
           5290      1.41381e+7 
           5310      1.40598e+7 
           5330       1.3981e+7 
           5350       1.3907e+7 
           5370      1.38297e+7 
           5390      1.37545e+7 
           5410      1.36774e+7 
           5430      1.36024e+7 
           5450      1.35281e+7 
           5470      1.34546e+7 
           5490      1.33805e+7 
           5510      1.33071e+7 
           5530      1.32332e+7 
           5550      1.31612e+7 
           5570      1.30887e+7 
           5590      1.30157e+7 
           5610      1.29446e+7 
           5630      1.28742e+7 
           5650      1.28033e+7 
           5670      1.27319e+7 
           5690      1.26612e+7 
           5710      1.25911e+7 
           5730      1.25217e+7 
           5750      1.24519e+7 
           5770      1.23827e+7 
           5790      1.23141e+7 
           5810      1.22462e+7 
           5830      1.21779e+7 
           5850      1.21102e+7 
           5870      1.20431e+7 
           5890      1.19723e+7 
           5910      1.19097e+7 
           5930      1.18445e+7 
           5950      1.17789e+7 
           5970      1.17128e+7 
           5990      1.16483e+7 
           6010      1.15835e+7 
           6030      1.15192e+7 
           6050      1.14555e+7 
           6070      1.13924e+7 
           6090      1.13289e+7 
           6110      1.12669e+7 
           6130      1.12036e+7 
           6150      1.11418e+7 
           6170      1.10795e+7 
           6190      1.10199e+7 
           6210      1.09588e+7 
           6230      1.08982e+7 
           6250      1.08373e+7 
           6270      1.07778e+7 
           6290       1.0718e+7 
           6310      1.06586e+7 
           6330      1.05999e+7 
           6350      1.05416e+7 
           6370      1.04829e+7 
           6390      1.04257e+7 
           6410      1.03681e+7 
           6430      1.03101e+7 
           6450      1.02526e+7 
           6470      1.01965e+7 
           6490      1.01346e+7 
           6510       1.0052e+7 
           6530      9.94106e+6 
           6550      9.48091e+6 
           6570      8.22147e+6 
           6590      9.70101e+6 
           6610      9.76397e+6 
           6630        9.742e+6 
           6650      9.70138e+6 
           6670      9.64837e+6 
           6690      9.59582e+6 
           6710      9.54289e+6 
           6730      9.49041e+6 
           6750      9.43839e+6 
           6770      9.38599e+6 
           6790      9.33487e+6 
           6810      9.28337e+6 
           6830      9.23231e+6 
           6850      9.18169e+6 
           6870       9.1315e+6 
           6890      9.08174e+6 
           6910       9.0324e+6 
           6930      8.98269e+6 
           6950      8.93341e+6 
           6970      8.88454e+6 
           6990      8.83608e+6 
           7010      8.78804e+6 
           7030      8.74039e+6 
           7050      8.69239e+6 
           7070      8.64554e+6 
           7090      8.59833e+6 
           7110      8.55151e+6 
           7130      8.50509e+6 
           7150      8.45905e+6 
           7170      8.41266e+6 
           7190      8.36738e+6 
           7210      8.32174e+6 
           7230      8.27649e+6 
           7250      8.23161e+6 
           7270      8.18709e+6 
           7290      8.14294e+6 
           7310      8.09844e+6 
           7330      8.05501e+6 
           7350      8.01123e+6 
           7370      7.96781e+6 
           7390      7.92474e+6 
           7410      7.88202e+6 
           7430      7.83964e+6 
           7450      7.79693e+6 
           7470      7.75523e+6 
           7490       7.7132e+6 
           7510      7.67217e+6 
           7530      7.63081e+6 
           7550      7.58977e+6 
           7570      7.54906e+6 
           7590      7.50868e+6 
           7610      7.46861e+6 
           7630      7.42822e+6 
           7650      7.38878e+6 
           7670      7.34902e+6 
           7690      7.30957e+6 
           7710      7.27106e+6 
           7730      7.23222e+6 
           7750      7.19369e+6 
           7770      7.15483e+6 
           7790       7.1169e+6 
           7810      7.07926e+6 
           7830      7.04191e+6 
           7850      7.00424e+6 
           7870      6.96747e+6 
           7890      6.93038e+6 
           7910      6.89357e+6 
           7930      6.85704e+6 
           7950       6.8208e+6 
           7970      6.78483e+6 
           7990      6.74913e+6 
           8010      6.71312e+6 
           8030      6.67797e+6 
           8050      6.64251e+6 
           8070      6.60789e+6 
           8090      6.57295e+6 
           8110      6.53828e+6 
           8130      6.50387e+6 
           8150      6.46972e+6 
           8170      6.43583e+6 
           8190      6.40219e+6 
           8210      6.37103e+6 
           8230      6.33844e+6 
           8250      6.30608e+6 
           8270      6.27452e+6 
           8290      6.24263e+6 
           8310      6.20935e+6 
           8330      6.17522e+6 
           8350      6.14352e+6 
           8370       6.1029e+6 
           8390      6.07063e+6 
           8410       6.0322e+6 
           8430      6.01262e+6 
           8450      5.98156e+6 
           8470      5.89873e+6 
           8490      5.95303e+6 
           8510       5.7841e+6 
           8530      5.91234e+6 
           8550      5.64817e+6 
           8570       5.8778e+6 
           8590      5.73712e+6 
