# Kurucz ODFNEW /NOVER (2003)
# teff = 28000 K (value for the effective temperature for the model. Temperatures are given in K)
# logg = 4 log(cm/s2) (value for Log(G) for the model.)
# meta = -2  (value for the Metallicity for the model.)
# lh = 1.25  (l/Hp where l is the  mixing length of the convective element and Hp is the pressure scale height)
# vtur = 2 km/s (Microturbulence velocity)
# alpha = 0  (Alpha)
#
# column 1: WAVELENGTH (ANGSTROM), Wavelength in Angstrom
# column 2: FLUX (ERG/CM2/S/A), Flux in erg/cm2/s/A
          147.2     1.12171e-10 
            151     4.30874e-10 
          155.2      1.76282e-9 
          158.8      5.57129e-9 
            162      1.48372e-8 
            166      4.77898e-8 
          170.3      1.58384e-7 
          173.4       3.6175e-7 
          176.8      8.64887e-7 
          180.2       2.0014e-6 
          181.7      2.87075e-6 
          186.1      7.99326e-6 
            191      2.36183e-5 
          193.9      4.36998e-5 
          198.4     0.000109556 
          201.8     0.000213272 
            205     0.000391126 
          210.5      0.00106353 
          216.2      0.00283765 
          219.8      0.00513316 
            223      0.00855366 
          226.8        0.015389 
            230         1.14571 
            234         2.86524 
            240         5.85598 
          246.5         12.3852 
          252.4         23.7596 
          256.8         32.9061 
            260         51.1349 
            264         73.9664 
          268.5         113.151 
          273.5         177.128 
          278.5         271.984 
            284         431.457 
            290         691.507 
            296         1082.68 
            301         1510.64 
            308          2263.1 
            318         4899.67 
            328         8976.32 
            338         16073.8 
            348         27511.8 
            357         43611.7 
            366         67799.8 
            375          100595 
            385          155696 
            395          232670 
            405          340061 
            414          472747 
            422          618878 
            430          802847 
            441      1.13667e+6 
            451      1.53456e+6 
            460      1.96839e+6 
            470      2.59004e+6 
            480      3.34217e+6 
            490      4.26657e+6 
            500      5.39597e+6 
            506      3.62051e+7 
            512      1.16903e+8 
            520       1.2495e+8 
            530      1.42645e+8 
            540      1.40563e+8 
            550      1.70942e+8 
            560      1.85229e+8 
            570      2.04169e+8 
            580      1.98141e+8 
            590      2.32629e+8 
            600      2.51279e+8 
            610      2.73136e+8 
            620      2.91691e+8 
            630      3.14615e+8 
            640      3.27192e+8 
            650      3.55347e+8 
            658      3.74899e+8 
            665       3.9142e+8 
            675      4.06847e+8 
            685      4.23999e+8 
            695      4.69187e+8 
            705      4.83432e+8 
            716      5.22175e+8 
            726        5.459e+8 
            735      5.75054e+8 
            745      6.08055e+8 
            755      6.36916e+8 
            765      6.66329e+8 
            775      7.00427e+8 
            785       7.3631e+8 
            795      7.63145e+8 
            805      7.95985e+8 
            815      8.23022e+8 
            825      8.61531e+8 
            835      8.61119e+8 
            845      9.19367e+8 
            855      9.49625e+8 
            865      9.86654e+8 
            875      1.02564e+9 
            885      1.06127e+9 
            895      1.09427e+9 
            905      1.11824e+9 
            915      1.57774e+9 
            925     1.12263e+10 
            935     2.32293e+10 
            945     4.32362e+10 
            955     4.91759e+10 
            965     5.92669e+10 
            975     3.13459e+10 
            985     5.78048e+10 
            995     5.42819e+10 
           1005     5.63141e+10 
           1015     5.35936e+10 
           1025     3.06045e+10 
           1035     5.02411e+10 
           1045     5.43278e+10 
           1055     5.29474e+10 
           1065     4.91146e+10 
           1075     4.97079e+10 
           1085     4.61301e+10 
           1095     4.84271e+10 
           1105     4.66444e+10 
           1115     4.56993e+10 
           1125      4.2914e+10 
           1135     4.40328e+10 
           1145     4.22211e+10 
           1155     4.21003e+10 
           1165     4.13529e+10 
           1175     3.58113e+10 
           1185     3.90512e+10 
           1195     3.77541e+10 
           1205     3.50441e+10 
           1215      2.0279e+10 
           1225     3.46221e+10 
           1235     3.54518e+10 
           1245     3.44398e+10 
           1255      3.4185e+10 
           1265     3.35007e+10 
           1275     3.29517e+10 
           1285     3.22857e+10 
           1295     3.03491e+10 
           1305     3.03082e+10 
           1315     3.03109e+10 
           1325      2.9353e+10 
           1335     2.84245e+10 
           1345     2.83553e+10 
           1355      2.7926e+10 
           1365     2.72211e+10 
           1375     2.67011e+10 
           1385     2.61951e+10 
           1395     2.46962e+10 
           1405     2.44489e+10 
           1415     2.45185e+10 
           1425      2.3927e+10 
           1435     2.36478e+10 
           1442     2.34223e+10 
           1447     2.31564e+10 
           1455     2.27565e+10 
           1465     2.22942e+10 
           1475     2.18613e+10 
           1485     2.14757e+10 
           1495     2.10224e+10 
           1505     2.04862e+10 
           1512     2.02146e+10 
           1517     2.00488e+10 
           1525     1.97013e+10 
           1535     1.88698e+10 
           1545     1.84275e+10 
           1555     1.79996e+10 
           1565     1.80226e+10 
           1575     1.78719e+10 
           1585     1.76141e+10 
           1595     1.73081e+10 
           1605     1.66938e+10 
           1615     1.63635e+10 
           1625     1.61913e+10 
           1635     1.59276e+10 
           1645     1.52639e+10 
           1655     1.55078e+10 
           1665     1.52541e+10 
           1672     1.49946e+10 
           1677     1.50848e+10 
           1685     1.48212e+10 
           1695     1.45209e+10 
           1705     1.42111e+10 
           1715     1.38538e+10 
           1725      1.3643e+10 
           1735       1.354e+10 
           1745     1.32838e+10 
           1755     1.30778e+10 
           1765     1.27619e+10 
           1775     1.25886e+10 
           1785     1.24409e+10 
           1795     1.22465e+10 
           1805     1.20846e+10 
           1815     1.18237e+10 
           1825     1.16425e+10 
           1835     1.14645e+10 
           1845     1.10971e+10 
           1855     1.08245e+10 
           1865     1.07431e+10 
           1875     1.06825e+10 
           1885     1.03065e+10 
           1895     1.00234e+10 
           1905      1.0087e+10 
           1915      9.77628e+9 
           1925      9.58175e+9 
           1935      9.56618e+9 
           1945      9.50939e+9 
           1955      9.13144e+9 
           1967      9.16613e+9 
           1976      9.13096e+9 
           1984      8.89918e+9 
           1995      8.63207e+9 
           2005      8.67494e+9 
           2015      8.59582e+9 
           2025      8.49671e+9 
           2035      8.30388e+9 
           2045      8.17611e+9 
           2055      7.65105e+9 
           2065      7.48728e+9 
           2074      7.55372e+9 
           2078      7.43245e+9 
           2085       7.5082e+9 
           2095      7.48236e+9 
           2105      7.48906e+9 
           2115      7.41908e+9 
           2125      7.33082e+9 
           2135      7.21668e+9 
           2145      7.09494e+9 
           2155      7.01659e+9 
           2165      6.90233e+9 
           2175       6.8187e+9 
           2185      6.70577e+9 
           2195      6.63503e+9 
           2205      6.53996e+9 
           2215      6.42791e+9 
           2225      6.35299e+9 
           2235      6.25991e+9 
           2245      6.17841e+9 
           2255      6.06935e+9 
           2265      6.00662e+9 
           2275      5.92373e+9 
           2285      5.84147e+9 
           2295      5.68217e+9 
           2305      5.66283e+9 
           2315      5.60016e+9 
           2325      5.52415e+9 
           2335      5.44598e+9 
           2345      5.37743e+9 
           2355      5.30503e+9 
           2365      5.23372e+9 
           2375      5.16209e+9 
           2385       5.0779e+9 
           2395      5.02409e+9 
           2405      4.95895e+9 
           2415      4.89226e+9 
           2425      4.82938e+9 
           2435      4.76342e+9 
           2445      4.70248e+9 
           2455      4.64218e+9 
           2465      4.58184e+9 
           2475      4.52171e+9 
           2485      4.46324e+9 
           2495      4.29573e+9 
           2505      4.34771e+9 
           2513       4.2628e+9 
           2518      4.27269e+9 
           2525      4.23881e+9 
           2535      4.18527e+9 
           2545      4.12272e+9 
           2555      4.07701e+9 
           2565       4.0285e+9 
           2575      3.97841e+9 
           2585      3.92886e+9 
           2595      3.88023e+9 
           2605      3.85283e+9 
           2615       3.8048e+9 
           2625      3.75706e+9 
           2635      3.70624e+9 
           2645      3.65953e+9 
           2655       3.6109e+9 
           2665      3.56131e+9 
           2675      3.51531e+9 
           2685      3.49126e+9 
           2695      3.42536e+9 
           2705      3.40626e+9 
           2715      3.36593e+9 
           2725      3.30287e+9 
           2735      3.27856e+9 
           2745      3.24656e+9 
           2755      3.20869e+9 
           2765      3.14679e+9 
           2775      3.13404e+9 
           2785       3.0969e+9 
           2795      3.04975e+9 
           2805       3.0224e+9 
           2815      2.99012e+9 
           2825      2.92806e+9 
           2835      2.90524e+9 
           2845      2.88769e+9 
           2855      2.85414e+9 
           2865      2.82158e+9 
           2875       2.7895e+9 
           2885      2.75798e+9 
           2895       2.7265e+9 
           2910      2.68005e+9 
           2930      2.62029e+9 
           2950      2.54527e+9 
           2970      2.50542e+9 
           2990      2.45015e+9 
           3010      2.39599e+9 
           3030      2.34481e+9 
           3050      2.29427e+9 
           3070      2.24517e+9 
           3090      2.19509e+9 
           3110      2.15044e+9 
           3130      2.10658e+9 
           3150       2.0623e+9 
           3170      2.01874e+9 
           3190      1.96148e+9 
           3210       1.9339e+9 
           3230      1.89551e+9 
           3250      1.85656e+9 
           3270      1.82074e+9 
           3290      1.78151e+9 
           3310      1.74825e+9 
           3330      1.71322e+9 
           3350      1.67624e+9 
           3370      1.64599e+9 
           3390      1.61367e+9 
           3410      1.58217e+9 
           3430       1.5442e+9 
           3450      1.50898e+9 
           3470      1.48422e+9 
           3490      1.45556e+9 
           3510       1.4319e+9 
           3530      1.40734e+9 
           3550      1.38098e+9 
           3570      1.36203e+9 
           3590      1.32834e+9 
           3610      1.30666e+9 
           3630      1.27949e+9 
           3640      1.27626e+9 
           3650      1.25089e+9 
           3670      1.23293e+9 
           3690      1.20591e+9 
           3710      1.16543e+9 
           3730       1.1208e+9 
           3750      1.16184e+9 
           3770      1.15514e+9 
           3790      1.19848e+9 
           3810      1.23936e+9 
           3830      1.09686e+9 
           3850      1.25418e+9 
           3870      1.25232e+9 
           3890      1.03961e+9 
           3910      1.22454e+9 
           3930      1.20308e+9 
           3950      1.18274e+9 
           3970      9.63473e+8 
           3990      1.13633e+9 
           4010      1.12229e+9 
           4030      1.06715e+9 
           4050      1.09373e+9 
           4070      1.06981e+9 
           4090      1.00328e+9 
           4110      8.89073e+8 
           4130      1.00549e+9 
           4150      9.93201e+8 
           4170      9.82787e+8 
           4190       9.6789e+8 
           4210      9.51383e+8 
           4230       9.3567e+8 
           4250      9.19564e+8 
           4270      9.02891e+8 
           4290      8.88761e+8 
           4310      8.70513e+8 
           4330      8.05244e+8 
           4350      7.39244e+8 
           4370      8.26927e+8 
           4390      7.99549e+8 
           4410      8.04091e+8 
           4430      7.88899e+8 
           4450      7.78856e+8 
           4470      7.39359e+8 
           4490      7.53717e+8 
           4510      7.42083e+8 
           4530      7.30239e+8 
           4550      7.18065e+8 
           4570      7.07068e+8 
           4590       6.9593e+8 
           4610      6.85137e+8 
           4630       6.7445e+8 
           4650      6.62406e+8 
           4670      6.53532e+8 
           4690      6.41735e+8 
           4710      6.26515e+8 
           4730      6.24024e+8 
           4750      6.14388e+8 
           4770      6.05339e+8 
           4790      5.96174e+8 
           4810      5.87041e+8 
           4830      5.75811e+8 
           4850       5.4053e+8 
           4870      4.87573e+8 
           4890      5.49274e+8 
           4910      5.43855e+8 
           4930      5.25703e+8 
           4950      5.28659e+8 
           4970      5.21088e+8 
           4990      5.13485e+8 
           5010      5.00478e+8 
           5030      4.98695e+8 
           5050      4.88976e+8 
           5070      4.84452e+8 
           5090      4.77512e+8 
           5110      4.70708e+8 
           5130      4.63981e+8 
           5150      4.57402e+8 
           5170      4.50966e+8 
           5190      4.44644e+8 
           5210      4.38406e+8 
           5230      4.32291e+8 
           5250       4.2627e+8 
           5270      4.20355e+8 
           5290      4.14544e+8 
           5310      4.08835e+8 
           5330      4.03239e+8 
           5350      3.97716e+8 
           5370      3.92303e+8 
           5390      3.86972e+8 
           5410      3.81568e+8 
           5430       3.7659e+8 
           5450      3.71523e+8 
           5470      3.66545e+8 
           5490      3.61654e+8 
           5510      3.56849e+8 
           5530      3.52105e+8 
           5550      3.47456e+8 
           5570      3.42876e+8 
           5590      3.38378e+8 
           5610      3.33946e+8 
           5630      3.29593e+8 
           5650      3.25305e+8 
           5670      3.21057e+8 
           5690      3.16838e+8 
           5710      3.12866e+8 
           5730       3.0885e+8 
           5750      3.04859e+8 
           5770      3.01018e+8 
           5790      2.97189e+8 
           5810      2.93428e+8 
           5830      2.89711e+8 
           5850      2.86082e+8 
           5870      2.74941e+8 
           5890       2.7868e+8 
           5910      2.75471e+8 
           5930      2.72041e+8 
           5950      2.68661e+8 
           5970      2.65363e+8 
           5990      2.62093e+8 
           6010      2.58881e+8 
           6030      2.55705e+8 
           6050      2.52587e+8 
           6070      2.49524e+8 
           6090      2.46497e+8 
           6110      2.43513e+8 
           6130      2.40583e+8 
           6150      2.37686e+8 
           6170      2.34842e+8 
           6190      2.32039e+8 
           6210      2.29276e+8 
           6230      2.26555e+8 
           6250      2.23873e+8 
           6270       2.2123e+8 
           6290      2.18625e+8 
           6310      2.16059e+8 
           6330      2.13539e+8 
           6350      2.11047e+8 
           6370      2.08591e+8 
           6390      2.06171e+8 
           6410      2.03786e+8 
           6430      2.01436e+8 
           6450       1.9912e+8 
           6470      1.96829e+8 
           6490       1.9458e+8 
           6510      1.92373e+8 
           6530      1.89642e+8 
           6550      1.82883e+8 
           6570      1.64159e+8 
           6590      1.82543e+8 
           6610       1.8163e+8 
           6630      1.79713e+8 
           6650      1.77799e+8 
           6670      1.74253e+8 
           6690      1.72346e+8 
           6710      1.71948e+8 
           6730      1.70037e+8 
           6750      1.68171e+8 
           6770      1.66324e+8 
           6790      1.64488e+8 
           6810      1.62711e+8 
           6830      1.60935e+8 
           6850      1.59186e+8 
           6870      1.57462e+8 
           6890      1.55756e+8 
           6910      1.54083e+8 
           6930      1.52426e+8 
           6950      1.50793e+8 
           6970      1.49185e+8 
           6990      1.47584e+8 
           7010      1.46023e+8 
           7030      1.44476e+8 
           7050      1.42945e+8 
           7070      1.39274e+8 
           7090       1.3995e+8 
           7110      1.38479e+8 
           7130      1.37036e+8 
           7150        1.356e+8 
           7170      1.34163e+8 
           7190      1.32798e+8 
           7210      1.31425e+8 
           7230      1.29971e+8 
           7250      1.28724e+8 
           7270      1.27404e+8 
           7290      1.25097e+8 
           7310      1.24787e+8 
           7330      1.23532e+8 
           7350      1.22281e+8 
           7370      1.21036e+8 
           7390      1.19809e+8 
           7410      1.18601e+8 
           7430       1.1741e+8 
           7450      1.16245e+8 
           7470      1.15076e+8 
           7490      1.13932e+8 
           7510      1.12751e+8 
           7530      1.11675e+8 
           7550      1.10562e+8 
           7570      1.09472e+8 
           7590      1.08393e+8 
           7610      1.07323e+8 
           7630      1.06269e+8 
           7650      1.05225e+8 
           7670      1.04196e+8 
           7690      1.03184e+8 
           7710       1.0218e+8 
           7730      1.01192e+8 
           7750      1.00206e+8 
           7770      9.92416e+7 
           7790      9.82857e+7 
           7810      9.72889e+7 
           7830      9.64115e+7 
           7850      9.55785e+7 
           7870      9.46615e+7 
           7890      9.37162e+7 
           7910      9.28756e+7 
           7930      9.19944e+7 
           7950      9.11089e+7 
           7970      9.00769e+7 
           7990      8.92193e+7 
           8010      8.83575e+7 
           8030       8.7544e+7 
           8050      8.67723e+7 
           8070      8.60072e+7 
           8090      8.50472e+7 
           8110       8.4359e+7 
           8130      8.36766e+7 
           8150      8.27787e+7 
           8170      8.21538e+7 
           8190      8.12869e+7 
           8210      8.02988e+7 
           8230      7.97811e+7 
           8250      7.90848e+7 
           8270      7.79867e+7 
           8290      7.75834e+7 
           8310      7.69049e+7 
           8330      7.61778e+7 
           8350      7.51379e+7 
           8370      7.46932e+7 
           8390      7.41181e+7 
           8410       7.3441e+7 
           8430      7.27113e+7 
           8450      7.16077e+7 
           8470       7.1312e+7 
           8490      7.06419e+7 
           8510      6.98421e+7 
           8530      6.94683e+7 
           8550      6.79224e+7 
           8570      6.89958e+7 
           8590      6.62804e+7 
