# Kurucz ODFNEW /NOVER (2003)
# teff = 26000 K (value for the effective temperature for the model. Temperatures are given in K)
# logg = 3 log(cm/s2) (value for Log(G) for the model.)
# meta = -2.5  (value for the Metallicity for the model.)
# lh = 1.25  (l/Hp where l is the  mixing length of the convective element and Hp is the pressure scale height)
# vtur = 2 km/s (Microturbulence velocity)
# alpha = 0  (Alpha)
#
# column 1: WAVELENGTH (ANGSTROM), Wavelength in Angstrom
# column 2: FLUX (ERG/CM2/S/A), Flux in erg/cm2/s/A
          147.2     2.31693e-11 
            151     9.59065e-11 
          155.2     4.25323e-10 
          158.8      1.42957e-9 
            162       4.0185e-9 
            166      1.38355e-8 
          170.3      4.87622e-8 
          173.4      1.16466e-7 
          176.8      2.92217e-7 
          180.2      7.06378e-7 
          181.7      1.03113e-6 
          186.1      3.02411e-6 
            191      9.44483e-6 
          193.9      1.79801e-5 
          198.4      4.71015e-5 
          201.8      9.47669e-5 
            205      0.00017884 
          210.5     0.000507693 
          216.2      0.00141593 
          219.8      0.00262818 
            223      0.00447198 
          226.8      0.00823575 
            230        0.617687 
            234         1.66355 
            240         3.47167 
          246.5         7.64529 
          252.4         15.0164 
          256.8         19.1026 
            260         32.8462 
            264         47.7187 
          268.5         73.9117 
          273.5         116.823 
          278.5         180.559 
            284          289.39 
            290         466.903 
            296         733.026 
            301         972.001 
            308          1456.3 
            318         3428.28 
            328         6368.93 
            338         11525.4 
            348         19927.7 
            357         31669.8 
            366         49592.8 
            375         74167.1 
            385          115813 
            395          174417 
            405          256849 
            414          359088 
            422          473503 
            430          617192 
            441          879735 
            451      1.19375e+6 
            460       1.5395e+6 
            470      2.03662e+6 
            480      2.64234e+6 
            490      3.38837e+6 
            500      4.30587e+6 
            506      5.17548e+7 
            512      1.42949e+8 
            520      1.45969e+8 
            530      1.58618e+8 
            540      1.50085e+8 
            550      1.78016e+8 
            560      1.91969e+8 
            570      2.06546e+8 
            580      1.95487e+8 
            590      2.27369e+8 
            600      2.42551e+8 
            610       2.6038e+8 
            620      2.77304e+8 
            630      2.96429e+8 
            640      3.07564e+8 
            650      3.31495e+8 
            658      3.46803e+8 
            665      3.60948e+8 
            675      3.75832e+8 
            685      3.89001e+8 
            695       4.2842e+8 
            705      4.39432e+8 
            716      4.74976e+8 
            726      4.96089e+8 
            735      5.22585e+8 
            745      5.50278e+8 
            755      5.75161e+8 
            765       6.0155e+8 
            775      6.31996e+8 
            785      6.64232e+8 
            795      6.88875e+8 
            805      7.18316e+8 
            815      7.42995e+8 
            825      7.77398e+8 
            835       7.7645e+8 
            845      8.31467e+8 
            855      8.60212e+8 
            865      8.92449e+8 
            875      9.26834e+8 
            885      9.58773e+8 
            895      9.89154e+8 
            905      1.01327e+9 
            915      2.64963e+9 
            925     1.82195e+10 
            935     2.43561e+10 
            945     2.99236e+10 
            955     3.11917e+10 
            965       3.288e+10 
            975     2.44467e+10 
            985     3.11541e+10 
            995     3.00326e+10 
           1005     3.06799e+10 
           1015     2.98944e+10 
           1025     2.51599e+10 
           1035     2.89838e+10 
           1045     2.99286e+10 
           1055      2.9435e+10 
           1065     2.80246e+10 
           1075     2.80846e+10 
           1085     2.69564e+10 
           1095     2.77404e+10 
           1105     2.69287e+10 
           1115     2.65608e+10 
           1125     2.53865e+10 
           1135     2.60281e+10 
           1145     2.54714e+10 
           1155     2.52681e+10 
           1165     2.49677e+10 
           1175      2.2235e+10 
           1185     2.40328e+10 
           1195     2.34819e+10 
           1205     2.26363e+10 
           1215     1.83758e+10 
           1225     2.26388e+10 
           1235     2.24594e+10 
           1245     2.18786e+10 
           1255     2.18162e+10 
           1265     2.15012e+10 
           1275     2.11953e+10 
           1285      2.0882e+10 
           1295     2.00531e+10 
           1305     1.99334e+10 
           1315     1.99434e+10 
           1325     1.95626e+10 
           1335     1.90148e+10 
           1345     1.90313e+10 
           1355     1.87685e+10 
           1365     1.84614e+10 
           1375     1.81755e+10 
           1385     1.79208e+10 
           1395     1.71458e+10 
           1405     1.69835e+10 
           1415     1.70743e+10 
           1425     1.67823e+10 
           1435     1.65979e+10 
           1442     1.64466e+10 
           1447     1.63142e+10 
           1455     1.61059e+10 
           1465     1.58656e+10 
           1475     1.56271e+10 
           1485     1.54076e+10 
           1495     1.51556e+10 
           1505      1.4913e+10 
           1512     1.47693e+10 
           1517     1.46554e+10 
           1525      1.4458e+10 
           1535     1.40756e+10 
           1545     1.37209e+10 
           1555     1.35193e+10 
           1565     1.35109e+10 
           1575     1.33997e+10 
           1585      1.3226e+10 
           1595     1.30391e+10 
           1605     1.27078e+10 
           1615     1.25233e+10 
           1625     1.23606e+10 
           1635      1.2171e+10 
           1645      1.1702e+10 
           1655     1.19082e+10 
           1665     1.17322e+10 
           1672     1.15948e+10 
           1677     1.16127e+10 
           1685     1.14568e+10 
           1695     1.12808e+10 
           1705     1.10977e+10 
           1715     1.08708e+10 
           1725     1.07413e+10 
           1735     1.06611e+10 
           1745     1.04977e+10 
           1755      1.0349e+10 
           1765     1.01832e+10 
           1775     1.00611e+10 
           1785      9.93876e+9 
           1795      9.79536e+9 
           1805      9.67544e+9 
           1815       9.5236e+9 
           1825      9.38966e+9 
           1835      9.27071e+9 
           1845       9.0887e+9 
           1855      8.88116e+9 
           1865      8.79581e+9 
           1875      8.74457e+9 
           1885      8.55757e+9 
           1895       8.3738e+9 
           1905       8.3699e+9 
           1915      8.16622e+9 
           1925      8.04835e+9 
           1935      7.99526e+9 
           1945      7.93258e+9 
           1955      7.73148e+9 
           1967      7.69722e+9 
           1976      7.63131e+9 
           1984      7.50596e+9 
           1995      7.33255e+9 
           2005      7.32575e+9 
           2015      7.24552e+9 
           2025       7.1575e+9 
           2035      7.04485e+9 
           2045      6.94999e+9 
           2055      6.42542e+9 
           2065      6.31112e+9 
           2074      6.40413e+9 
           2078      6.37706e+9 
           2085      6.54134e+9 
           2095      6.47157e+9 
           2105      6.42766e+9 
           2115      6.36652e+9 
           2125       6.2873e+9 
           2135      6.20408e+9 
           2145      6.11861e+9 
           2155      6.05911e+9 
           2165      5.96397e+9 
           2175      5.90519e+9 
           2185      5.81291e+9 
           2195      5.75788e+9 
           2205      5.68423e+9 
           2215      5.59401e+9 
           2225      5.53973e+9 
           2235       5.4687e+9 
           2245      5.40118e+9 
           2255      5.31479e+9 
           2265       5.2659e+9 
           2275      5.19999e+9 
           2285      5.13466e+9 
           2295      5.01076e+9 
           2305      4.99049e+9 
           2315      4.94437e+9 
           2325      4.88312e+9 
           2335      4.82197e+9 
           2345      4.76401e+9 
           2355      4.70536e+9 
           2365       4.6476e+9 
           2375      4.59038e+9 
           2385      4.51779e+9 
           2395      4.47831e+9 
           2405      4.42466e+9 
           2415      4.37072e+9 
           2425      4.31822e+9 
           2435      4.26567e+9 
           2445      4.21459e+9 
           2455      4.16413e+9 
           2465       4.1143e+9 
           2475        4.065e+9 
           2485      4.01655e+9 
           2495      3.86701e+9 
           2505      3.92145e+9 
           2513       3.8457e+9 
           2518       3.8592e+9 
           2525      3.82968e+9 
           2535      3.78487e+9 
           2545      3.73779e+9 
           2555      3.69584e+9 
           2565      3.65339e+9 
           2575      3.61092e+9 
           2585      3.56906e+9 
           2595      3.52773e+9 
           2605      3.49847e+9 
           2615        3.458e+9 
           2625      3.41623e+9 
           2635      3.37271e+9 
           2645      3.33536e+9 
           2655      3.29585e+9 
           2665      3.25636e+9 
           2675      3.21785e+9 
           2685        3.191e+9 
           2695      3.14231e+9 
           2705      3.11912e+9 
           2715      3.08402e+9 
           2725       3.0357e+9 
           2735      3.00413e+9 
           2745      2.98153e+9 
           2755      2.94841e+9 
           2765      2.89997e+9 
           2775      2.88331e+9 
           2785      2.85128e+9 
           2795      2.81731e+9 
           2805      2.78831e+9 
           2815      2.75826e+9 
           2825      2.71177e+9 
           2835      2.69403e+9 
           2845      2.66884e+9 
           2855      2.63969e+9 
           2865       2.6111e+9 
           2875       2.5829e+9 
           2885      2.55506e+9 
           2895      2.52751e+9 
           2910      2.48684e+9 
           2930      2.43405e+9 
           2950      2.37193e+9 
           2970      2.33228e+9 
           2990      2.28336e+9 
           3010      2.23561e+9 
           3030      2.18937e+9 
           3050      2.14423e+9 
           3070      2.10019e+9 
           3090      2.05656e+9 
           3110      2.01532e+9 
           3130      1.97565e+9 
           3150      1.93564e+9 
           3170      1.89626e+9 
           3190      1.84698e+9 
           3210      1.81807e+9 
           3230      1.78512e+9 
           3250      1.74977e+9 
           3270      1.71663e+9 
           3290      1.68159e+9 
           3310      1.65053e+9 
           3330      1.61857e+9 
           3350      1.58534e+9 
           3370      1.55705e+9 
           3390      1.52739e+9 
           3410      1.49842e+9 
           3430      1.46553e+9 
           3450      1.43418e+9 
           3470       1.4106e+9 
           3490      1.38489e+9 
           3510      1.36343e+9 
           3530      1.33841e+9 
           3550      1.31393e+9 
           3570      1.29404e+9 
           3590      1.26537e+9 
           3610       1.2435e+9 
           3630      1.21948e+9 
           3640      1.21336e+9 
           3650      1.19487e+9 
           3670      1.17596e+9 
           3690       1.1413e+9 
           3710      1.12498e+9 
           3730      1.10921e+9 
           3750      1.16227e+9 
           3770       1.1492e+9 
           3790      1.14893e+9 
           3810      1.17007e+9 
           3830      1.08099e+9 
           3850      1.15076e+9 
           3870      1.12894e+9 
           3890      1.03538e+9 
           3910      1.09871e+9 
           3930      1.07487e+9 
           3950      1.06184e+9 
           3970       9.6149e+8 
           3990      1.02592e+9 
           4010      1.00552e+9 
           4030      9.76102e+8 
           4050      9.76591e+8 
           4070      9.60103e+8 
           4090      9.36345e+8 
           4110      8.65902e+8 
           4130      9.09174e+8 
           4150      8.94263e+8 
           4170      8.83323e+8 
           4190      8.70018e+8 
           4210      8.55118e+8 
           4230      8.42356e+8 
           4250      8.28815e+8 
           4270      8.15449e+8 
           4290      8.02664e+8 
           4310      7.89939e+8 
           4330      7.65639e+8 
           4350      7.17324e+8 
           4370      7.53305e+8 
           4390      7.34865e+8 
           4410      7.29977e+8 
           4430      7.17373e+8 
           4450      7.07743e+8 
           4470      6.85077e+8 
           4490      6.86182e+8 
           4510      6.75739e+8 
           4530      6.65471e+8 
           4550      6.54538e+8 
           4570      6.45449e+8 
           4590      6.35723e+8 
           4610      6.26249e+8 
           4630      6.16861e+8 
           4650      6.07053e+8 
           4670      5.98634e+8 
           4690      5.86757e+8 
           4710      5.76724e+8 
           4730      5.72615e+8 
           4750      5.64213e+8 
           4770      5.56031e+8 
           4790       5.4795e+8 
           4810      5.39999e+8 
           4830      5.32178e+8 
           4850      5.18476e+8 
           4870      4.80869e+8 
           4890      5.09619e+8 
           4910      5.02398e+8 
           4930      4.90053e+8 
           4950      4.88238e+8 
           4970      4.81388e+8 
           4990      4.74617e+8 
           5010      4.64546e+8 
           5030       4.6144e+8 
           5050      4.53479e+8 
           5070      4.48721e+8 
           5090      4.42511e+8 
           5110      4.36429e+8 
           5130      4.30427e+8 
           5150      4.24533e+8 
           5170      4.18746e+8 
           5190      4.13064e+8 
           5210      4.07456e+8 
           5230      4.01963e+8 
           5250      3.96541e+8 
           5270      3.91218e+8 
           5290       3.8599e+8 
           5310      3.80843e+8 
           5330      3.75776e+8 
           5350        3.708e+8 
           5370      3.65901e+8 
           5390      3.61089e+8 
           5410      3.55928e+8 
           5430      3.51688e+8 
           5450      3.47095e+8 
           5470      3.42584e+8 
           5490      3.38143e+8 
           5510      3.33769e+8 
           5530      3.29475e+8 
           5550      3.25245e+8 
           5570       3.2108e+8 
           5590      3.16978e+8 
           5610      3.12951e+8 
           5630      3.08984e+8 
           5650      3.05077e+8 
           5670       3.0123e+8 
           5690      2.97266e+8 
           5710      2.92945e+8 
           5730      2.89309e+8 
           5750      2.85705e+8 
           5770      2.82189e+8 
           5790      2.78737e+8 
           5810      2.75359e+8 
           5830       2.7252e+8 
           5850      2.69195e+8 
           5870      2.60717e+8 
           5890      2.62609e+8 
           5910      2.59465e+8 
           5930      2.56314e+8 
           5950      2.53221e+8 
           5970      2.50164e+8 
           5990      2.47162e+8 
           6010      2.44196e+8 
           6030      2.41273e+8 
           6050      2.38404e+8 
           6070      2.35568e+8 
           6090      2.32774e+8 
           6110      2.30031e+8 
           6130       2.2732e+8 
           6150      2.24648e+8 
           6170      2.22017e+8 
           6190      2.19424e+8 
           6210       2.1687e+8 
           6230      2.14344e+8 
           6250      2.11865e+8 
           6270      2.09414e+8 
           6290      2.07008e+8 
           6310      2.04619e+8 
           6330      2.02285e+8 
           6350      1.99966e+8 
           6370      1.97691e+8 
           6390       1.9545e+8 
           6410      1.93233e+8 
           6430      1.91049e+8 
           6450      1.88897e+8 
           6470      1.86777e+8 
           6490      1.84679e+8 
           6510      1.82613e+8 
           6530      1.80542e+8 
           6550      1.77325e+8 
           6570      1.63705e+8 
           6590      1.74502e+8 
           6610      1.72715e+8 
           6630      1.70817e+8 
           6650      1.69008e+8 
           6670      1.66141e+8 
           6690      1.64324e+8 
           6710      1.63539e+8 
           6730      1.61761e+8 
           6750      1.60019e+8 
           6770      1.58285e+8 
           6790      1.56586e+8 
           6810      1.54904e+8 
           6830      1.53247e+8 
           6850      1.51607e+8 
           6870      1.49991e+8 
           6890      1.48376e+8 
           6910      1.46824e+8 
           6930      1.45272e+8 
           6950      1.43743e+8 
           6970      1.42236e+8 
           6990       1.4073e+8 
           7010      1.39268e+8 
           7030      1.37814e+8 
           7050      1.36381e+8 
           7070      1.33214e+8 
           7090      1.33565e+8 
           7110      1.32189e+8 
           7130      1.30826e+8 
           7150      1.29483e+8 
           7170      1.28117e+8 
           7190      1.26844e+8 
           7210      1.25554e+8 
           7230      1.24255e+8 
           7250      1.23012e+8 
           7270      1.21766e+8 
           7290      1.19737e+8 
           7310      1.19309e+8 
           7330      1.18126e+8 
           7350       1.1694e+8 
           7370      1.15772e+8 
           7390      1.14622e+8 
           7410      1.13476e+8 
           7430      1.12354e+8 
           7450      1.11249e+8 
           7470      1.10154e+8 
           7490       1.0907e+8 
           7510      1.07969e+8 
           7530      1.06938e+8 
           7550      1.05889e+8 
           7570      1.04857e+8 
           7590      1.03821e+8 
           7610      1.02828e+8 
           7630       1.0183e+8 
           7650      1.00847e+8 
           7670      9.98739e+7 
           7690      9.89155e+7 
           7710      9.79594e+7 
           7730      9.70307e+7 
           7750      9.60915e+7 
           7770      9.51856e+7 
           7790      9.42815e+7 
           7810       9.3336e+7 
           7830      9.25034e+7 
           7850      9.16965e+7 
           7870      9.08295e+7 
           7890      8.99521e+7 
           7910      8.91305e+7 
           7930      8.82981e+7 
           7950      8.74431e+7 
           7970      8.65422e+7 
           7990      8.57967e+7 
           8010      8.49284e+7 
           8030       8.4167e+7 
           8050      8.34121e+7 
           8070      8.26752e+7 
           8090      8.18007e+7 
           8110      8.10827e+7 
           8130      8.04506e+7 
           8150      7.95741e+7 
           8170      7.89931e+7 
           8190      7.82371e+7 
           8210       7.7331e+7 
           8230      7.67999e+7 
           8250      7.61346e+7 
           8270      7.51554e+7 
           8290      7.46836e+7 
           8310      7.40354e+7 
           8330      7.33545e+7 
           8350       7.2447e+7 
           8370      7.18646e+7 
           8390      7.12923e+7 
           8410       7.0618e+7 
           8430      6.99547e+7 
           8450      6.91016e+7 
           8470      6.83345e+7 
           8490      6.84311e+7 
           8510      6.68353e+7 
           8530      6.74905e+7 
           8550       6.4887e+7 
           8570      6.70363e+7 
           8590      6.43658e+7 
