# Kurucz ODFNEW /NOVER (2003)
# teff = 20000 K (value for the effective temperature for the model. Temperatures are given in K)
# logg = 3 log(cm/s2) (value for Log(G) for the model.)
# meta = -1.5  (value for the Metallicity for the model.)
# lh = 1.25  (l/Hp where l is the  mixing length of the convective element and Hp is the pressure scale height)
# vtur = 2 km/s (Microturbulence velocity)
# alpha = 0  (Alpha)
#
# column 1: WAVELENGTH (ANGSTROM), Wavelength in Angstrom
# column 2: FLUX (ERG/CM2/S/A), Flux in erg/cm2/s/A
          147.2     6.90229e-20 
            151     4.69768e-19 
          155.2     3.51454e-18 
          158.8     1.81407e-17 
            162     7.34252e-17 
            166      3.9077e-16 
          170.3     2.15941e-15 
          173.4     7.02237e-15 
          176.8     2.43936e-14 
          180.2     8.07916e-14 
          181.7     1.35059e-13 
          186.1     5.80727e-13 
            191     2.71789e-12 
          193.9     6.52462e-12 
          198.4      2.4103e-11 
          201.8     6.21637e-11 
            205     1.47214e-10 
          210.5     6.08018e-10 
          216.2      2.44321e-9 
          219.8      5.65842e-9 
            223      1.16574e-8 
          226.8      2.67513e-8 
            230      1.35601e-7 
            234      3.37726e-7 
            240       1.0311e-6 
          246.5      3.24517e-6 
          252.4      8.79054e-6 
          256.8      1.74648e-5 
            260      2.93297e-5 
            264      5.37305e-5 
          268.5     0.000103714 
          273.5     0.000209748 
          278.5     0.000413987 
            284     0.000849715 
            290      0.00180109 
            296      0.00369476 
            301      0.00657648 
            308        0.014063 
            318       0.0406332 
            328        0.107948 
            338        0.270481 
            348        0.640419 
            357          1.3325 
            366         2.67124 
            375         5.15138 
            385         10.3021 
            395         19.8215 
            405         36.8518 
            414         62.6717 
            422         98.3075 
            430         151.303 
            441         267.184 
            451         435.978 
            460         663.638 
            470          1037.4 
            480         1587.84 
            490         2385.59 
            500         3518.65 
            506         26245.2 
            512         81068.7 
            520          105116 
            530          155761 
            540          174425 
            550          265790 
            560          330203 
            570          420351 
            580          424761 
            590          585332 
            600          767346 
            610          944031 
            620      1.12049e+6 
            630      1.34366e+6 
            640       1.5426e+6 
            650      1.80366e+6 
            658      2.11987e+6 
            665      2.33956e+6 
            675      2.64399e+6 
            685      3.03616e+6 
            695       3.6023e+6 
            705      4.07613e+6 
            716         4.71e+6 
            726      5.28253e+6 
            735      5.90054e+6 
            745      6.72041e+6 
            755      7.54153e+6 
            765      8.40717e+6 
            775      9.40216e+6 
            785      1.04523e+7 
            795       1.1482e+7 
            805      1.26397e+7 
            815      1.37794e+7 
            825      1.52219e+7 
            835      1.63119e+7 
            845      1.79178e+7 
            855      1.94073e+7 
            865      2.11786e+7 
            875      2.30975e+7 
            885      2.50734e+7 
            895      2.69878e+7 
            905      2.85077e+7 
            915      5.79881e+7 
            925       8.5061e+8 
            935      2.65448e+9 
            945      5.75203e+9 
            955      6.98211e+9 
            965      8.32569e+9 
            975      2.97088e+9 
            985      8.50823e+9 
            995       8.1166e+9 
           1005      8.65748e+9 
           1015      8.33158e+9 
           1025      3.98988e+9 
           1035      6.98016e+9 
           1045      9.26312e+9 
           1055      8.88019e+9 
           1065      8.02301e+9 
           1075      8.74387e+9 
           1085      8.06597e+9 
           1095      8.77331e+9 
           1105      8.24067e+9 
           1115      8.28897e+9 
           1125      7.68714e+9 
           1135      8.31058e+9 
           1145      7.84824e+9 
           1155      8.11365e+9 
           1165      8.15677e+9 
           1175      6.81244e+9 
           1185      7.97873e+9 
           1195      7.32842e+9 
           1205      5.79328e+9 
           1215      2.85337e+9 
           1225      6.64575e+9 
           1235      7.33859e+9 
           1245       7.3901e+9 
           1255      7.20391e+9 
           1265      7.08317e+9 
           1275      7.21629e+9 
           1285      7.08342e+9 
           1295      6.20123e+9 
           1305      6.32932e+9 
           1315      6.83144e+9 
           1325      6.58795e+9 
           1335      6.28923e+9 
           1345      6.45221e+9 
           1355      6.47674e+9 
           1365      6.24369e+9 
           1375      6.14822e+9 
           1385      6.12889e+9 
           1395      5.67449e+9 
           1405      5.78637e+9 
           1415       5.8411e+9 
           1425      5.76144e+9 
           1435      5.76101e+9 
           1442      5.77243e+9 
           1447      5.69806e+9 
           1455      5.61439e+9 
           1465      5.47447e+9 
           1475      5.41365e+9 
           1485      5.32424e+9 
           1495       5.2487e+9 
           1505      5.07523e+9 
           1512       4.8685e+9 
           1517       4.9337e+9 
           1525       4.9088e+9 
           1535      4.63096e+9 
           1545      4.69179e+9 
           1555      4.51136e+9 
           1565      4.61032e+9 
           1575      4.64278e+9 
           1585      4.58063e+9 
           1595      4.56099e+9 
           1605      4.41805e+9 
           1615      4.35989e+9 
           1625      4.33678e+9 
           1635      4.36169e+9 
           1645      4.28195e+9 
           1655      4.22431e+9 
           1665      4.23379e+9 
           1672      4.12389e+9 
           1677      4.20275e+9 
           1685      4.14529e+9 
           1695      4.03791e+9 
           1705      3.93483e+9 
           1715      3.82131e+9 
           1725       3.7903e+9 
           1735      3.79254e+9 
           1745      3.72409e+9 
           1755       3.7395e+9 
           1765       3.5826e+9 
           1775      3.55909e+9 
           1785      3.55266e+9 
           1795      3.55598e+9 
           1805      3.53623e+9 
           1815      3.39559e+9 
           1825      3.40723e+9 
           1835      3.35207e+9 
           1845      3.17152e+9 
           1855       3.1095e+9 
           1865      3.13711e+9 
           1875      3.18679e+9 
           1885      2.98067e+9 
           1895      2.84659e+9 
           1905      2.97229e+9 
           1915      2.86141e+9 
           1925      2.79272e+9 
           1935      2.85438e+9 
           1945      2.87579e+9 
           1955      2.70411e+9 
           1967      2.79566e+9 
           1976      2.84985e+9 
           1984       2.7203e+9 
           1995      2.64921e+9 
           2005      2.68235e+9 
           2015      2.68521e+9 
           2025      2.70046e+9 
           2035      2.58502e+9 
           2045      2.56773e+9 
           2055      2.50149e+9 
           2065      2.50939e+9 
           2074      2.57051e+9 
           2078       2.4596e+9 
           2085      2.47604e+9 
           2095      2.39564e+9 
           2105      2.42301e+9 
           2115      2.40377e+9 
           2125      2.41924e+9 
           2135      2.37812e+9 
           2145      2.30843e+9 
           2155      2.32924e+9 
           2165      2.30496e+9 
           2175      2.27306e+9 
           2185      2.24733e+9 
           2195      2.23558e+9 
           2205      2.20667e+9 
           2215      2.18172e+9 
           2225      2.14473e+9 
           2235      2.12286e+9 
           2245      2.11237e+9 
           2255      2.07574e+9 
           2265      2.06656e+9 
           2275      2.04217e+9 
           2285      2.02758e+9 
           2295      1.97448e+9 
           2305       1.9788e+9 
           2315      1.94543e+9 
           2325       1.9272e+9 
           2335      1.89062e+9 
           2345      1.86781e+9 
           2355      1.86734e+9 
           2365      1.83784e+9 
           2375      1.82092e+9 
           2385      1.79304e+9 
           2395      1.77921e+9 
           2405      1.75943e+9 
           2415      1.73546e+9 
           2425      1.73316e+9 
           2435      1.70637e+9 
           2445      1.69206e+9 
           2455      1.68024e+9 
           2465      1.65721e+9 
           2475      1.64102e+9 
           2485      1.62265e+9 
           2495      1.57681e+9 
           2505      1.58814e+9 
           2513      1.55162e+9 
           2518      1.56489e+9 
           2525      1.55091e+9 
           2535      1.53055e+9 
           2545      1.50825e+9 
           2555      1.50766e+9 
           2565      1.48671e+9 
           2575      1.47956e+9 
           2585      1.46317e+9 
           2595       1.4475e+9 
           2605      1.44113e+9 
           2615      1.42759e+9 
           2625       1.4134e+9 
           2635      1.39428e+9 
           2645      1.38952e+9 
           2655      1.37507e+9 
           2665      1.35665e+9 
           2675        1.345e+9 
           2685      1.33928e+9 
           2695      1.31411e+9 
           2705      1.31101e+9 
           2715      1.29723e+9 
           2725      1.27443e+9 
           2735      1.27258e+9 
           2745      1.24688e+9 
           2755      1.23814e+9 
           2765      1.22339e+9 
           2775      1.22383e+9 
           2785      1.21035e+9 
           2795       1.1786e+9 
           2805      1.17936e+9 
           2815      1.17679e+9 
           2825      1.15554e+9 
           2835      1.13953e+9 
           2845      1.14136e+9 
           2855      1.13065e+9 
           2865      1.12098e+9 
           2875      1.10982e+9 
           2885      1.09961e+9 
           2895      1.08879e+9 
           2910       1.0731e+9 
           2930      1.05191e+9 
           2950      1.02644e+9 
           2970      1.01378e+9 
           2990      9.93855e+8 
           3010      9.75494e+8 
           3030      9.58924e+8 
           3050      9.41327e+8 
           3070      9.24146e+8 
           3090      9.06146e+8 
           3110       8.9075e+8 
           3130      8.75673e+8 
           3150      8.59881e+8 
           3170      8.43929e+8 
           3190      8.23125e+8 
           3210      8.14582e+8 
           3230       8.0012e+8 
           3250       7.8613e+8 
           3270      7.73231e+8 
           3290      7.58742e+8 
           3310       7.4685e+8 
           3330      7.34033e+8 
           3350      7.20158e+8 
           3370      7.09181e+8 
           3390      6.97232e+8 
           3410      6.85513e+8 
           3430      6.70754e+8 
           3450      6.57302e+8 
           3470       6.4837e+8 
           3490      6.38424e+8 
           3510      6.31292e+8 
           3530      6.21407e+8 
           3550      6.11436e+8 
           3570      6.03688e+8 
           3590      5.91164e+8 
           3610      5.81856e+8 
           3630       5.7226e+8 
           3640      5.70684e+8 
           3650      5.60803e+8 
           3670      5.53365e+8 
           3690      5.33908e+8 
           3710      5.37172e+8 
           3730      5.42962e+8 
           3750      6.06518e+8 
           3770      6.09191e+8 
           3790      6.25439e+8 
           3810       6.4858e+8 
           3830      5.77952e+8 
           3850      6.56039e+8 
           3870      6.46911e+8 
           3890      5.54684e+8 
           3910      6.35739e+8 
           3930      6.20748e+8 
           3950      6.15612e+8 
           3970      5.15703e+8 
           3990      5.94268e+8 
           4010      5.84864e+8 
           4030       5.6098e+8 
           4050      5.70428e+8 
           4070      5.59696e+8 
           4090      5.35318e+8 
           4110      4.76551e+8 
           4130      5.28445e+8 
           4150      5.22139e+8 
           4170      5.16774e+8 
           4190      5.10307e+8 
           4210      5.02622e+8 
           4230      4.94701e+8 
           4250      4.86886e+8 
           4270      4.77376e+8 
           4290      4.72015e+8 
           4310      4.64075e+8 
           4330      4.37514e+8 
           4350      4.01566e+8 
           4370      4.42857e+8 
           4390      4.30152e+8 
           4410      4.30579e+8 
           4430      4.22688e+8 
           4450       4.1825e+8 
           4470      4.00658e+8 
           4490      4.05412e+8 
           4510      4.00102e+8 
           4530      3.94117e+8 
           4550      3.88257e+8 
           4570      3.82522e+8 
           4590      3.77139e+8 
           4610      3.71658e+8 
           4630      3.66257e+8 
           4650      3.60413e+8 
           4670      3.55864e+8 
           4690      3.50969e+8 
           4710      3.41949e+8 
           4730      3.40393e+8 
           4750      3.35245e+8 
           4770      3.31629e+8 
           4790      3.26944e+8 
           4810      3.22244e+8 
           4830      3.17288e+8 
           4850      3.02601e+8 
           4870      2.73165e+8 
           4890      3.04004e+8 
           4910      3.00657e+8 
           4930      2.91744e+8 
           4950      2.92497e+8 
           4970      2.88607e+8 
           4990      2.84664e+8 
           5010      2.77638e+8 
           5030      2.77028e+8 
           5050      2.71499e+8 
           5070      2.69684e+8 
           5090      2.66086e+8 
           5110       2.6255e+8 
           5130      2.58946e+8 
           5150      2.55547e+8 
           5170      2.52319e+8 
           5190      2.49007e+8 
           5210      2.45628e+8 
           5230      2.42555e+8 
           5250      2.39412e+8 
           5270      2.36296e+8 
           5290      2.33261e+8 
           5310      2.30264e+8 
           5330      2.27306e+8 
           5350      2.24346e+8 
           5370      2.21568e+8 
           5390      2.18747e+8 
           5410      2.15987e+8 
           5430      2.13198e+8 
           5450      2.10545e+8 
           5470      2.07913e+8 
           5490      2.05338e+8 
           5510      2.02771e+8 
           5530      2.00259e+8 
           5550      1.97791e+8 
           5570      1.95329e+8 
           5590      1.92945e+8 
           5610      1.90555e+8 
           5630      1.88252e+8 
           5650       1.8586e+8 
           5670      1.83578e+8 
           5690      1.81324e+8 
           5710      1.79259e+8 
           5730      1.77103e+8 
           5750      1.74951e+8 
           5770      1.72902e+8 
           5790      1.70834e+8 
           5810        1.688e+8 
           5830      1.66779e+8 
           5850      1.64826e+8 
           5870      1.59047e+8 
           5890      1.60803e+8 
           5910       1.5907e+8 
           5930      1.57195e+8 
           5950      1.55342e+8 
           5970      1.53574e+8 
           5990      1.51773e+8 
           6010      1.50034e+8 
           6030      1.48305e+8 
           6050      1.46606e+8 
           6070      1.44925e+8 
           6090      1.43264e+8 
           6110      1.41641e+8 
           6130      1.40027e+8 
           6150      1.38411e+8 
           6170      1.36881e+8 
           6190      1.35339e+8 
           6210      1.33815e+8 
           6230      1.32316e+8 
           6250      1.30834e+8 
           6270      1.29388e+8 
           6290      1.27947e+8 
           6310      1.26522e+8 
           6330      1.25132e+8 
           6350      1.23691e+8 
           6370      1.22367e+8 
           6390      1.21049e+8 
           6410      1.19726e+8 
           6430      1.18427e+8 
           6450      1.17141e+8 
           6470      1.15851e+8 
           6490      1.14611e+8 
           6510      1.13383e+8 
           6530      1.12027e+8 
           6550      1.08815e+8 
           6570      9.78635e+7 
           6590      1.07932e+8 
           6610      1.07443e+8 
           6630      1.06316e+8 
           6650      1.05269e+8 
           6670      1.03394e+8 
           6690      1.02322e+8 
           6710       1.0198e+8 
           6730      1.00909e+8 
           6750      9.98659e+7 
           6770      9.88246e+7 
           6790      9.77612e+7 
           6810      9.67816e+7 
           6830      9.57876e+7 
           6850      9.48036e+7 
           6870      9.38293e+7 
           6890      9.28648e+7 
           6910      9.19177e+7 
           6930      9.09722e+7 
           6950      9.00516e+7 
           6970      8.91401e+7 
           6990      8.82298e+7 
           7010      8.73514e+7 
           7030      8.64663e+7 
           7050      8.55974e+7 
           7070      8.34934e+7 
           7090      8.38998e+7 
           7110      8.30633e+7 
           7130      8.22349e+7 
           7150      8.14217e+7 
           7170      8.05944e+7 
           7190      7.98187e+7 
           7210      7.90359e+7 
           7230      7.80011e+7 
           7250      7.74853e+7 
           7270      7.67317e+7 
           7290       7.5411e+7 
           7310      7.52315e+7 
           7330        7.452e+7 
           7350      7.37943e+7 
           7370      7.30822e+7 
           7390      7.23836e+7 
           7410      7.16847e+7 
           7430       7.0999e+7 
           7450      7.03332e+7 
           7470      6.96601e+7 
           7490      6.89998e+7 
           7510      6.83121e+7 
           7530      6.76973e+7 
           7550      6.70549e+7 
           7570      6.64249e+7 
           7590      6.58007e+7 
           7610       6.5182e+7 
           7630      6.45729e+7 
           7650      6.39698e+7 
           7670      6.33754e+7 
           7690      6.27818e+7 
           7710      6.21979e+7 
           7730      6.16293e+7 
           7750      6.10532e+7 
           7770       6.0466e+7 
           7790      5.99436e+7 
           7810      5.93449e+7 
           7830      5.88522e+7 
           7850      5.83766e+7 
           7870      5.78443e+7 
           7890      5.72779e+7 
           7910      5.67628e+7 
           7930      5.61623e+7 
           7950      5.56333e+7 
           7970         5.51e+7 
           7990      5.46334e+7 
           8010      5.41395e+7 
           8030      5.36803e+7 
           8050      5.32371e+7 
           8070      5.27914e+7 
           8090      5.22147e+7 
           8110      5.18039e+7 
           8130      5.14285e+7 
           8150      5.08617e+7 
           8170       5.0539e+7 
           8190      5.00482e+7 
           8210      4.94139e+7 
           8230      4.91374e+7 
           8250      4.87156e+7 
           8270      4.80451e+7 
           8290      4.78032e+7 
           8310      4.74059e+7 
           8330      4.69885e+7 
           8350      4.63687e+7 
           8370      4.60043e+7 
           8390      4.56611e+7 
           8410      4.52199e+7 
           8430      4.48068e+7 
           8450      4.42515e+7 
           8470      4.36447e+7 
           8490      4.40022e+7 
           8510      4.26762e+7 
           8530        4.356e+7 
           8550      4.12791e+7 
           8570      4.35852e+7 
           8590      4.12631e+7 
