# Kurucz ODFNEW /NOVER (2003)
# teff = 29000 K (value for the effective temperature for the model. Temperatures are given in K)
# logg = 5 log(cm/s2) (value for Log(G) for the model.)
# meta = -1  (value for the Metallicity for the model.)
# lh = 1.25  (l/Hp where l is the  mixing length of the convective element and Hp is the pressure scale height)
# vtur = 2 km/s (Microturbulence velocity)
# alpha = 0  (Alpha)
#
# column 1: WAVELENGTH (ANGSTROM), Wavelength in Angstrom
# column 2: FLUX (ERG/CM2/S/A), Flux in erg/cm2/s/A
          147.2     7.62175e-10 
            151      2.67185e-9 
          155.2      9.99324e-9 
          158.8       2.9375e-8 
            162      7.37511e-8 
            166      2.22119e-7 
          170.3      6.86832e-7 
          173.4      1.49852e-6 
          176.8      3.41787e-6 
          180.2      7.55871e-6 
          181.7       1.0627e-5 
          186.1      2.79981e-5 
            191       7.8132e-5 
          193.9     0.000139931 
          198.4     0.000334077 
          201.8     0.000628048 
            205      0.00111571 
          210.5      0.00287583 
          216.2       0.0072837 
          219.8       0.0127705 
            223       0.0207088 
          226.8       0.0361179 
            230         3.73062 
            234         9.12445 
            240         17.9372 
          246.5         36.1687 
          252.4         66.9713 
          256.8         94.6647 
            260          140.56 
            264         198.359 
          268.5         298.636 
          273.5          458.05 
          278.5         688.789 
            284         1087.83 
            290         1700.48 
            296         2614.31 
            301         3635.61 
            308         5452.93 
            318         11131.6 
            328         19629.6 
            338         34631.2 
            348         57851.4 
            357         95476.3 
            366          147839 
            375          212182 
            385          322428 
            395          475134 
            405          677183 
            414          929735 
            422      1.18497e+6 
            430      1.52448e+6 
            441      2.11202e+6 
            451      2.80656e+6 
            460      3.52961e+6 
            470      4.58999e+6 
            480      5.82786e+6 
            490      7.35258e+6 
            500       9.2044e+6 
            506      4.22496e+7 
            512      1.75672e+8 
            520      1.90064e+8 
            530       2.1893e+8 
            540      2.15586e+8 
            550      2.67858e+8 
            560      2.90956e+8 
            570      3.24099e+8 
            580       3.1303e+8 
            590       3.6739e+8 
            600       3.9116e+8 
            610       4.2645e+8 
            620      4.54702e+8 
            630      4.84063e+8 
            640      4.89665e+8 
            650      5.35339e+8 
            658      5.62931e+8 
            665      5.89162e+8 
            675      6.03238e+8 
            685      6.17829e+8 
            695      7.01804e+8 
            705      7.13431e+8 
            716       7.7285e+8 
            726      7.97379e+8 
            735      8.30342e+8 
            745      8.84629e+8 
            755      9.21559e+8 
            765      9.61739e+8 
            775      1.00651e+9 
            785      1.05721e+9 
            795      1.08609e+9 
            805      1.12317e+9 
            815      1.15158e+9 
            825      1.20841e+9 
            835      1.18299e+9 
            845      1.26501e+9 
            855      1.29831e+9 
            865      1.34968e+9 
            875      1.40344e+9 
            885      1.45497e+9 
            895      1.49605e+9 
            905      1.51304e+9 
            915      1.69618e+9 
            925      6.52433e+9 
            935     1.47753e+10 
            945     3.61794e+10 
            955     4.89074e+10 
            965     6.58814e+10 
            975     2.31857e+10 
            985     7.10805e+10 
            995     6.58993e+10 
           1005     7.02005e+10 
           1015     6.39167e+10 
           1025     2.34193e+10 
           1035     5.62127e+10 
           1045      7.0918e+10 
           1055     6.83073e+10 
           1065     6.05637e+10 
           1075     6.33411e+10 
           1085     5.69114e+10 
           1095     6.17616e+10 
           1105     5.86156e+10 
           1115     5.74931e+10 
           1125     5.16504e+10 
           1135     5.51719e+10 
           1145     5.09107e+10 
           1155     5.17132e+10 
           1165     5.05822e+10 
           1175     3.98307e+10 
           1185     4.70836e+10 
           1195     4.44074e+10 
           1205     3.77787e+10 
           1215     1.63179e+10 
           1225     3.72104e+10 
           1235     4.20911e+10 
           1245     4.11844e+10 
           1255     4.07555e+10 
           1265     4.01066e+10 
           1275     3.98763e+10 
           1285     3.90276e+10 
           1295     3.51227e+10 
           1305     3.54072e+10 
           1315      3.6435e+10 
           1325     3.48635e+10 
           1335     3.35357e+10 
           1345     3.33367e+10 
           1355     3.31727e+10 
           1365     3.16653e+10 
           1375     3.11466e+10 
           1385     3.04923e+10 
           1395     2.71683e+10 
           1405     2.73898e+10 
           1415     2.81631e+10 
           1425     2.70939e+10 
           1435     2.70762e+10 
           1442     2.71075e+10 
           1447     2.66595e+10 
           1455     2.60736e+10 
           1465     2.52572e+10 
           1475     2.48051e+10 
           1485      2.4344e+10 
           1495     2.37733e+10 
           1505     2.26551e+10 
           1512     2.18806e+10 
           1517     2.19297e+10 
           1525     2.16387e+10 
           1535     1.99539e+10 
           1545     1.95859e+10 
           1555     1.88737e+10 
           1565     1.93531e+10 
           1575     1.94696e+10 
           1585     1.92217e+10 
           1595     1.89651e+10 
           1605      1.8203e+10 
           1615     1.77068e+10 
           1625     1.76835e+10 
           1635      1.7637e+10 
           1645     1.70084e+10 
           1655     1.71363e+10 
           1665     1.69243e+10 
           1672     1.64729e+10 
           1677     1.69227e+10 
           1685     1.65143e+10 
           1695     1.60525e+10 
           1705     1.55991e+10 
           1715     1.51129e+10 
           1725     1.48166e+10 
           1735     1.48278e+10 
           1745     1.45309e+10 
           1755     1.43817e+10 
           1765      1.3912e+10 
           1775     1.36361e+10 
           1785     1.35523e+10 
           1795     1.34403e+10 
           1805     1.33196e+10 
           1815     1.28175e+10 
           1825      1.2725e+10 
           1835     1.24792e+10 
           1845     1.17235e+10 
           1855     1.15766e+10 
           1865     1.16131e+10 
           1875     1.16149e+10 
           1885     1.08728e+10 
           1895     1.03857e+10 
           1905     1.07122e+10 
           1915     1.03027e+10 
           1925      9.96472e+9 
           1935     1.01652e+10 
           1945     1.02253e+10 
           1955      9.56425e+9 
           1967      9.78851e+9 
           1976      9.96295e+9 
           1984      9.49017e+9 
           1995      9.21221e+9 
           2005      9.28501e+9 
           2015      9.26508e+9 
           2025      9.25235e+9 
           2035      8.85998e+9 
           2045      8.74778e+9 
           2055      8.31467e+9 
           2065      8.22736e+9 
           2074      8.37532e+9 
           2078      8.07571e+9 
           2085      8.08665e+9 
           2095      7.89213e+9 
           2105      8.05326e+9 
           2115      8.01257e+9 
           2125      7.98372e+9 
           2135      7.83043e+9 
           2145      7.63739e+9 
           2155      7.60894e+9 
           2165       7.5069e+9 
           2175      7.38754e+9 
           2185      7.28393e+9 
           2195      7.21373e+9 
           2205      7.10575e+9 
           2215       7.0005e+9 
           2225      6.88803e+9 
           2235      6.77306e+9 
           2245      6.70904e+9 
           2255      6.58521e+9 
           2265      6.52014e+9 
           2275      6.42939e+9 
           2285      6.34178e+9 
           2295      6.11183e+9 
           2305      6.14769e+9 
           2315      6.05764e+9 
           2325      5.97749e+9 
           2335      5.87755e+9 
           2345      5.82184e+9 
           2355      5.74649e+9 
           2365       5.6685e+9 
           2375      5.58112e+9 
           2385      5.49713e+9 
           2395      5.42866e+9 
           2405      5.35815e+9 
           2415      5.28318e+9 
           2425      5.22311e+9 
           2435      5.13868e+9 
           2445      5.07826e+9 
           2455       5.0181e+9 
           2465       4.9513e+9 
           2475      4.88345e+9 
           2485      4.81854e+9 
           2495      4.57569e+9 
           2505      4.68361e+9 
           2513       4.5544e+9 
           2518      4.60056e+9 
           2525      4.57113e+9 
           2535      4.51309e+9 
           2545      4.42157e+9 
           2555      4.38396e+9 
           2565      4.33845e+9 
           2575       4.2867e+9 
           2585      4.23443e+9 
           2595      4.18121e+9 
           2605        4.149e+9 
           2615      4.09706e+9 
           2625      4.04797e+9 
           2635      3.99712e+9 
           2645      3.94428e+9 
           2655      3.89421e+9 
           2665       3.8294e+9 
           2675      3.78039e+9 
           2685      3.75777e+9 
           2695      3.67065e+9 
           2705      3.65483e+9 
           2715      3.61452e+9 
           2725      3.54461e+9 
           2735      3.52513e+9 
           2745       3.4811e+9 
           2755      3.44505e+9 
           2765      3.37406e+9 
           2775      3.36906e+9 
           2785      3.32655e+9 
           2795      3.24559e+9 
           2805      3.23427e+9 
           2815      3.21295e+9 
           2825      3.13912e+9 
           2835      3.09006e+9 
           2845      3.10105e+9 
           2855      3.06208e+9 
           2865      3.02826e+9 
           2875      2.99364e+9 
           2885      2.95971e+9 
           2895      2.92514e+9 
           2910      2.87282e+9 
           2930      2.80938e+9 
           2950       2.7212e+9 
           2970       2.6851e+9 
           2990      2.62334e+9 
           3010      2.56186e+9 
           3030      2.51116e+9 
           3050      2.45732e+9 
           3070      2.40514e+9 
           3090      2.34274e+9 
           3110      2.30195e+9 
           3130       2.2529e+9 
           3150       2.2057e+9 
           3170       2.1582e+9 
           3190      2.09343e+9 
           3210      2.06918e+9 
           3230      2.02547e+9 
           3250      1.98432e+9 
           3270      1.94539e+9 
           3290      1.90298e+9 
           3310      1.86764e+9 
           3330      1.82941e+9 
           3350      1.78984e+9 
           3370      1.75711e+9 
           3390      1.72294e+9 
           3410      1.68901e+9 
           3430      1.64863e+9 
           3450      1.61051e+9 
           3470      1.58358e+9 
           3490      1.55293e+9 
           3510      1.52495e+9 
           3530      1.49756e+9 
           3550      1.46997e+9 
           3570      1.45216e+9 
           3590      1.41135e+9 
           3610      1.39171e+9 
           3630       1.3602e+9 
           3640      1.36022e+9 
           3650      1.33445e+9 
           3670      1.31614e+9 
           3690      1.29301e+9 
           3710      1.25072e+9 
           3730      1.21097e+9 
           3750      1.19324e+9 
           3770      1.15676e+9 
           3790      1.19399e+9 
           3810      1.23781e+9 
           3830      1.08482e+9 
           3850      1.26974e+9 
           3870       1.2934e+9 
           3890      1.01553e+9 
           3910      1.27158e+9 
           3930      1.26557e+9 
           3950      1.23036e+9 
           3970       9.4232e+8 
           3990      1.17547e+9 
           4010      1.18407e+9 
           4030      1.10433e+9 
           4050      1.15879e+9 
           4070      1.12321e+9 
           4090      1.01096e+9 
           4110      8.84256e+8 
           4130      1.05305e+9 
           4150      1.04964e+9 
           4170      1.04399e+9 
           4190      1.02862e+9 
           4210      1.01304e+9 
           4230      9.95234e+8 
           4250       9.7594e+8 
           4270      9.53059e+8 
           4290      9.39526e+8 
           4310       9.1371e+8 
           4330      8.08921e+8 
           4350      7.38228e+8 
           4370      8.65001e+8 
           4390      8.35478e+8 
           4410       8.4938e+8 
           4430      8.36449e+8 
           4450      8.24971e+8 
           4470      7.66529e+8 
           4490      7.97014e+8 
           4510      7.87368e+8 
           4530       7.7463e+8 
           4550      7.61411e+8 
           4570      7.48989e+8 
           4590       7.3704e+8 
           4610      7.25305e+8 
           4630      7.13886e+8 
           4650       6.9781e+8 
           4670      6.91396e+8 
           4690      6.80562e+8 
           4710      6.59715e+8 
           4730      6.60126e+8 
           4750      6.49302e+8 
           4770      6.41402e+8 
           4790      6.30835e+8 
           4810      6.18859e+8 
           4830      6.03361e+8 
           4850      5.45783e+8 
           4870      4.87858e+8 
           4890      5.73426e+8 
           4910       5.7203e+8 
           4930      5.48876e+8 
           4950      5.58517e+8 
           4970      5.51378e+8 
           4990      5.43139e+8 
           5010      5.26308e+8 
           5030      5.27224e+8 
           5050      5.16113e+8 
           5070       5.1224e+8 
           5090      5.04761e+8 
           5110      4.97471e+8 
           5130      4.90021e+8 
           5150      4.82998e+8 
           5170      4.76449e+8 
           5190      4.69791e+8 
           5210      4.63041e+8 
           5230      4.56641e+8 
           5250       4.5023e+8 
           5270      4.43889e+8 
           5290      4.37753e+8 
           5310      4.31655e+8 
           5330      4.25703e+8 
           5350      4.19776e+8 
           5370       4.1412e+8 
           5390       4.0842e+8 
           5410      4.02806e+8 
           5430      3.97391e+8 
           5450      3.91969e+8 
           5470       3.8669e+8 
           5490      3.81515e+8 
           5510      3.76443e+8 
           5530      3.71372e+8 
           5550      3.66486e+8 
           5570      3.61601e+8 
           5590      3.56848e+8 
           5610      3.52117e+8 
           5630      3.47528e+8 
           5650      3.42854e+8 
           5670      3.38154e+8 
           5690      3.33489e+8 
           5710      3.29655e+8 
           5730      3.25441e+8 
           5750       3.2105e+8 
           5770      3.17177e+8 
           5790      3.13112e+8 
           5810      3.09119e+8 
           5830       3.0514e+8 
           5850      3.01306e+8 
           5870      2.86858e+8 
           5890      2.92515e+8 
           5910       2.9001e+8 
           5930      2.86311e+8 
           5950      2.82719e+8 
           5970       2.7939e+8 
           5990      2.75826e+8 
           6010      2.72481e+8 
           6030      2.69102e+8 
           6050      2.65833e+8 
           6070      2.62602e+8 
           6090      2.59397e+8 
           6110      2.56248e+8 
           6130      2.53145e+8 
           6150      2.49968e+8 
           6170      2.47014e+8 
           6190      2.44093e+8 
           6210      2.41185e+8 
           6230      2.38309e+8 
           6250      2.35446e+8 
           6270      2.32662e+8 
           6290      2.29918e+8 
           6310      2.27195e+8 
           6330       2.2454e+8 
           6350      2.21847e+8 
           6370      2.19296e+8 
           6390      2.16744e+8 
           6410       2.1422e+8 
           6430       2.1176e+8 
           6450      2.09308e+8 
           6470      2.06792e+8 
           6490      2.04428e+8 
           6510      2.01574e+8 
           6530      1.98114e+8 
           6550      1.86879e+8 
           6570      1.65355e+8 
           6590      1.89353e+8 
           6610      1.90072e+8 
           6630      1.88601e+8 
           6650      1.86761e+8 
           6670      1.82298e+8 
           6690      1.80343e+8 
           6710      1.80599e+8 
           6730      1.78546e+8 
           6750       1.7663e+8 
           6770      1.74675e+8 
           6790      1.72577e+8 
           6810      1.70834e+8 
           6830      1.68963e+8 
           6850      1.67135e+8 
           6870      1.65317e+8 
           6890      1.63501e+8 
           6910       1.6172e+8 
           6930      1.60003e+8 
           6950      1.58281e+8 
           6970      1.56583e+8 
           6990      1.54901e+8 
           7010      1.53244e+8 
           7030      1.51611e+8 
           7050      1.50002e+8 
           7070      1.45876e+8 
           7090      1.46845e+8 
           7110       1.4529e+8 
           7130      1.43765e+8 
           7150      1.42261e+8 
           7170      1.40758e+8 
           7190      1.39306e+8 
           7210       1.3786e+8 
           7230      1.35851e+8 
           7250      1.34995e+8 
           7270      1.33619e+8 
           7290      1.31087e+8 
           7310      1.30871e+8 
           7330      1.29548e+8 
           7350      1.28223e+8 
           7370      1.26918e+8 
           7390      1.25625e+8 
           7410      1.24357e+8 
           7430      1.23095e+8 
           7450      1.21872e+8 
           7470      1.20599e+8 
           7490      1.19432e+8 
           7510      1.18202e+8 
           7530      1.17057e+8 
           7550      1.15895e+8 
           7570      1.14738e+8 
           7590      1.13605e+8 
           7610      1.12468e+8 
           7630      1.11375e+8 
           7650      1.10278e+8 
           7670      1.09198e+8 
           7690      1.08127e+8 
           7710      1.07073e+8 
           7730      1.06028e+8 
           7750      1.04998e+8 
           7770       1.0394e+8 
           7790      1.02973e+8 
           7810      1.01933e+8 
           7830      1.01002e+8 
           7850      1.00115e+8 
           7870      9.91382e+7 
           7890      9.81339e+7 
           7910      9.72771e+7 
           7930      9.63497e+7 
           7950      9.54244e+7 
           7970      9.44242e+7 
           7990      9.35862e+7 
           8010      9.26262e+7 
           8030      9.16863e+7 
           8050      9.08243e+7 
           8070      9.00161e+7 
           8090       8.9065e+7 
           8110      8.82826e+7 
           8130      8.75581e+7 
           8150      8.66865e+7 
           8170      8.59635e+7 
           8190      8.50499e+7 
           8210      8.40994e+7 
           8230      8.34854e+7 
           8250      8.27712e+7 
           8270      8.16552e+7 
           8290      8.12398e+7 
           8310      8.05491e+7 
           8330      7.97665e+7 
           8350      7.87148e+7 
           8370      7.82423e+7 
           8390      7.76503e+7 
           8410      7.69512e+7 
           8430       7.6226e+7 
           8450      7.50478e+7 
           8470      7.48828e+7 
           8490      7.40496e+7 
           8510      7.35199e+7 
           8530      7.27044e+7 
           8550      7.19987e+7 
           8570      7.17195e+7 
           8590      6.98083e+7 
