# Kurucz ODFNEW /NOVER (2003)
# teff = 7250 K (value for the effective temperature for the model. Temperatures are given in K)
# logg = 4 log(cm/s2) (value for Log(G) for the model.)
# meta = -2.5  (value for the Metallicity for the model.)
# lh = 1.25  (l/Hp where l is the  mixing length of the convective element and Hp is the pressure scale height)
# vtur = 2 km/s (Microturbulence velocity)
# alpha = 0  (Alpha)
#
# column 1: WAVELENGTH (ANGSTROM), Wavelength in Angstrom
# column 2: FLUX (ERG/CM2/S/A), Flux in erg/cm2/s/A
            328     7.68453e-23 
            338     8.82896e-22 
            348     8.27035e-21 
            357     5.53585e-20 
            366     3.36384e-19 
            375      1.8689e-18 
            385     1.13976e-17 
            395       6.322e-17 
            405     3.21205e-16 
            414     1.25713e-17 
            422     3.85183e-17 
            430     1.12876e-16 
            441     4.62425e-16 
            451      1.5622e-15 
            460     4.45132e-15 
            470     1.35498e-14 
            480     3.92116e-14 
            490     1.08334e-13 
            500     2.86149e-13 
            506     6.66202e-13 
            512     1.29966e-12 
            520     2.63557e-12 
            530     6.21878e-12 
            540     1.39361e-11 
            550      3.0634e-11 
            560     6.48861e-11 
            570     1.33496e-10 
            580     2.64136e-10 
            590     5.21036e-10 
            600     9.91186e-10 
            610      1.84183e-9 
            620      3.34685e-9 
            630       5.9543e-9 
            640      1.03867e-8 
            650      1.77763e-8 
            658      2.69632e-8 
            665      3.84648e-8 
            675      6.29797e-8 
            685      1.01451e-7 
            695      1.60909e-7 
            705      2.51441e-7 
            716      4.04157e-7 
            726      6.13394e-7 
            735      8.83272e-7 
            745      1.30919e-6 
            755      1.91727e-6 
            765      2.77578e-6 
            775      3.97469e-6 
            785      5.63158e-6 
            795      7.89789e-6 
            805      1.09701e-5 
            815      1.50941e-5 
            825      2.05843e-5 
            835      2.78333e-5 
            845      3.73218e-5 
            855      4.96431e-5 
            865      6.55201e-5 
            875      8.58291e-5 
            885      0.00011164 
            895     0.000144206 
            905      0.00018501 
            915        0.381065 
            925         2.64967 
            935         4.68851 
            945         8.31228 
            955         11.8514 
            965         15.3164 
            975         12.5396 
            985         26.3086 
            995          32.186 
           1005         38.5224 
           1015         37.7196 
           1025         30.3729 
           1035         58.4494 
           1045          86.701 
           1055         103.742 
           1065         128.308 
           1075         154.812 
           1085         187.701 
           1095         216.444 
           1105         276.022 
           1115         342.904 
           1125         384.312 
           1135         455.681 
           1145         510.371 
           1155          541.87 
           1165         596.061 
           1175         459.647 
           1185         784.244 
           1195          521.45 
           1205         347.353 
           1215         159.488 
           1225         405.619 
           1235          859.73 
           1245         412.621 
           1255         833.001 
           1265          1943.2 
           1275         2365.41 
           1285         2911.67 
           1295         3537.88 
           1305          4139.1 
           1315         4954.14 
           1325         5786.26 
           1335         6708.62 
           1345         7888.51 
           1355         8997.06 
           1365         10474.2 
           1375         11812.4 
           1385         13182.4 
           1395         14910.2 
           1405           16536 
           1415         19122.2 
           1425         20717.5 
           1435         22910.5 
           1442         25668.9 
           1447           25625 
           1455         28354.9 
           1465         29799.9 
           1475         33047.4 
           1485         36111.1 
           1495         40005.4 
           1505         44004.5 
           1512         46814.7 
           1517         46452.5 
           1525         49653.4 
           1535         52946.5 
           1545         55195.7 
           1555         58027.9 
           1565         58179.3 
           1575         63608.7 
           1585         67580.3 
           1595         72239.8 
           1605         76433.2 
           1615         85715.9 
           1625         99000.7 
           1635          130924 
           1645          290967 
           1655          569078 
           1665      1.71186e+6 
           1672      2.22716e+6 
           1677      3.14489e+6 
           1685      4.28434e+6 
           1695      5.34996e+6 
           1705       6.4961e+6 
           1715      7.69284e+6 
           1725       8.2287e+6 
           1735      9.13382e+6 
           1745      9.22491e+6 
           1755      9.94289e+6 
           1765      9.26748e+6 
           1775       1.0152e+7 
           1785       1.0391e+7 
           1795      1.10931e+7 
           1805      1.08684e+7 
           1815      1.10623e+7 
           1825      1.08299e+7 
           1835      1.13358e+7 
           1845      1.07457e+7 
           1855      1.13259e+7 
           1865      1.17929e+7 
           1875      1.18957e+7 
           1885      1.20614e+7 
           1895      1.23887e+7 
           1905      1.21707e+7 
           1915      1.26942e+7 
           1925      1.30852e+7 
           1935      1.26515e+7 
           1945       1.3417e+7 
           1955       1.3494e+7 
           1967      1.39121e+7 
           1976       1.3556e+7 
           1984      1.36259e+7 
           1995      1.38168e+7 
           2005       1.3535e+7 
           2015      1.37183e+7 
           2025      1.32736e+7 
           2035      1.42533e+7 
           2045      1.45601e+7 
           2055      1.42948e+7 
           2065      1.43307e+7 
           2074      1.50552e+7 
           2078      1.50331e+7 
           2085      1.49817e+7 
           2095      1.48236e+7 
           2105       1.4786e+7 
           2115      1.50777e+7 
           2125      1.51856e+7 
           2135      1.45734e+7 
           2145      1.53041e+7 
           2155      1.52029e+7 
           2165      1.48257e+7 
           2175      1.49764e+7 
           2185      1.53218e+7 
           2195      1.58807e+7 
           2205      1.55758e+7 
           2215      1.49963e+7 
           2225      1.54173e+7 
           2235      1.63016e+7 
           2245      1.58241e+7 
           2255      1.52921e+7 
           2265      1.49841e+7 
           2275      1.57683e+7 
           2285      1.59769e+7 
           2295       1.5514e+7 
           2305      1.58895e+7 
           2315       1.5891e+7 
           2325      1.59163e+7 
           2335      1.59647e+7 
           2345      1.49814e+7 
           2355      1.62674e+7 
           2365      1.53676e+7 
           2375      1.60025e+7 
           2385      1.47321e+7 
           2395      1.58579e+7 
           2405      1.57556e+7 
           2415      1.58392e+7 
           2425      1.65128e+7 
           2435      1.61329e+7 
           2445      1.64278e+7 
           2455      1.63843e+7 
           2465      1.61214e+7 
           2475      1.58604e+7 
           2485      1.60191e+7 
           2495      1.58268e+7 
           2505      1.67826e+7 
           2513      1.59881e+7 
           2518      1.58563e+7 
           2525      1.53809e+7 
           2535      1.53887e+7 
           2545      1.54245e+7 
           2555      1.64034e+7 
           2565      1.64234e+7 
           2575       1.6945e+7 
           2585      1.70893e+7 
           2595      1.70467e+7 
           2605      1.67157e+7 
           2615      1.66008e+7 
           2625       1.6901e+7 
           2635      1.70486e+7 
           2645      1.81024e+7 
           2655      1.80647e+7 
           2665      1.74419e+7 
           2675      1.77724e+7 
           2685      1.80855e+7 
           2695      1.76719e+7 
           2705      1.77542e+7 
           2715      1.71938e+7 
           2725      1.72621e+7 
           2735      1.75718e+7 
           2745       1.6479e+7 
           2755      1.67438e+7 
           2765      1.73724e+7 
           2775      1.78213e+7 
           2785      1.76561e+7 
           2795      1.54501e+7 
           2805      1.65467e+7 
           2815      1.83306e+7 
           2825      1.82227e+7 
           2835      1.79257e+7 
           2845       1.7784e+7 
           2855      1.71901e+7 
           2865      1.76885e+7 
           2875      1.76892e+7 
           2885      1.79769e+7 
           2895      1.81491e+7 
           2910       1.8447e+7 
           2930      1.81315e+7 
           2950      1.79614e+7 
           2970      1.80483e+7 
           2990      1.80963e+7 
           3010      1.81207e+7 
           3030      1.81703e+7 
           3050      1.82049e+7 
           3070      1.81967e+7 
           3090      1.82377e+7 
           3110      1.81994e+7 
           3130      1.82095e+7 
           3150      1.82869e+7 
           3170      1.82829e+7 
           3190      1.79437e+7 
           3210      1.80722e+7 
           3230      1.78852e+7 
           3250      1.80645e+7 
           3270      1.82388e+7 
           3290       1.8278e+7 
           3310      1.82768e+7 
           3330      1.81011e+7 
           3350      1.79273e+7 
           3370      1.79377e+7 
           3390      1.78692e+7 
           3410      1.79998e+7 
           3430      1.79688e+7 
           3450      1.78526e+7 
           3470      1.78351e+7 
           3490      1.78605e+7 
           3510       1.7904e+7 
           3530       1.7874e+7 
           3550      1.78917e+7 
           3570      1.76631e+7 
           3590      1.76396e+7 
           3610      1.76173e+7 
           3630      1.76487e+7 
           3640       1.7669e+7 
           3650      1.77264e+7 
           3670      1.77321e+7 
           3690      1.70172e+7 
           3710      1.77848e+7 
           3730      1.81069e+7 
           3750      2.19003e+7 
           3770      2.27547e+7 
           3790      2.58705e+7 
           3810      2.89812e+7 
           3830      2.42535e+7 
           3850      3.10177e+7 
           3870      3.32184e+7 
           3890      2.28015e+7 
           3910      3.32445e+7 
           3930      3.38095e+7 
           3950      3.32773e+7 
           3970      2.22521e+7 
           3990      3.24335e+7 
           4010      3.44771e+7 
           4030      3.45486e+7 
           4050      3.42473e+7 
           4070      3.31565e+7 
           4090      2.87455e+7 
           4110      2.35733e+7 
           4130       3.2379e+7 
           4150      3.31133e+7 
           4170      3.31452e+7 
           4190      3.29196e+7 
           4210      3.26544e+7 
           4230      3.23316e+7 
           4250      3.21928e+7 
           4270      3.18526e+7 
           4290      3.15686e+7 
           4310      3.05604e+7 
           4330      2.57256e+7 
           4350      2.26904e+7 
           4370      2.98888e+7 
           4390      3.04048e+7 
           4410      3.03892e+7 
           4430      3.03477e+7 
           4450      3.01688e+7 
           4470      2.99824e+7 
           4490      2.97906e+7 
           4510      2.95955e+7 
           4530      2.93531e+7 
           4550      2.91175e+7 
           4570      2.89786e+7 
           4590      2.87642e+7 
           4610      2.85896e+7 
           4630      2.83713e+7 
           4650      2.81852e+7 
           4670       2.7991e+7 
           4690      2.77819e+7 
           4710      2.75362e+7 
           4730      2.73948e+7 
           4750      2.71663e+7 
           4770      2.69373e+7 
           4790      2.66832e+7 
           4810      2.63364e+7 
           4830      2.56004e+7 
           4850      2.21721e+7 
           4870      1.88612e+7 
           4890      2.47208e+7 
           4910      2.53527e+7 
           4930      2.53071e+7 
           4950      2.52491e+7 
           4970      2.51378e+7 
           4990      2.49805e+7 
           5010       2.4774e+7 
           5030      2.46503e+7 
           5050      2.44658e+7 
           5070      2.43054e+7 
           5090      2.41322e+7 
           5110      2.39653e+7 
           5130      2.37917e+7 
           5150      2.36144e+7 
           5170      2.32812e+7 
           5190      2.31959e+7 
           5210      2.31028e+7 
           5230      2.29292e+7 
           5250      2.28163e+7 
           5270      2.25987e+7 
           5290      2.24928e+7 
           5310       2.2333e+7 
           5330      2.21498e+7 
           5350      2.20266e+7 
           5370      2.18589e+7 
           5390      2.17113e+7 
           5410      2.15472e+7 
           5430      2.14054e+7 
           5450      2.12562e+7 
           5470      2.11186e+7 
           5490      2.09788e+7 
           5510       2.0833e+7 
           5530       2.0685e+7 
           5550      2.05472e+7 
           5570      2.03987e+7 
           5590      2.02542e+7 
           5610      2.01184e+7 
           5630      1.99853e+7 
           5650      1.98476e+7 
           5670      1.97101e+7 
           5690      1.95765e+7 
           5710      1.94407e+7 
           5730      1.93098e+7 
           5750      1.91769e+7 
           5770      1.90464e+7 
           5790      1.89162e+7 
           5810      1.87873e+7 
           5830      1.86586e+7 
           5850      1.85291e+7 
           5870       1.8403e+7 
           5890      1.82174e+7 
           5910      1.81537e+7 
           5930      1.80304e+7 
           5950      1.79083e+7 
           5970      1.77864e+7 
           5990      1.76647e+7 
           6010      1.75452e+7 
           6030      1.74259e+7 
           6050      1.73088e+7 
           6070      1.71919e+7 
           6090      1.70761e+7 
           6110      1.69604e+7 
           6130      1.68409e+7 
           6150      1.67296e+7 
           6170      1.66154e+7 
           6190      1.65092e+7 
           6210      1.63991e+7 
           6230      1.62881e+7 
           6250      1.61754e+7 
           6270      1.60723e+7 
           6290      1.59655e+7 
           6310      1.58569e+7 
           6330      1.57522e+7 
           6350      1.56475e+7 
           6370      1.55438e+7 
           6390      1.54402e+7 
           6410      1.53349e+7 
           6430      1.52341e+7 
           6450       1.5119e+7 
           6470      1.49924e+7 
           6490      1.48598e+7 
           6510       1.4694e+7 
           6530      1.43771e+7 
           6550      1.31611e+7 
           6570      1.10266e+7 
           6590      1.38311e+7 
           6610      1.41562e+7 
           6630      1.41738e+7 
           6650      1.41219e+7 
           6670      1.40525e+7 
           6690      1.39863e+7 
           6710      1.38939e+7 
           6730      1.38039e+7 
           6750       1.3714e+7 
           6770      1.36249e+7 
           6790      1.35365e+7 
           6810       1.3449e+7 
           6830      1.33615e+7 
           6850      1.32756e+7 
           6870      1.31896e+7 
           6890      1.31044e+7 
           6910        1.302e+7 
           6930      1.29363e+7 
           6950      1.28534e+7 
           6970      1.27704e+7 
           6990       1.2689e+7 
           7010      1.26075e+7 
           7030      1.25267e+7 
           7050      1.24466e+7 
           7070      1.23672e+7 
           7090      1.22886e+7 
           7110      1.22091e+7 
           7130      1.21318e+7 
           7150      1.20552e+7 
           7170      1.19785e+7 
           7190      1.19025e+7 
           7210      1.18271e+7 
           7230      1.17531e+7 
           7250      1.16791e+7 
           7270      1.16049e+7 
           7290      1.15314e+7 
           7310      1.14592e+7 
           7330       1.1387e+7 
           7350       1.1316e+7 
           7370       1.1245e+7 
           7390      1.11738e+7 
           7410      1.11033e+7 
           7430      1.10347e+7 
           7450      1.09661e+7 
           7470      1.08973e+7 
           7490      1.08291e+7 
           7510      1.07622e+7 
           7530      1.06958e+7 
           7550      1.06299e+7 
           7570       1.0564e+7 
           7590      1.04985e+7 
           7610      1.04337e+7 
           7630      1.03693e+7 
           7650      1.03049e+7 
           7670       1.0241e+7 
           7690      1.01789e+7 
           7710      1.01153e+7 
           7730      1.00542e+7 
           7750      9.99176e+6 
           7770      9.92479e+6 
           7790      9.87079e+6 
           7810      9.81041e+6 
           7830      9.74992e+6 
           7850      9.69052e+6 
           7870      9.63159e+6 
           7890      9.57314e+6 
           7910      9.51516e+6 
           7930      9.45704e+6 
           7950      9.39938e+6 
           7970      9.34397e+6 
           7990      9.28722e+6 
           8010      9.23091e+6 
           8030      9.17564e+6 
           8050      9.12022e+6 
           8070      9.06582e+6 
           8090      9.01069e+6 
           8110      8.95713e+6 
           8130      8.90343e+6 
           8150      8.85014e+6 
           8170      8.79727e+6 
           8190        8.742e+6 
           8210      8.69667e+6 
           8230      8.64555e+6 
           8250      8.59649e+6 
           8270       8.5489e+6 
           8290      8.50003e+6 
           8310      8.45098e+6 
           8330      8.39687e+6 
           8350      8.35129e+6 
           8370      8.29691e+6 
           8390      8.24402e+6 
           8410      8.18994e+6 
           8430      8.14689e+6 
           8450      8.09993e+6 
           8470       7.9945e+6 
           8490      8.03214e+6 
           8510       7.8108e+6 
           8530      7.96269e+6 
           8550      7.59102e+6 
           8570       7.9152e+6 
           8590      7.66753e+6 
           8610      7.53742e+6 
           8630      7.83688e+6 
           8650      7.69495e+6 
           8670      7.01047e+6 
           8690      7.69112e+6 
           8710       7.7353e+6 
           8730      7.59955e+6 
           8750      6.73082e+6 
           8770       7.4045e+6 
           8790      7.59221e+6 
           8810      7.58059e+6 
           8830      7.49507e+6 
           8850      7.13945e+6 
           8870      6.44124e+6 
           8890      7.27889e+6 
           8910       7.3777e+6 
           8930      7.37161e+6 
           8950      7.33353e+6 
           8970      7.26107e+6 
           8990      7.09828e+6 
           9010      6.23519e+6 
           9030      6.64143e+6 
           9050      7.03115e+6 
           9070       7.0707e+6 
           9090      7.04965e+6 
           9110      7.03325e+6 
           9130      6.99886e+6 
           9150      6.95435e+6 
           9170      6.89716e+6 
           9190       6.8074e+6 
           9210      6.57934e+6 
           9230      5.67175e+6 
           9250      6.44155e+6 
           9270      6.64394e+6 
           9290      6.66906e+6 
           9310      6.65391e+6 
           9330      6.62628e+6 
           9350      6.60529e+6 
           9370       6.5694e+6 
