# Kurucz ODFNEW /NOVER (2003)
# teff = 9000 K (value for the effective temperature for the model. Temperatures are given in K)
# logg = 4.5 log(cm/s2) (value for Log(G) for the model.)
# meta = -2  (value for the Metallicity for the model.)
# lh = 1.25  (l/Hp where l is the  mixing length of the convective element and Hp is the pressure scale height)
# vtur = 2 km/s (Microturbulence velocity)
# alpha = 0.4  (Alpha)
#
# column 1: WAVELENGTH (ANGSTROM), Wavelength in Angstrom
# column 2: FLUX (ERG/CM2/S/A), Flux in erg/cm2/s/A
            264     1.33966e-23 
          268.5     9.88067e-23 
          273.5     4.52671e-22 
          278.5     1.88588e-21 
            284     8.48734e-21 
            290     4.09058e-20 
            296     1.84633e-19 
            301     6.18728e-19 
            308     3.14293e-18 
            318     2.82011e-17 
            328     2.20528e-16 
            338     1.52128e-15 
            348     9.35882e-15 
            357     4.38748e-14 
            366      1.9017e-13 
            375      7.6613e-13 
            385     3.32849e-12 
            395     1.33845e-11 
            405      5.0102e-11 
            414     1.55265e-10 
            422     4.06782e-10 
            430      1.02652e-9 
            441      3.46083e-9 
            451      9.89882e-9 
            460      2.44625e-8 
            470      6.40491e-8 
            480      1.60759e-7 
            490      3.87885e-7 
            500      9.01694e-7 
            506      1.48846e-6 
            512      2.41104e-6 
            520      4.46837e-6 
            530      9.40228e-6 
            540      1.91995e-5 
            550      3.81636e-5 
            560      7.38827e-5 
            570     0.000139549 
            580     0.000257417 
            590     0.000464759 
            600     0.000821322 
            610      0.00142268 
            620      0.00241787 
            630      0.00403563 
            640      0.00662155 
            650       0.0106875 
            658       0.0154985 
            665       0.0212855 
            675       0.0330819 
            685       0.0507024 
            695       0.0766788 
            705        0.114499 
            716        0.175491 
            726        0.255589 
            735        0.355108 
            745        0.506546 
            755         0.71516 
            765        0.999784 
            775         1.38455 
            785         1.90008 
            795         2.58467 
            805         3.48647 
            815         4.66498 
            825         6.19317 
            835         8.16164 
            845         10.6773 
            855          13.872 
            865         17.9008 
            875         22.9509 
            885         29.2423 
            895          37.035 
            905         46.6321 
            915         85.9225 
            925          321.25 
            935         572.576 
            945          1118.6 
            955         1779.75 
            965          2461.9 
            975         1702.25 
            985          4556.2 
            995         6142.82 
           1005         6960.37 
           1015         5802.19 
           1025         3102.94 
           1035         7523.51 
           1045         12565.3 
           1055         16380.8 
           1065           24541 
           1075         48984.2 
           1085           99915 
           1095          129223 
           1105          374377 
           1115      1.66313e+6 
           1125      1.60202e+6 
           1135      1.59523e+6 
           1145          823703 
           1155          301717 
           1165          108836 
           1175         69573.3 
           1185         70912.5 
           1195         42038.4 
           1205         30384.3 
           1215         12729.3 
           1225         33587.8 
           1235         62374.7 
           1245         82125.7 
           1255          123965 
           1265          185322 
           1275          462446 
           1285      2.12888e+6 
           1295      4.02153e+6 
           1305      6.40386e+6 
           1315      9.84227e+6 
           1325      1.37993e+7 
           1335      1.73451e+7 
           1345      2.15039e+7 
           1355      2.25706e+7 
           1365      2.47241e+7 
           1375      2.21739e+7 
           1385      1.77017e+7 
           1395      1.59032e+7 
           1405      2.71226e+7 
           1415      4.34131e+7 
           1425      4.70192e+7 
           1435      4.56965e+7 
           1442      5.16277e+7 
           1447      4.94471e+7 
           1455      5.36455e+7 
           1465      5.00159e+7 
           1475      5.15599e+7 
           1485      5.19338e+7 
           1495      5.32303e+7 
           1505      5.48971e+7 
           1512      5.46866e+7 
           1517      5.16338e+7 
           1525      5.14385e+7 
           1535      5.00702e+7 
           1545      4.91306e+7 
           1555      4.39279e+7 
           1565      3.56299e+7 
           1575      3.97213e+7 
           1585      3.88722e+7 
           1595      3.84545e+7 
           1605       3.7421e+7 
           1615      4.42316e+7 
           1625      4.86822e+7 
           1635      5.59973e+7 
           1645      6.52755e+7 
           1655      6.00148e+7 
           1665      7.01826e+7 
           1672      6.58297e+7 
           1677      6.93372e+7 
           1685      7.24248e+7 
           1695      6.86552e+7 
           1705      6.91987e+7 
           1715      7.24339e+7 
           1725      7.13901e+7 
           1735      7.33303e+7 
           1745      7.14209e+7 
           1755      7.30286e+7 
           1765      6.86299e+7 
           1775      7.17426e+7 
           1785      7.09575e+7 
           1795      7.27671e+7 
           1805      7.05431e+7 
           1815      7.01065e+7 
           1825      6.88426e+7 
           1835      6.92914e+7 
           1845      6.61076e+7 
           1855      6.81743e+7 
           1865      6.86301e+7 
           1875      6.85515e+7 
           1885      6.84113e+7 
           1895      6.80154e+7 
           1905      6.61987e+7 
           1915      6.71034e+7 
           1925      6.76667e+7 
           1935      6.59116e+7 
           1945      6.76216e+7 
           1955      6.72037e+7 
           1967        6.706e+7 
           1976       6.5395e+7 
           1984      6.49203e+7 
           1995      6.52968e+7 
           2005      6.39846e+7 
           2015      6.29363e+7 
           2025      6.24458e+7 
           2035      6.37094e+7 
           2045      6.34698e+7 
           2055      6.15163e+7 
           2065      6.18567e+7 
           2074      6.28327e+7 
           2078      6.30639e+7 
           2085      6.25883e+7 
           2095      6.19922e+7 
           2105      6.15831e+7 
           2115      6.12472e+7 
           2125      6.08974e+7 
           2135       5.9353e+7 
           2145      6.08528e+7 
           2155      6.00557e+7 
           2165      5.85361e+7 
           2175      5.86187e+7 
           2185      5.87217e+7 
           2195      5.98018e+7 
           2205      5.82595e+7 
           2215      5.59655e+7 
           2225         5.65e+7 
           2235      5.85711e+7 
           2245      5.72095e+7 
           2255      5.56979e+7 
           2265       5.4967e+7 
           2275      5.65805e+7 
           2285      5.68591e+7 
           2295       5.5492e+7 
           2305      5.57285e+7 
           2315       5.5177e+7 
           2325      5.52031e+7 
           2335      5.44528e+7 
           2345      5.18259e+7 
           2355      5.41072e+7 
           2365      5.19957e+7 
           2375      5.32198e+7 
           2385       5.0263e+7 
           2395      5.25541e+7 
           2405      5.19323e+7 
           2415      5.20315e+7 
           2425      5.29415e+7 
           2435      5.15507e+7 
           2445      5.22762e+7 
           2455      5.21325e+7 
           2465      5.09998e+7 
           2475      5.03831e+7 
           2485      5.10265e+7 
           2495      5.01487e+7 
           2505      5.16504e+7 
           2513      5.01654e+7 
           2518      4.97358e+7 
           2525      4.84973e+7 
           2535      4.83382e+7 
           2545      4.86001e+7 
           2555      5.01427e+7 
           2565      4.97731e+7 
           2575       5.0606e+7 
           2585       5.0837e+7 
           2595      5.04018e+7 
           2605      4.96142e+7 
           2615      4.92988e+7 
           2625      4.93657e+7 
           2635       4.9544e+7 
           2645      5.14846e+7 
           2655      5.11851e+7 
           2665        4.997e+7 
           2675      5.03552e+7 
           2685       5.0669e+7 
           2695      4.99643e+7 
           2705      4.98994e+7 
           2715       4.8914e+7 
           2725       4.8855e+7 
           2735      4.93707e+7 
           2745      4.71048e+7 
           2755      4.72067e+7 
           2765      4.80928e+7 
           2775      4.89156e+7 
           2785      4.83692e+7 
           2795      4.36266e+7 
           2805      4.59764e+7 
           2815      4.90248e+7 
           2825      4.87774e+7 
           2835      4.80402e+7 
           2845      4.76612e+7 
           2855      4.67871e+7 
           2865      4.73561e+7 
           2875      4.72916e+7 
           2885      4.73762e+7 
           2895      4.77102e+7 
           2910      4.79804e+7 
           2930       4.7038e+7 
           2950      4.67876e+7 
           2970       4.6749e+7 
           2990      4.64712e+7 
           3010      4.65459e+7 
           3030      4.63479e+7 
           3050      4.60701e+7 
           3070      4.55558e+7 
           3090      4.55322e+7 
           3110      4.53224e+7 
           3130      4.50142e+7 
           3150      4.47405e+7 
           3170      4.46051e+7 
           3190      4.39143e+7 
           3210       4.4005e+7 
           3230      4.34653e+7 
           3250      4.35276e+7 
           3270      4.35394e+7 
           3290      4.34119e+7 
           3310      4.32224e+7 
           3330      4.27625e+7 
           3350      4.23307e+7 
           3370      4.22211e+7 
           3390      4.20063e+7 
           3410      4.20496e+7 
           3430      4.18232e+7 
           3450      4.15866e+7 
           3470      4.13589e+7 
           3490       4.1177e+7 
           3510      4.09965e+7 
           3530      4.08054e+7 
           3550       4.0607e+7 
           3570      4.03188e+7 
           3590      4.01134e+7 
           3610      3.99072e+7 
           3630       3.9706e+7 
           3640      3.95933e+7 
           3650       3.9716e+7 
           3670      3.96283e+7 
           3690      3.84667e+7 
           3710      3.84254e+7 
           3730      3.80983e+7 
           3750      4.59576e+7 
           3770      4.82253e+7 
           3790      5.79227e+7 
           3810      6.83252e+7 
           3830      5.50446e+7 
           3850       7.7031e+7 
           3870      8.87736e+7 
           3890      4.79797e+7 
           3910      8.95737e+7 
           3930      1.00833e+8 
           3950      8.94565e+7 
           3970      4.64957e+7 
           3990      8.43353e+7 
           4010      1.02239e+8 
           4030      1.04708e+8 
           4050      1.02689e+8 
           4070      9.47117e+7 
           4090      6.68641e+7 
           4110      5.09469e+7 
           4130       8.7611e+7 
           4150      9.62686e+7 
           4170      9.76135e+7 
           4190      9.72375e+7 
           4210      9.62733e+7 
           4230      9.48303e+7 
           4250      9.35728e+7 
           4270      9.16177e+7 
           4290      8.84974e+7 
           4310      8.06528e+7 
           4330      5.59401e+7 
           4350      4.76723e+7 
           4370      7.61689e+7 
           4390        8.276e+7 
           4410      8.40373e+7 
           4430      8.38868e+7 
           4450      8.32372e+7 
           4470      8.23978e+7 
           4490       8.1144e+7 
           4510      8.06278e+7 
           4530      7.96953e+7 
           4550      7.87724e+7 
           4570      7.79744e+7 
           4590      7.70425e+7 
           4610       7.6207e+7 
           4630      7.52566e+7 
           4650      7.43667e+7 
           4670      7.34253e+7 
           4690      7.24887e+7 
           4710      7.13871e+7 
           4730      7.07089e+7 
           4750      6.97323e+7 
           4770      6.86189e+7 
           4790      6.71982e+7 
           4810      6.48918e+7 
           4830      5.97063e+7 
           4850      4.44067e+7 
           4870      3.62896e+7 
           4890      5.56143e+7 
           4910       6.0769e+7 
           4930      6.18564e+7 
           4950      6.19357e+7 
           4970      6.15877e+7 
           4990      6.10602e+7 
           5010      6.04251e+7 
           5030        5.988e+7 
           5050      5.93017e+7 
           5070      5.87307e+7 
           5090      5.80985e+7 
           5110      5.74787e+7 
           5130      5.68525e+7 
           5150      5.62399e+7 
           5170      5.53518e+7 
           5190      5.48924e+7 
           5210      5.44607e+7 
           5230      5.38535e+7 
           5250      5.33305e+7 
           5270      5.27136e+7 
           5290      5.22134e+7 
           5310      5.16538e+7 
           5330      5.10945e+7 
           5350         5.06e+7 
           5370      5.00644e+7 
           5390      4.95509e+7 
           5410      4.90282e+7 
           5430      4.85361e+7 
           5450      4.80435e+7 
           5470      4.75556e+7 
           5490      4.70735e+7 
           5510      4.65984e+7 
           5530       4.6119e+7 
           5550      4.56662e+7 
           5570      4.52028e+7 
           5590      4.47425e+7 
           5610      4.43008e+7 
           5630      4.38642e+7 
           5650      4.34267e+7 
           5670      4.29955e+7 
           5690      4.25728e+7 
           5710      4.21514e+7 
           5730      4.17395e+7 
           5750      4.13277e+7 
           5770      4.09263e+7 
           5790      4.05272e+7 
           5810      4.01337e+7 
           5830      3.97446e+7 
           5850      3.93589e+7 
           5870      3.89676e+7 
           5890      3.85676e+7 
           5910      3.82359e+7 
           5930      3.78712e+7 
           5950      3.75075e+7 
           5970       3.7153e+7 
           5990      3.67982e+7 
           6010      3.64525e+7 
           6030      3.61075e+7 
           6050      3.57683e+7 
           6070      3.54338e+7 
           6090      3.51019e+7 
           6110      3.47746e+7 
           6130      3.44468e+7 
           6150      3.41166e+7 
           6170      3.38077e+7 
           6190       3.3503e+7 
           6210      3.31948e+7 
           6230      3.28878e+7 
           6250      3.25793e+7 
           6270      3.22904e+7 
           6290      3.19968e+7 
           6310      3.17034e+7 
           6330       3.1416e+7 
           6350      3.11091e+7 
           6370       3.0837e+7 
           6390      3.05215e+7 
           6410      3.02131e+7 
           6430      2.99106e+7 
           6450      2.95796e+7 
           6470      2.92315e+7 
           6490      2.87877e+7 
           6510      2.81195e+7 
           6530      2.67327e+7 
           6550      2.26262e+7 
           6570      1.84311e+7 
           6590      2.49209e+7 
           6610      2.65785e+7 
           6630      2.69489e+7 
           6650      2.69506e+7 
           6670      2.68256e+7 
           6690      2.66511e+7 
           6710       2.6454e+7 
           6730      2.62546e+7 
           6750      2.60678e+7 
           6770      2.58499e+7 
           6790      2.56276e+7 
           6810      2.54082e+7 
           6830      2.51894e+7 
           6850      2.49759e+7 
           6870      2.47636e+7 
           6890      2.45526e+7 
           6910      2.43452e+7 
           6930       2.4139e+7 
           6950      2.39355e+7 
           6970       2.3734e+7 
           6990      2.35344e+7 
           7010      2.33359e+7 
           7030      2.31415e+7 
           7050       2.2949e+7 
           7070      2.27583e+7 
           7090      2.25694e+7 
           7110      2.23755e+7 
           7130      2.21968e+7 
           7150      2.20117e+7 
           7170      2.18319e+7 
           7190       2.1653e+7 
           7210      2.14751e+7 
           7230      2.12995e+7 
           7250      2.11255e+7 
           7270      2.09538e+7 
           7290      2.07823e+7 
           7310      2.06145e+7 
           7330      2.04467e+7 
           7350      2.02826e+7 
           7370      2.01193e+7 
           7390      1.99574e+7 
           7410      1.97949e+7 
           7430      1.96366e+7 
           7450      1.94811e+7 
           7470      1.93236e+7 
           7490      1.91702e+7 
           7510      1.90188e+7 
           7530      1.88687e+7 
           7550      1.87193e+7 
           7570      1.85712e+7 
           7590      1.84251e+7 
           7610      1.82802e+7 
           7630      1.81367e+7 
           7650      1.79943e+7 
           7670      1.78532e+7 
           7690      1.77139e+7 
           7710      1.75759e+7 
           7730      1.74397e+7 
           7750       1.7304e+7 
           7770      1.70859e+7 
           7790      1.70373e+7 
           7810      1.69064e+7 
           7830      1.67759e+7 
           7850      1.66465e+7 
           7870      1.65151e+7 
           7890      1.63855e+7 
           7910      1.62678e+7 
           7930      1.61427e+7 
           7950      1.60187e+7 
           7970      1.58993e+7 
           7990      1.57714e+7 
           8010      1.56593e+7 
           8030      1.55416e+7 
           8050      1.54244e+7 
           8070      1.53081e+7 
           8090      1.51934e+7 
           8110      1.50796e+7 
           8130      1.49667e+7 
           8150      1.48554e+7 
           8170      1.47443e+7 
           8190      1.46297e+7 
           8210      1.45513e+7 
           8230      1.44495e+7 
           8250      1.43474e+7 
           8270      1.42599e+7 
           8290      1.41632e+7 
           8310      1.40673e+7 
           8330      1.39646e+7 
           8350      1.38734e+7 
           8370      1.37733e+7 
           8390      1.36665e+7 
           8410      1.35563e+7 
           8430      1.34476e+7 
           8450      1.33323e+7 
           8470       1.3146e+7 
           8490      1.31714e+7 
           8510      1.27787e+7 
           8530      1.30316e+7 
           8550       1.2258e+7 
           8570      1.29923e+7 
           8590      1.22896e+7 
           8610      1.20577e+7 
           8630      1.29301e+7 
           8650      1.24052e+7 
           8670      1.07788e+7 
           8690      1.25861e+7 
           8710      1.29236e+7 
           8730      1.23627e+7 
           8750      1.00335e+7 
           8770      1.17408e+7 
           8790      1.27489e+7 
           8810      1.28789e+7 
           8830      1.25032e+7 
           8850      1.10418e+7 
           8870      9.48804e+6 
           8890       1.1764e+7 
           8910      1.24776e+7 
           8930      1.26518e+7 
           8950      1.25935e+7 
           8970        1.227e+7 
           8990      1.14669e+7 
           9010      9.19779e+6 
           9030      9.96608e+6 
           9050      1.15067e+7 
           9070      1.19648e+7 
           9090      1.20781e+7 
           9110       1.2116e+7 
           9130      1.20543e+7 
           9150      1.19185e+7 
