# Kurucz ODFNEW /NOVER (2003)
# teff = 20000 K (value for the effective temperature for the model. Temperatures are given in K)
# logg = 4.5 log(cm/s2) (value for Log(G) for the model.)
# meta = -1  (value for the Metallicity for the model.)
# lh = 1.25  (l/Hp where l is the  mixing length of the convective element and Hp is the pressure scale height)
# vtur = 2 km/s (Microturbulence velocity)
# alpha = 0  (Alpha)
#
# column 1: WAVELENGTH (ANGSTROM), Wavelength in Angstrom
# column 2: FLUX (ERG/CM2/S/A), Flux in erg/cm2/s/A
          147.2     6.93968e-20 
            151     4.34046e-19 
          155.2     2.97151e-18 
          158.8     1.42623e-17 
            162     5.43275e-17 
            166     2.69381e-16 
          170.3     1.38743e-15 
          173.4     4.30486e-15 
          176.8     1.42529e-14 
          180.2      4.5156e-14 
          181.7     7.40989e-14 
          186.1     3.03085e-13 
            191      1.3497e-12 
          193.9     3.15093e-12 
          198.4     1.11978e-11 
          201.8     2.81627e-11 
            205     6.53129e-11 
          210.5     2.61065e-10 
          216.2      1.01979e-9 
          219.8      2.32602e-9 
            223       4.7316e-9 
          226.8      1.07186e-8 
            230      3.87241e-8 
            234      9.59368e-8 
            240      3.03359e-7 
          246.5      9.82337e-7 
          252.4      2.71327e-6 
          256.8      5.53752e-6 
            260      9.34579e-6 
            264      1.74046e-5 
          268.5      3.41962e-5 
          273.5      7.04936e-5 
          278.5     0.000141726 
            284     0.000296569 
            290     0.000641784 
            296      0.00134286 
            301       0.0024305 
            308      0.00534492 
            318        0.015785 
            328       0.0431272 
            338        0.110809 
            348        0.268832 
            357          0.5707 
            366         1.16622 
            375          2.2937 
            385         4.67808 
            395         9.17358 
            405         17.3669 
            414         29.9896 
            422         47.6824 
            430         74.3434 
            441         133.476 
            451          220.98 
            460         340.659 
            470         539.649 
            480         836.702 
            490         1272.39 
            500         1898.72 
            506         14592.8 
            512         42887.6 
            520         55573.2 
            530         80058.7 
            540         94386.5 
            550          138188 
            560          174634 
            570          224229 
            580          241100 
            590          330745 
            600          423768 
            610          524141 
            620          628856 
            630          761166 
            640          888533 
            650      1.05538e+6 
            658      1.23182e+6 
            665      1.36831e+6 
            675      1.57488e+6 
            685      1.83232e+6 
            695      2.16487e+6 
            705       2.4806e+6 
            716      2.87903e+6 
            726       3.2685e+6 
            735      3.67716e+6 
            745      4.19345e+6 
            755      4.74235e+6 
            765      5.31448e+6 
            775         5.98e+6 
            785      6.68206e+6 
            795      7.39779e+6 
            805      8.19936e+6 
            815      9.01973e+6 
            825      9.99077e+6 
            835      1.08168e+7 
            845      1.19341e+7 
            855      1.29929e+7 
            865      1.42485e+7 
            875      1.55371e+7 
            885      1.69508e+7 
            895      1.83392e+7 
            905      1.94477e+7 
            915      3.01141e+7 
            925      1.08423e+8 
            935      3.11075e+8 
            945       1.5707e+9 
            955      4.11008e+9 
            965      5.87572e+9 
            975      1.43004e+9 
            985      9.65834e+9 
            995     1.01901e+10 
           1005     1.08801e+10 
           1015      7.98419e+9 
           1025      9.41299e+8 
           1035       5.8066e+9 
           1045       1.145e+10 
           1055     1.14624e+10 
           1065     1.01235e+10 
           1075     1.12469e+10 
           1085     1.03077e+10 
           1095     1.10641e+10 
           1105     1.02168e+10 
           1115     1.01347e+10 
           1125      9.42609e+9 
           1135      1.0093e+10 
           1145      9.28673e+9 
           1155      9.62647e+9 
           1165      9.71479e+9 
           1175      8.13667e+9 
           1185      9.30941e+9 
           1195       7.5925e+9 
           1205      4.80036e+9 
           1215      8.22043e+8 
           1225      4.50004e+9 
           1235      7.68612e+9 
           1245      8.23323e+9 
           1255      8.06403e+9 
           1265      7.77625e+9 
           1275      8.03203e+9 
           1285        7.965e+9 
           1295      6.82079e+9 
           1305      6.58946e+9 
           1315      7.55125e+9 
           1325      7.22119e+9 
           1335      6.82044e+9 
           1345      7.06571e+9 
           1355       6.9735e+9 
           1365      6.67416e+9 
           1375      6.58501e+9 
           1385      6.57235e+9 
           1395      6.16272e+9 
           1405      6.25145e+9 
           1415      6.17375e+9 
           1425      6.11691e+9 
           1435      6.06141e+9 
           1442      6.08803e+9 
           1447      6.00573e+9 
           1455      5.88684e+9 
           1465      5.70318e+9 
           1475      5.62473e+9 
           1485      5.47253e+9 
           1495      5.41406e+9 
           1505      5.20862e+9 
           1512      4.98072e+9 
           1517      5.05959e+9 
           1525      5.01653e+9 
           1535      4.74496e+9 
           1545      4.81805e+9 
           1555      4.60422e+9 
           1565      4.60663e+9 
           1575      4.67148e+9 
           1585      4.60822e+9 
           1595      4.60497e+9 
           1605        4.453e+9 
           1615       4.3921e+9 
           1625      4.31567e+9 
           1635      4.32054e+9 
           1645      4.25285e+9 
           1655      4.09887e+9 
           1665      4.21068e+9 
           1672      4.04398e+9 
           1677      4.11769e+9 
           1685      4.09261e+9 
           1695      3.97877e+9 
           1705      3.84929e+9 
           1715      3.73524e+9 
           1725      3.67573e+9 
           1735      3.70969e+9 
           1745      3.61496e+9 
           1755      3.64385e+9 
           1765      3.41765e+9 
           1775       3.4761e+9 
           1785      3.44105e+9 
           1795       3.4545e+9 
           1805      3.41413e+9 
           1815      3.29438e+9 
           1825       3.3017e+9 
           1835      3.22845e+9 
           1845      3.06893e+9 
           1855      2.99498e+9 
           1865      2.99837e+9 
           1875       3.0567e+9 
           1885      2.87995e+9 
           1895      2.77074e+9 
           1905      2.86817e+9 
           1915       2.7596e+9 
           1925      2.70437e+9 
           1935      2.73022e+9 
           1945       2.7539e+9 
           1955       2.6087e+9 
           1967      2.67843e+9 
           1976       2.7114e+9 
           1984      2.59903e+9 
           1995      2.52426e+9 
           2005      2.55022e+9 
           2015      2.53221e+9 
           2025      2.54943e+9 
           2035       2.4583e+9 
           2045      2.43593e+9 
           2055      2.35769e+9 
           2065      2.37025e+9 
           2074      2.39851e+9 
           2078      2.32934e+9 
           2085      2.33721e+9 
           2095      2.26577e+9 
           2105      2.28111e+9 
           2115      2.25967e+9 
           2125      2.26657e+9 
           2135      2.22266e+9 
           2145       2.1748e+9 
           2155      2.17762e+9 
           2165      2.13898e+9 
           2175      2.11251e+9 
           2185      2.08864e+9 
           2195      2.08162e+9 
           2205      2.04263e+9 
           2215      2.01064e+9 
           2225      1.97191e+9 
           2235       1.9724e+9 
           2245      1.94994e+9 
           2255      1.91261e+9 
           2265      1.90765e+9 
           2275      1.88247e+9 
           2285      1.87289e+9 
           2295      1.82677e+9 
           2305      1.81691e+9 
           2315      1.78747e+9 
           2325      1.77276e+9 
           2335      1.72983e+9 
           2345      1.68914e+9 
           2355      1.70084e+9 
           2365      1.65975e+9 
           2375      1.65596e+9 
           2385      1.61991e+9 
           2395      1.62218e+9 
           2405      1.59575e+9 
           2415      1.57701e+9 
           2425      1.57889e+9 
           2435      1.54511e+9 
           2445      1.53559e+9 
           2455      1.53016e+9 
           2465      1.49893e+9 
           2475      1.48721e+9 
           2485      1.47807e+9 
           2495      1.44131e+9 
           2505      1.44868e+9 
           2513      1.41388e+9 
           2518      1.42752e+9 
           2525      1.40206e+9 
           2535      1.37707e+9 
           2545      1.36691e+9 
           2555      1.37412e+9 
           2565      1.35158e+9 
           2575      1.34888e+9 
           2585      1.33672e+9 
           2595      1.32179e+9 
           2605      1.31078e+9 
           2615      1.29862e+9 
           2625      1.28492e+9 
           2635      1.27079e+9 
           2645      1.27579e+9 
           2655      1.26112e+9 
           2665      1.23852e+9 
           2675      1.23202e+9 
           2685      1.22542e+9 
           2695      1.20218e+9 
           2705      1.19892e+9 
           2715      1.18254e+9 
           2725      1.16165e+9 
           2735      1.16259e+9 
           2745      1.12898e+9 
           2755      1.12299e+9 
           2765      1.11542e+9 
           2775      1.11948e+9 
           2785      1.10529e+9 
           2795      1.06952e+9 
           2805       1.0778e+9 
           2815      1.07753e+9 
           2825      1.05618e+9 
           2835       1.0388e+9 
           2845      1.04049e+9 
           2855      1.03331e+9 
           2865      1.02639e+9 
           2875       1.0147e+9 
           2885      1.00609e+9 
           2895      9.96907e+8 
           2910      9.83186e+8 
           2930      9.61209e+8 
           2950      9.38566e+8 
           2970      9.28445e+8 
           2990      9.09661e+8 
           3010      8.94535e+8 
           3030       8.7899e+8 
           3050      8.62722e+8 
           3070      8.46961e+8 
           3090      8.31416e+8 
           3110      8.16511e+8 
           3130      8.02803e+8 
           3150      7.88351e+8 
           3170      7.74161e+8 
           3190      7.54414e+8 
           3210      7.46907e+8 
           3230      7.33931e+8 
           3250      7.21216e+8 
           3270      7.09497e+8 
           3290      6.96651e+8 
           3310      6.85575e+8 
           3330        6.739e+8 
           3350       6.6158e+8 
           3370      6.51296e+8 
           3390      6.40454e+8 
           3410      6.29788e+8 
           3430      6.17822e+8 
           3450      6.06185e+8 
           3470      5.97403e+8 
           3490      5.87637e+8 
           3510      5.78789e+8 
           3530      5.70193e+8 
           3550      5.60976e+8 
           3570      5.54117e+8 
           3590      5.42582e+8 
           3610      5.35141e+8 
           3630       5.2563e+8 
           3640      5.24082e+8 
           3650      5.18075e+8 
           3670      5.12025e+8 
           3690      5.02339e+8 
           3710      4.85716e+8 
           3730      4.64572e+8 
           3750      4.90545e+8 
           3770      4.94817e+8 
           3790      5.37421e+8 
           3810      5.72279e+8 
           3830      4.86883e+8 
           3850       6.0114e+8 
           3870      6.22965e+8 
           3890      4.54452e+8 
           3910      6.16469e+8 
           3930       6.1604e+8 
           3950      5.99194e+8 
           3970      4.25613e+8 
           3990      5.71764e+8 
           4010      5.81373e+8 
           4030      5.42075e+8 
           4050      5.71301e+8 
           4070      5.56535e+8 
           4090      4.87619e+8 
           4110      4.12723e+8 
           4130      5.18992e+8 
           4150      5.20476e+8 
           4170      5.17879e+8 
           4190      5.12238e+8 
           4210      5.04322e+8 
           4230      4.96027e+8 
           4250      4.87887e+8 
           4270      4.77025e+8 
           4290      4.70541e+8 
           4310      4.57788e+8 
           4330      3.92485e+8 
           4350      3.53087e+8 
           4370      4.34098e+8 
           4390      4.19752e+8 
           4410      4.28932e+8 
           4430       4.2119e+8 
           4450      4.16785e+8 
           4470      3.87667e+8 
           4490      4.02011e+8 
           4510      3.98601e+8 
           4530      3.92354e+8 
           4550      3.86456e+8 
           4570      3.80754e+8 
           4590      3.75172e+8 
           4610      3.69531e+8 
           4630      3.63902e+8 
           4650      3.58392e+8 
           4670      3.53463e+8 
           4690      3.48434e+8 
           4710      3.38179e+8 
           4730      3.37514e+8 
           4750       3.3234e+8 
           4770      3.28731e+8 
           4790      3.23348e+8 
           4810      3.17457e+8 
           4830      3.09391e+8 
           4850      2.72523e+8 
           4870      2.39029e+8 
           4890      2.94063e+8 
           4910      2.94875e+8 
           4930      2.83916e+8 
           4950      2.88976e+8 
           4970      2.85191e+8 
           4990      2.81169e+8 
           5010      2.73075e+8 
           5030      2.73335e+8 
           5050      2.67141e+8 
           5070      2.66093e+8 
           5090      2.62465e+8 
           5110      2.58856e+8 
           5130       2.5531e+8 
           5150      2.51825e+8 
           5170      2.48612e+8 
           5190      2.45301e+8 
           5210      2.41617e+8 
           5230      2.38823e+8 
           5250      2.35667e+8 
           5270      2.32539e+8 
           5290      2.29559e+8 
           5310      2.26537e+8 
           5330      2.23567e+8 
           5350      2.20529e+8 
           5370      2.17845e+8 
           5390      2.15025e+8 
           5410      2.12254e+8 
           5430      2.09377e+8 
           5450      2.06803e+8 
           5470      2.04161e+8 
           5490      2.01638e+8 
           5510       1.9906e+8 
           5530      1.96564e+8 
           5550       1.9411e+8 
           5570      1.91674e+8 
           5590      1.89292e+8 
           5610       1.8688e+8 
           5630      1.84639e+8 
           5650      1.82095e+8 
           5670      1.79922e+8 
           5690      1.77787e+8 
           5710        1.757e+8 
           5730      1.73558e+8 
           5750      1.71441e+8 
           5770      1.69372e+8 
           5790      1.67316e+8 
           5810      1.65296e+8 
           5830       1.6331e+8 
           5850      1.61359e+8 
           5870      1.54313e+8 
           5890      1.57068e+8 
           5910      1.55661e+8 
           5930       1.5382e+8 
           5950      1.51937e+8 
           5970      1.50223e+8 
           5990      1.48413e+8 
           6010      1.46728e+8 
           6030       1.4501e+8 
           6050      1.43333e+8 
           6070      1.41674e+8 
           6090      1.40034e+8 
           6110      1.38432e+8 
           6130      1.36839e+8 
           6150      1.35213e+8 
           6170      1.33725e+8 
           6190      1.32213e+8 
           6210      1.30708e+8 
           6230       1.2923e+8 
           6250      1.27738e+8 
           6270      1.26331e+8 
           6290      1.24919e+8 
           6310      1.23504e+8 
           6330      1.22151e+8 
           6350      1.20542e+8 
           6370      1.19322e+8 
           6390      1.18124e+8 
           6410      1.16811e+8 
           6430      1.15557e+8 
           6450       1.1428e+8 
           6470      1.13007e+8 
           6490      1.11677e+8 
           6510      1.10147e+8 
           6530      1.08148e+8 
           6550      1.00692e+8 
           6570      8.80274e+7 
           6590      1.03291e+8 
           6610      1.04141e+8 
           6630      1.03385e+8 
           6650      1.02568e+8 
           6670       1.0043e+8 
           6690      9.93925e+7 
           6710      9.93531e+7 
           6730       9.8306e+7 
           6750      9.72778e+7 
           6770      9.62601e+7 
           6790      9.52199e+7 
           6810      9.42553e+7 
           6830       9.3268e+7 
           6850      9.23066e+7 
           6870      9.13549e+7 
           6890      9.04126e+7 
           6910      8.94798e+7 
           6930      8.85483e+7 
           6950      8.76572e+7 
           6970      8.67671e+7 
           6990      8.58781e+7 
           7010      8.50054e+7 
           7030      8.41413e+7 
           7050       8.3278e+7 
           7070      8.12474e+7 
           7090       8.1629e+7 
           7110      8.08127e+7 
           7130      8.00043e+7 
           7150      7.92036e+7 
           7170      7.84106e+7 
           7190      7.76398e+7 
           7210      7.68691e+7 
           7230      7.59038e+7 
           7250      7.53566e+7 
           7270      7.46218e+7 
           7290      7.33906e+7 
           7310      7.31659e+7 
           7330      7.24586e+7 
           7350       7.1751e+7 
           7370      7.10569e+7 
           7390      7.03693e+7 
           7410       6.9695e+7 
           7430      6.90132e+7 
           7450      6.83648e+7 
           7470      6.77022e+7 
           7490      6.70584e+7 
           7510      6.64058e+7 
           7530      6.57911e+7 
           7550      6.51674e+7 
           7570      6.45513e+7 
           7590      6.39408e+7 
           7610      6.33398e+7 
           7630      6.27448e+7 
           7650      6.21564e+7 
           7670      6.15752e+7 
           7690      6.10012e+7 
           7710      6.04335e+7 
           7730      5.98722e+7 
           7750      5.93177e+7 
           7770      5.86595e+7 
           7790      5.82283e+7 
           7810      5.76729e+7 
           7830      5.71642e+7 
           7850      5.66563e+7 
           7870      5.61394e+7 
           7890      5.55931e+7 
           7910      5.51443e+7 
           7930      5.46443e+7 
           7950      5.41301e+7 
           7970      5.36381e+7 
           7990      5.31392e+7 
           8010      5.26998e+7 
           8030      5.22237e+7 
           8050      5.17506e+7 
           8070      5.12897e+7 
           8090      5.07871e+7 
           8110      5.03508e+7 
           8130      4.99233e+7 
           8150      4.94426e+7 
           8170      4.90552e+7 
           8190      4.85862e+7 
           8210      4.80636e+7 
           8230      4.77241e+7 
           8250      4.73446e+7 
           8270      4.67959e+7 
           8290      4.65188e+7 
           8310      4.61386e+7 
           8330      4.57305e+7 
           8350      4.51951e+7 
           8370      4.49046e+7 
           8390      4.45736e+7 
           8410      4.41738e+7 
           8430      4.37572e+7 
           8450       4.3162e+7 
           8470      4.29295e+7 
           8490      4.25414e+7 
           8510      4.20478e+7 
           8530      4.18431e+7 
           8550       4.0857e+7 
           8570      4.15195e+7 
           8590      3.99168e+7 
