# Kurucz ODFNEW /NOVER (2003)
# teff = 22000 K (value for the effective temperature for the model. Temperatures are given in K)
# logg = 3 log(cm/s2) (value for Log(G) for the model.)
# meta = 0.5  (value for the Metallicity for the model.)
# lh = 1.25  (l/Hp where l is the  mixing length of the convective element and Hp is the pressure scale height)
# vtur = 2 km/s (Microturbulence velocity)
# alpha = 0  (Alpha)
#
# column 1: WAVELENGTH (ANGSTROM), Wavelength in Angstrom
# column 2: FLUX (ERG/CM2/S/A), Flux in erg/cm2/s/A
          147.2     2.74517e-18 
            151     1.45512e-17 
          155.2     8.40496e-17 
          158.8     3.52581e-16 
            162     1.20024e-15 
            166     5.21387e-15 
          170.3     2.34335e-14 
          173.4     6.67079e-14 
          176.8     2.01295e-13 
          180.2     5.83772e-13 
          181.7     9.21886e-13 
          186.1     3.39199e-12 
            191     1.35569e-11 
          193.9     2.98169e-11 
          198.4     9.69996e-11 
          201.8     2.28823e-10 
            205       5.006e-10 
          210.5      1.82514e-9 
          216.2      6.52319e-9 
          219.8      1.41149e-8 
            223      2.74746e-8 
          226.8      5.92007e-8 
            230      1.94995e-6 
            234      4.85979e-6 
            240      1.33536e-5 
          246.5      3.79474e-5 
          252.4      9.45819e-5 
          256.8     0.000174505 
            260     0.000308088 
            264     0.000529916 
          268.5     0.000967949 
          273.5      0.00184103 
          278.5      0.00344457 
            284      0.00717718 
            290       0.0141961 
            296       0.0275315 
            301       0.0463796 
            308        0.100389 
            318        0.274072 
            328        0.658814 
            338         1.59963 
            348          3.5603 
            357          20.157 
            366         42.8825 
            375         70.6764 
            385         128.415 
            395         257.366 
            405         428.556 
            414         684.591 
            422         1092.42 
            430          1685.4 
            441         2764.63 
            451         4007.31 
            460         5665.72 
            470         8631.86 
            480         12546.7 
            490         18155.5 
            500         25132.4 
            506          122490 
            512      3.03014e+6 
            520      3.50119e+6 
            530      4.08676e+6 
            540      4.35681e+6 
            550      7.82638e+6 
            560      9.71748e+6 
            570      1.20927e+7 
            580      1.10184e+7 
            590      1.60194e+7 
            600      1.87674e+7 
            610      2.34785e+7 
            620      2.63074e+7 
            630      2.78878e+7 
            640      2.42832e+7 
            650      1.60224e+7 
            658      2.89932e+7 
            665      3.70353e+7 
            675      3.83877e+7 
            685        3.684e+7 
            695      5.61259e+7 
            705      5.59085e+7 
            716      6.46734e+7 
            726      6.48038e+7 
            735       6.9917e+7 
            745      8.29582e+7 
            755      8.96114e+7 
            765      9.68691e+7 
            775      1.04659e+8 
            785       1.1343e+8 
            795      1.17515e+8 
            805      1.21525e+8 
            815      1.24954e+8 
            825       1.4069e+8 
            835      1.06169e+8 
            845       1.4148e+8 
            855      1.42142e+8 
            865      1.54533e+8 
            875      1.67732e+8 
            885      1.85708e+8 
            895      1.95879e+8 
            905      1.84491e+8 
            915       3.9496e+8 
            925      4.44216e+9 
            935      7.48094e+9 
            945      9.66602e+9 
            955     1.10133e+10 
            965      8.55993e+9 
            975      1.27857e+9 
            985      4.40943e+9 
            995      7.46172e+9 
           1005     1.12177e+10 
           1015     1.18172e+10 
           1025      9.70165e+9 
           1035      8.43507e+9 
           1045     1.52969e+10 
           1055     1.37562e+10 
           1065      9.98334e+9 
           1075      1.2649e+10 
           1085     1.07285e+10 
           1095      1.3112e+10 
           1105     1.12103e+10 
           1115      9.90319e+9 
           1125      7.04746e+9 
           1135      1.1902e+10 
           1145     1.10336e+10 
           1155     1.13449e+10 
           1165     1.08109e+10 
           1175      4.76674e+9 
           1185     1.01682e+10 
           1195       9.2057e+9 
           1205      3.84584e+9 
           1215      6.83956e+9 
           1225      9.83331e+9 
           1235      1.1583e+10 
           1245     1.08307e+10 
           1255     1.08647e+10 
           1265     1.11859e+10 
           1275     1.17216e+10 
           1285     1.16987e+10 
           1295       6.2648e+9 
           1305      7.47475e+9 
           1315     1.14446e+10 
           1325     1.05539e+10 
           1335      9.85059e+9 
           1345     1.07263e+10 
           1355     1.03626e+10 
           1365      9.10774e+9 
           1375       8.7462e+9 
           1385      8.01212e+9 
           1395      4.47598e+9 
           1405      5.42491e+9 
           1415      7.01293e+9 
           1425       7.2768e+9 
           1435      7.74159e+9 
           1442       7.9978e+9 
           1447      7.81812e+9 
           1455      7.48236e+9 
           1465      6.61805e+9 
           1475      7.11857e+9 
           1485       7.0958e+9 
           1495      6.89652e+9 
           1505       6.0637e+9 
           1512      5.23565e+9 
           1517      5.52975e+9 
           1525      5.82146e+9 
           1535      4.65862e+9 
           1545       4.3965e+9 
           1555      4.39342e+9 
           1565      4.93287e+9 
           1575      5.38147e+9 
           1585       5.6059e+9 
           1595      5.41069e+9 
           1605      5.68116e+9 
           1615       5.6155e+9 
           1625      5.44374e+9 
           1635      6.04168e+9 
           1645      6.07759e+9 
           1655      5.94853e+9 
           1665      6.20643e+9 
           1672      5.76956e+9 
           1677      6.58302e+9 
           1685      6.39898e+9 
           1695      5.87879e+9 
           1705      5.85358e+9 
           1715      5.33093e+9 
           1725      5.35742e+9 
           1735      5.73212e+9 
           1745      5.52977e+9 
           1755      5.62766e+9 
           1765      5.61982e+9 
           1775      5.09201e+9 
           1785      5.33449e+9 
           1795      5.63125e+9 
           1805      5.78515e+9 
           1815       4.8052e+9 
           1825      5.18918e+9 
           1835      5.03343e+9 
           1845      4.46749e+9 
           1855      4.47682e+9 
           1865      4.57592e+9 
           1875      5.05906e+9 
           1885      4.31192e+9 
           1895      3.94949e+9 
           1905      4.56671e+9 
           1915      4.03601e+9 
           1925      3.82552e+9 
           1935      4.26321e+9 
           1945       4.3351e+9 
           1955      3.78511e+9 
           1967       4.3559e+9 
           1976      4.52317e+9 
           1984      4.20539e+9 
           1995      4.09184e+9 
           2005      4.48174e+9 
           2015      4.36407e+9 
           2025      4.53513e+9 
           2035      4.01153e+9 
           2045      4.22624e+9 
           2055      3.99288e+9 
           2065      3.89502e+9 
           2074       4.3288e+9 
           2078      3.65005e+9 
           2085      4.08904e+9 
           2095      3.82307e+9 
           2105       3.9936e+9 
           2115      4.07846e+9 
           2125      4.08906e+9 
           2135      4.04266e+9 
           2145      3.77301e+9 
           2155      4.01632e+9 
           2165      4.06554e+9 
           2175      4.04202e+9 
           2185      3.79505e+9 
           2195      3.94829e+9 
           2205      3.98074e+9 
           2215      3.87147e+9 
           2225      3.76119e+9 
           2235      3.71712e+9 
           2245      3.79142e+9 
           2255      3.62303e+9 
           2265      3.73834e+9 
           2275      3.67607e+9 
           2285      3.71374e+9 
           2295      3.13828e+9 
           2305      3.55831e+9 
           2315      3.41207e+9 
           2325      3.38669e+9 
           2335      3.23123e+9 
           2345      3.29402e+9 
           2355      3.30605e+9 
           2365      3.28522e+9 
           2375      3.22061e+9 
           2385       3.1924e+9 
           2395       3.1704e+9 
           2405      3.08899e+9 
           2415      3.10273e+9 
           2425      3.10122e+9 
           2435      2.98557e+9 
           2445      3.04275e+9 
           2455      3.06645e+9 
           2465      2.97553e+9 
           2475      2.91088e+9 
           2485      2.80148e+9 
           2495      2.11912e+9 
           2505      2.66399e+9 
           2513      2.61669e+9 
           2518      2.77304e+9 
           2525      2.72826e+9 
           2535      2.70267e+9 
           2545      2.56346e+9 
           2555      2.66508e+9 
           2565      2.61972e+9 
           2575      2.66777e+9 
           2585      2.60776e+9 
           2595      2.59044e+9 
           2605      2.58136e+9 
           2615        2.527e+9 
           2625      2.52353e+9 
           2635      2.51293e+9 
           2645      2.49262e+9 
           2655      2.50028e+9 
           2665      2.33929e+9 
           2675      2.39106e+9 
           2685      2.37966e+9 
           2695      2.27795e+9 
           2705      2.19066e+9 
           2715       2.2231e+9 
           2725      2.25714e+9 
           2735      2.23951e+9 
           2745      2.16767e+9 
           2755      2.16537e+9 
           2765       2.1591e+9 
           2775      2.19165e+9 
           2785       2.1485e+9 
           2795      2.06159e+9 
           2805      2.09508e+9 
           2815      2.10271e+9 
           2825      2.09229e+9 
           2835       1.9779e+9 
           2845      2.00489e+9 
           2855      1.96203e+9 
           2865      1.98966e+9 
           2875      1.96983e+9 
           2885      1.94959e+9 
           2895      1.90005e+9 
           2910      1.87179e+9 
           2930      1.86348e+9 
           2950      1.80185e+9 
           2970      1.78023e+9 
           2990      1.74579e+9 
           3010      1.65992e+9 
           3030      1.67969e+9 
           3050      1.66044e+9 
           3070      1.64208e+9 
           3090      1.56151e+9 
           3110      1.57047e+9 
           3130      1.53001e+9 
           3150       1.5128e+9 
           3170      1.46551e+9 
           3190       1.4466e+9 
           3210      1.42577e+9 
           3230      1.38918e+9 
           3250      1.37606e+9 
           3270      1.34078e+9 
           3290      1.31603e+9 
           3310      1.29275e+9 
           3330      1.26395e+9 
           3350      1.24662e+9 
           3370      1.21993e+9 
           3390      1.20643e+9 
           3410      1.18581e+9 
           3430      1.16094e+9 
           3450      1.13736e+9 
           3470      1.11778e+9 
           3490      1.09492e+9 
           3510       1.0759e+9 
           3530      1.06698e+9 
           3550      1.04692e+9 
           3570      1.03023e+9 
           3590      9.97384e+8 
           3610       9.7876e+8 
           3630      9.71493e+8 
           3640      9.70655e+8 
           3650      9.53467e+8 
           3670      9.43802e+8 
           3690      9.14481e+8 
           3710       8.9775e+8 
           3730      8.90694e+8 
           3750      9.51032e+8 
           3770      9.37788e+8 
           3790      9.46512e+8 
           3810      9.71974e+8 
           3830      8.81156e+8 
           3850      9.52009e+8 
           3870      9.21468e+8 
           3890      8.46067e+8 
           3910      9.21586e+8 
           3930      8.84155e+8 
           3950      8.78532e+8 
           3970      7.83486e+8 
           3990      8.53954e+8 
           4010      8.44075e+8 
           4030      8.11779e+8 
           4050      8.10901e+8 
           4070      7.72863e+8 
           4090      7.46991e+8 
           4110      6.98123e+8 
           4130       7.4189e+8 
           4150      7.36594e+8 
           4170      7.33878e+8 
           4190      7.28112e+8 
           4210      7.22379e+8 
           4230      7.05353e+8 
           4250      6.84985e+8 
           4270        6.666e+8 
           4290      6.57799e+8 
           4310      6.35809e+8 
           4330      6.10337e+8 
           4350      5.75054e+8 
           4370      6.06455e+8 
           4390      6.14176e+8 
           4410      6.03485e+8 
           4430      5.98009e+8 
           4450      5.89374e+8 
           4470      5.75118e+8 
           4490      5.74678e+8 
           4510      5.69166e+8 
           4530      5.60406e+8 
           4550      5.54617e+8 
           4570      5.44795e+8 
           4590      5.36195e+8 
           4610      5.21271e+8 
           4630      5.14985e+8 
           4650      4.96818e+8 
           4670      5.00811e+8 
           4690      4.98758e+8 
           4710      4.79384e+8 
           4730      4.80306e+8 
           4750       4.7273e+8 
           4770      4.75695e+8 
           4790      4.66296e+8 
           4810      4.56369e+8 
           4830      4.50401e+8 
           4850      4.38766e+8 
           4870      4.02178e+8 
           4890      4.33209e+8 
           4910      4.27655e+8 
           4930        4.159e+8 
           4950      4.13038e+8 
           4970      4.11978e+8 
           4990      4.04521e+8 
           5010      3.85253e+8 
           5030      3.91978e+8 
           5050      3.83133e+8 
           5070      3.82315e+8 
           5090      3.76132e+8 
           5110       3.6937e+8 
           5130      3.59295e+8 
           5150      3.57731e+8 
           5170      3.56266e+8 
           5190      3.51973e+8 
           5210      3.45501e+8 
           5230      3.41555e+8 
           5250      3.37686e+8 
           5270      3.31615e+8 
           5290      3.29018e+8 
           5310      3.23872e+8 
           5330      3.20173e+8 
           5350      3.15454e+8 
           5370      3.12285e+8 
           5390      3.07716e+8 
           5410      3.04557e+8 
           5430      2.99621e+8 
           5450      2.95651e+8 
           5470      2.91818e+8 
           5490      2.88146e+8 
           5510      2.85698e+8 
           5530      2.80568e+8 
           5550      2.78769e+8 
           5570      2.74597e+8 
           5590      2.71804e+8 
           5610      2.67954e+8 
           5630      2.65127e+8 
           5650      2.59371e+8 
           5670      2.54673e+8 
           5690      2.50652e+8 
           5710      2.50228e+8 
           5730      2.47635e+8 
           5750      2.43477e+8 
           5770      2.42618e+8 
           5790      2.39091e+8 
           5810      2.36376e+8 
           5830       2.3254e+8 
           5850      2.30369e+8 
           5870      2.22909e+8 
           5890      2.22169e+8 
           5910       2.2083e+8 
           5930      2.17532e+8 
           5950      2.14614e+8 
           5970      2.14902e+8 
           5990      2.10141e+8 
           6010      2.09224e+8 
           6030      2.05766e+8 
           6050      2.03626e+8 
           6070      2.02133e+8 
           6090      1.99842e+8 
           6110      1.97487e+8 
           6130      1.95518e+8 
           6150        1.915e+8 
           6170      1.89785e+8 
           6190      1.88354e+8 
           6210      1.86625e+8 
           6230      1.84691e+8 
           6250       1.8165e+8 
           6270      1.79927e+8 
           6290      1.78223e+8 
           6310      1.75875e+8 
           6330      1.74398e+8 
           6350      1.71442e+8 
           6370      1.70228e+8 
           6390      1.68306e+8 
           6410      1.66552e+8 
           6430       1.6497e+8 
           6450      1.62989e+8 
           6470      1.60381e+8 
           6490      1.58643e+8 
           6510      1.57385e+8 
           6530      1.55345e+8 
           6550      1.52413e+8 
           6570      1.37513e+8 
           6590      1.48825e+8 
           6610       1.4871e+8 
           6630      1.47411e+8 
           6650      1.45708e+8 
           6670      1.43311e+8 
           6690      1.41892e+8 
           6710      1.41332e+8 
           6730      1.39204e+8 
           6750      1.38413e+8 
           6770      1.36955e+8 
           6790      1.33641e+8 
           6810      1.33613e+8 
           6830      1.32218e+8 
           6850      1.31142e+8 
           6870      1.29741e+8 
           6890      1.28139e+8 
           6910       1.2657e+8 
           6930        1.257e+8 
           6950      1.24462e+8 
           6970      1.23206e+8 
           6990      1.21839e+8 
           7010      1.20562e+8 
           7030      1.19298e+8 
           7050      1.18084e+8 
           7070       1.1505e+8 
           7090      1.15721e+8 
           7110      1.12343e+8 
           7130      1.11455e+8 
           7150      1.12151e+8 
           7170      1.11087e+8 
           7190      1.10025e+8 
           7210      1.08894e+8 
           7230      1.05582e+8 
           7250      1.06369e+8 
           7270      1.05578e+8 
           7290      1.03766e+8 
           7310      1.03481e+8 
           7330      1.02335e+8 
           7350      1.01472e+8 
           7370      1.00499e+8 
           7390      9.95077e+7 
           7410      9.85253e+7 
           7430      9.74701e+7 
           7450      9.65606e+7 
           7470       9.4883e+7 
           7490       9.4565e+7 
           7510      9.36745e+7 
           7530      9.26394e+7 
           7550      9.19576e+7 
           7570       9.1091e+7 
           7590      9.01604e+7 
           7610      8.91342e+7 
           7630      8.84086e+7 
           7650      8.75929e+7 
           7670      8.67845e+7 
           7690      8.59451e+7 
           7710      8.50688e+7 
           7730      8.42131e+7 
           7750      8.35469e+7 
           7770      8.21127e+7 
           7790      8.19834e+7 
           7810      8.11626e+7 
           7830      8.04597e+7 
           7850      7.96162e+7 
           7870      7.87558e+7 
           7890      7.77338e+7 
           7910      7.72569e+7 
           7930      7.64423e+7 
           7950      7.57244e+7 
           7970      7.51313e+7 
           7990      7.43662e+7 
           8010      7.37545e+7 
           8030       7.3113e+7 
           8050      7.25467e+7 
           8070      7.19157e+7 
           8090      7.11864e+7 
           8110      7.01197e+7 
           8130      6.99974e+7 
           8150        6.928e+7 
           8170      6.88058e+7 
           8190      6.77512e+7 
           8210      6.70918e+7 
           8230      6.62154e+7 
           8250      6.62158e+7 
           8270      6.48328e+7 
           8290      6.49206e+7 
           8310      6.44066e+7 
           8330      6.38968e+7 
           8350      6.30561e+7 
           8370      6.24648e+7 
           8390      6.20978e+7 
           8410      6.14246e+7 
           8430      6.09426e+7 
           8450      5.98789e+7 
           8470      5.94652e+7 
           8490      5.96296e+7 
           8510      5.80283e+7 
           8530      5.89267e+7 
           8550      5.63116e+7 
           8570      5.85984e+7 
           8590      5.60335e+7 
