# Kurucz ODFNEW /NOVER (2003)
# teff = 20000 K (value for the effective temperature for the model. Temperatures are given in K)
# logg = 4.5 log(cm/s2) (value for Log(G) for the model.)
# meta = -0.5  (value for the Metallicity for the model.)
# lh = 1.25  (l/Hp where l is the  mixing length of the convective element and Hp is the pressure scale height)
# vtur = 2 km/s (Microturbulence velocity)
# alpha = 0  (Alpha)
#
# column 1: WAVELENGTH (ANGSTROM), Wavelength in Angstrom
# column 2: FLUX (ERG/CM2/S/A), Flux in erg/cm2/s/A
          147.2     1.46391e-19 
            151     8.83094e-19 
          155.2     5.81398e-18 
          158.8     2.70027e-17 
            162     9.99817e-17 
            166     4.78896e-16 
          170.3     2.37894e-15 
          173.4     7.19853e-15 
          176.8     2.32028e-14 
          180.2     7.16321e-14 
          181.7      1.1622e-13 
          186.1     4.60562e-13 
            191     1.98376e-12 
          193.9     4.54333e-12 
          198.4     1.56951e-11 
          201.8     3.86913e-11 
            205     8.81354e-11 
          210.5     3.41954e-10 
          216.2      1.29842e-9 
          219.8      2.91234e-9 
            223      5.84007e-9 
          226.8      1.30197e-8 
            230      5.82684e-8 
            234        1.459e-7 
            240      4.52062e-7 
          246.5       1.4319e-6 
          252.4      3.88511e-6 
          256.8      7.80351e-6 
            260      1.30925e-5 
            264      2.41153e-5 
          268.5      4.68083e-5 
          273.5      9.52472e-5 
          278.5     0.000189302 
            284     0.000391559 
            290      0.00083642 
            296      0.00172838 
            301      0.00309879 
            308      0.00671222 
            318       0.0195659 
            328       0.0525539 
            338        0.133496 
            348        0.319945 
            357        0.674069 
            366         1.36764 
            375         2.66209 
            385         5.38261 
            395          10.462 
            405         19.6563 
            414          33.746 
            422         53.3138 
            430         82.5586 
            441          147.52 
            451         243.021 
            460         372.724 
            470         587.828 
            480         907.127 
            490          1374.4 
            500         2043.38 
            506           16612 
            512         56166.5 
            520         72446.6 
            530          103176 
            540          121444 
            550          178302 
            560          223082 
            570          288003 
            580          307252 
            590          422281 
            600          536515 
            610          667249 
            620          794444 
            630          958671 
            640      1.09965e+6 
            650      1.26171e+6 
            658      1.52732e+6 
            665      1.69246e+6 
            675      1.93241e+6 
            685      2.23264e+6 
            695      2.65935e+6 
            705      3.02831e+6 
            716      3.51049e+6 
            726      3.95602e+6 
            735      4.42731e+6 
            745      5.07021e+6 
            755      5.72399e+6 
            765      6.41172e+6 
            775       7.2031e+6 
            785      8.04476e+6 
            795      8.84683e+6 
            805      9.77191e+6 
            815       1.0694e+7 
            825      1.18688e+7 
            835       1.2729e+7 
            845      1.40118e+7 
            855      1.52372e+7 
            865       1.6695e+7 
            875      1.82444e+7 
            885       1.9934e+7 
            895      2.15242e+7 
            905      2.26247e+7 
            915      3.46408e+7 
            925      1.27101e+8 
            935      3.56069e+8 
            945      1.61116e+9 
            955      4.05527e+9 
            965      5.76487e+9 
            975      1.18703e+9 
            985      8.93341e+9 
            995      9.10254e+9 
           1005     1.01849e+10 
           1015      7.78709e+9 
           1025      1.02022e+9 
           1035      5.25376e+9 
           1045     1.12702e+10 
           1055     1.11117e+10 
           1065       9.4074e+9 
           1075     1.08671e+10 
           1085      9.77773e+9 
           1095     1.07496e+10 
           1105      9.71053e+9 
           1115      9.47714e+9 
           1125      8.74652e+9 
           1135      9.96492e+9 
           1145      8.89047e+9 
           1155       9.3291e+9 
           1165      9.56407e+9 
           1175      7.55492e+9 
           1185      9.30888e+9 
           1195      7.14375e+9 
           1205      4.31363e+9 
           1215      9.38694e+8 
           1225      4.42824e+9 
           1235      7.83185e+9 
           1245      8.40458e+9 
           1255      8.21975e+9 
           1265      7.73882e+9 
           1275      8.17084e+9 
           1285      8.18836e+9 
           1295      6.37555e+9 
           1305      6.06851e+9 
           1315      7.74559e+9 
           1325      7.34414e+9 
           1335       6.7585e+9 
           1345       7.2496e+9 
           1355      7.09169e+9 
           1365      6.62725e+9 
           1375      6.58242e+9 
           1385      6.62754e+9 
           1395      6.02101e+9 
           1405      6.21176e+9 
           1415      6.12276e+9 
           1425      6.11765e+9 
           1435      6.09086e+9 
           1442      6.20326e+9 
           1447      6.10379e+9 
           1455      5.96959e+9 
           1465      5.69546e+9 
           1475       5.6249e+9 
           1485      5.45954e+9 
           1495      5.43091e+9 
           1505      5.13743e+9 
           1512      4.77622e+9 
           1517      4.92388e+9 
           1525       4.9493e+9 
           1535      4.56781e+9 
           1545      4.67048e+9 
           1555      4.42536e+9 
           1565      4.46558e+9 
           1575      4.61392e+9 
           1585      4.56998e+9 
           1595      4.59727e+9 
           1605       4.4628e+9 
           1615      4.41261e+9 
           1625      4.29256e+9 
           1635      4.36972e+9 
           1645      4.31174e+9 
           1655      4.10616e+9 
           1665      4.30554e+9 
           1672      4.12806e+9 
           1677      4.20797e+9 
           1685      4.20672e+9 
           1695      4.04879e+9 
           1705      3.87884e+9 
           1715      3.72487e+9 
           1725      3.66573e+9 
           1735      3.75537e+9 
           1745      3.63761e+9 
           1755       3.7066e+9 
           1765      3.45514e+9 
           1775      3.50169e+9 
           1785       3.4861e+9 
           1795      3.54254e+9 
           1805      3.51114e+9 
           1815      3.31131e+9 
           1825      3.36572e+9 
           1835      3.25698e+9 
           1845      3.04989e+9 
           1855      2.97779e+9 
           1865      3.00324e+9 
           1875      3.12474e+9 
           1885      2.88419e+9 
           1895      2.74063e+9 
           1905      2.88976e+9 
           1915      2.75703e+9 
           1925      2.68739e+9 
           1935      2.74632e+9 
           1945      2.78547e+9 
           1955       2.6018e+9 
           1967       2.7277e+9 
           1976      2.79601e+9 
           1984      2.63588e+9 
           1995      2.56354e+9 
           2005      2.60401e+9 
           2015      2.56347e+9 
           2025      2.63055e+9 
           2035       2.4875e+9 
           2045      2.48359e+9 
           2055      2.39989e+9 
           2065      2.42909e+9 
           2074      2.47873e+9 
           2078      2.36895e+9 
           2085      2.40299e+9 
           2095      2.30302e+9 
           2105      2.33595e+9 
           2115      2.31618e+9 
           2125      2.34249e+9 
           2135      2.28258e+9 
           2145      2.21918e+9 
           2155      2.25177e+9 
           2165      2.20867e+9 
           2175      2.18044e+9 
           2185      2.14522e+9 
           2195       2.1541e+9 
           2205      2.10687e+9 
           2215      2.06885e+9 
           2225      2.01506e+9 
           2235      2.03349e+9 
           2245      2.00959e+9 
           2255      1.95721e+9 
           2265      1.96831e+9 
           2275      1.94718e+9 
           2285      1.94389e+9 
           2295      1.88249e+9 
           2305      1.87329e+9 
           2315      1.83464e+9 
           2325      1.81827e+9 
           2335      1.76265e+9 
           2345      1.72264e+9 
           2355      1.73963e+9 
           2365      1.69249e+9 
           2375      1.69256e+9 
           2385      1.64978e+9 
           2395      1.66716e+9 
           2405      1.62669e+9 
           2415      1.61531e+9 
           2425      1.62124e+9 
           2435      1.57338e+9 
           2445      1.57617e+9 
           2455      1.57142e+9 
           2465      1.53563e+9 
           2475      1.51876e+9 
           2485      1.52193e+9 
           2495      1.47714e+9 
           2505      1.49418e+9 
           2513      1.44406e+9 
           2518      1.46947e+9 
           2525      1.43279e+9 
           2535      1.40996e+9 
           2545      1.39221e+9 
           2555       1.4114e+9 
           2565      1.38822e+9 
           2575      1.39331e+9 
           2585      1.38549e+9 
           2595      1.37074e+9 
           2605       1.3548e+9 
           2615      1.34286e+9 
           2625      1.32827e+9 
           2635      1.31626e+9 
           2645      1.32819e+9 
           2655       1.3136e+9 
           2665      1.28356e+9 
           2675      1.28287e+9 
           2685      1.27438e+9 
           2695      1.24782e+9 
           2705      1.24464e+9 
           2715      1.22537e+9 
           2725      1.20432e+9 
           2735      1.20922e+9 
           2745      1.16663e+9 
           2755      1.16111e+9 
           2765      1.15671e+9 
           2775      1.16459e+9 
           2785        1.149e+9 
           2795      1.10834e+9 
           2805        1.122e+9 
           2815      1.12264e+9 
           2825      1.10045e+9 
           2835      1.07344e+9 
           2845      1.07643e+9 
           2855      1.07209e+9 
           2865      1.06962e+9 
           2875      1.05499e+9 
           2885      1.04706e+9 
           2895      1.03813e+9 
           2910       1.0246e+9 
           2930      1.00005e+9 
           2950      9.76488e+8 
           2970       9.6684e+8 
           2990      9.45858e+8 
           3010      9.31501e+8 
           3030      9.16824e+8 
           3050      8.99331e+8 
           3070      8.82735e+8 
           3090      8.66058e+8 
           3110      8.50476e+8 
           3130       8.3645e+8 
           3150      8.21268e+8 
           3170      8.06064e+8 
           3190      7.84623e+8 
           3210      7.77618e+8 
           3230      7.64299e+8 
           3250      7.51105e+8 
           3270      7.38915e+8 
           3290      7.25469e+8 
           3310      7.14115e+8 
           3330      7.01758e+8 
           3350      6.88637e+8 
           3370      6.77966e+8 
           3390      6.66679e+8 
           3410      6.55642e+8 
           3430      6.42863e+8 
           3450      6.30589e+8 
           3470      6.21432e+8 
           3490      6.11206e+8 
           3510      6.02059e+8 
           3530       5.9323e+8 
           3550      5.83635e+8 
           3570      5.76553e+8 
           3590      5.64096e+8 
           3610      5.56273e+8 
           3630      5.46558e+8 
           3640      5.45179e+8 
           3650      5.38577e+8 
           3670      5.32303e+8 
           3690      5.22371e+8 
           3710      5.05012e+8 
           3730       4.8312e+8 
           3750      5.08468e+8 
           3770      5.12073e+8 
           3790      5.54757e+8 
           3810      5.89434e+8 
           3830        5.026e+8 
           3850      6.17483e+8 
           3870      6.38535e+8 
           3890      4.69813e+8 
           3910      6.33201e+8 
           3930      6.29139e+8 
           3950      6.15033e+8 
           3970      4.39716e+8 
           3990      5.86648e+8 
           4010      5.96297e+8 
           4030      5.55297e+8 
           4050       5.8584e+8 
           4070      5.69362e+8 
           4090      5.01289e+8 
           4110      4.25703e+8 
           4130      5.30742e+8 
           4150       5.3266e+8 
           4170      5.30098e+8 
           4190       5.2492e+8 
           4210      5.17224e+8 
           4230      5.08408e+8 
           4250      4.99775e+8 
           4270      4.86902e+8 
           4290      4.82065e+8 
           4310      4.68942e+8 
           4330      4.03536e+8 
           4350       3.6352e+8 
           4370      4.44396e+8 
           4390      4.29859e+8 
           4410      4.39025e+8 
           4430      4.31173e+8 
           4450      4.27039e+8 
           4470      3.97019e+8 
           4490      4.11018e+8 
           4510      4.08548e+8 
           4530      4.01717e+8 
           4550      3.95755e+8 
           4570      3.90025e+8 
           4590      3.84345e+8 
           4610      3.78376e+8 
           4630      3.72338e+8 
           4650      3.66598e+8 
           4670      3.61962e+8 
           4690      3.57014e+8 
           4710      3.45634e+8 
           4730      3.44957e+8 
           4750      3.39637e+8 
           4770      3.36894e+8 
           4790      3.31229e+8 
           4810      3.24817e+8 
           4830       3.1682e+8 
           4850      2.80099e+8 
           4870      2.46129e+8 
           4890      3.01404e+8 
           4910      3.01985e+8 
           4930      2.90411e+8 
           4950      2.95864e+8 
           4970       2.9213e+8 
           4990      2.87917e+8 
           5010      2.78734e+8 
           5030      2.79619e+8 
           5050      2.72592e+8 
           5070      2.72425e+8 
           5090      2.68674e+8 
           5110        2.648e+8 
           5130      2.61007e+8 
           5150      2.57365e+8 
           5170      2.54447e+8 
           5190      2.51063e+8 
           5210      2.46655e+8 
           5230      2.44401e+8 
           5250      2.41203e+8 
           5270      2.37937e+8 
           5290      2.34997e+8 
           5310      2.31854e+8 
           5330      2.28725e+8 
           5350      2.25452e+8 
           5370      2.22992e+8 
           5390      2.20095e+8 
           5410      2.17197e+8 
           5430      2.14041e+8 
           5450      2.11509e+8 
           5470      2.08794e+8 
           5490      2.06338e+8 
           5510      2.03652e+8 
           5530      2.01122e+8 
           5550      1.98635e+8 
           5570      1.96106e+8 
           5590      1.93693e+8 
           5610      1.91153e+8 
           5630      1.88977e+8 
           5650      1.85954e+8 
           5670      1.83801e+8 
           5690      1.81755e+8 
           5710      1.79767e+8 
           5730      1.77585e+8 
           5750      1.75395e+8 
           5770      1.73321e+8 
           5790      1.71204e+8 
           5810      1.69124e+8 
           5830      1.67079e+8 
           5850      1.65091e+8 
           5870      1.57768e+8 
           5890      1.60478e+8 
           5910      1.59221e+8 
           5930      1.57356e+8 
           5950      1.55289e+8 
           5970      1.53669e+8 
           5990      1.51752e+8 
           6010      1.50118e+8 
           6030      1.48346e+8 
           6050      1.46637e+8 
           6070      1.44925e+8 
           6090      1.43234e+8 
           6110      1.41611e+8 
           6130      1.39987e+8 
           6150      1.38181e+8 
           6170      1.36772e+8 
           6190      1.35241e+8 
           6210      1.33697e+8 
           6230      1.32171e+8 
           6250      1.30564e+8 
           6270      1.29196e+8 
           6290      1.27747e+8 
           6310      1.26257e+8 
           6330      1.24916e+8 
           6350      1.23074e+8 
           6370      1.21875e+8 
           6390      1.20772e+8 
           6410      1.19415e+8 
           6430      1.18172e+8 
           6450      1.16842e+8 
           6470      1.15518e+8 
           6490       1.1419e+8 
           6510      1.12619e+8 
           6530      1.10613e+8 
           6550       1.0316e+8 
           6570      9.02442e+7 
           6590      1.05529e+8 
           6610      1.06495e+8 
           6630      1.05733e+8 
           6650       1.0486e+8 
           6670      1.02631e+8 
           6690      1.01598e+8 
           6710      1.01579e+8 
           6730       1.0051e+8 
           6750      9.94607e+7 
           6770      9.84218e+7 
           6790      9.72709e+7 
           6810      9.63511e+7 
           6830      9.53435e+7 
           6850        9.437e+7 
           6870      9.33983e+7 
           6890      9.24283e+7 
           6910      9.14759e+7 
           6930      9.05015e+7 
           6950       8.9607e+7 
           6970      8.86981e+7 
           6990      8.77826e+7 
           7010      8.68914e+7 
           7030      8.60089e+7 
           7050      8.51047e+7 
           7070       8.3011e+7 
           7090      8.34427e+7 
           7110      8.25938e+7 
           7130      8.17754e+7 
           7150      8.09501e+7 
           7170      8.01401e+7 
           7190      7.93596e+7 
           7210      7.85721e+7 
           7230      7.73524e+7 
           7250      7.70123e+7 
           7270      7.62755e+7 
           7290      7.49927e+7 
           7310      7.47803e+7 
           7330      7.40573e+7 
           7350       7.3334e+7 
           7370      7.26244e+7 
           7390      7.19214e+7 
           7410       7.1225e+7 
           7430      7.05145e+7 
           7450      6.98581e+7 
           7470       6.9174e+7 
           7490      6.85163e+7 
           7510      6.78579e+7 
           7530      6.72255e+7 
           7550      6.65923e+7 
           7570      6.59647e+7 
           7590      6.53377e+7 
           7610      6.47267e+7 
           7630      6.41179e+7 
           7650      6.35153e+7 
           7670      6.29213e+7 
           7690      6.23333e+7 
           7710       6.1753e+7 
           7730       6.1176e+7 
           7750      6.06098e+7 
           7770      5.98058e+7 
           7790      5.94966e+7 
           7810      5.89273e+7 
           7830      5.84085e+7 
           7850      5.78509e+7 
           7870      5.73279e+7 
           7890      5.67472e+7 
           7910      5.63413e+7 
           7930      5.58346e+7 
           7950      5.52703e+7 
           7970      5.47994e+7 
           7990      5.42462e+7 
           8010      5.38406e+7 
           8030      5.33402e+7 
           8050      5.28604e+7 
           8070      5.23899e+7 
           8090      5.18687e+7 
           8110      5.14248e+7 
           8130      5.09897e+7 
           8150      5.05038e+7 
           8170      5.01061e+7 
           8190      4.96179e+7 
           8210      4.90747e+7 
           8230      4.87124e+7 
           8250      4.83575e+7 
           8270      4.77841e+7 
           8290       4.7505e+7 
           8310      4.71162e+7 
           8330      4.67007e+7 
           8350      4.61423e+7 
           8370      4.58473e+7 
           8390      4.55193e+7 
           8410      4.51129e+7 
           8430      4.46838e+7 
           8450      4.40109e+7 
           8470      4.38479e+7 
           8490      4.34346e+7 
           8510      4.29498e+7 
           8530      4.27258e+7 
           8550      4.17439e+7 
           8570      4.23936e+7 
