# Kurucz ODFNEW /NOVER (2003)
# teff = 20000 K (value for the effective temperature for the model. Temperatures are given in K)
# logg = 3 log(cm/s2) (value for Log(G) for the model.)
# meta = -2  (value for the Metallicity for the model.)
# lh = 1.25  (l/Hp where l is the  mixing length of the convective element and Hp is the pressure scale height)
# vtur = 2 km/s (Microturbulence velocity)
# alpha = 0.4  (Alpha)
#
# column 1: WAVELENGTH (ANGSTROM), Wavelength in Angstrom
# column 2: FLUX (ERG/CM2/S/A), Flux in erg/cm2/s/A
          147.2     3.60441e-20 
            151      2.5172e-19 
          155.2     1.93299e-18 
          158.8     1.01812e-17 
            162     4.19162e-17 
            166     2.27547e-16 
          170.3     1.28189e-15 
          173.4      4.2238e-15 
          176.8     1.48736e-14 
          180.2     4.98929e-14 
          181.7     8.38518e-14 
          186.1     3.66034e-13 
            191     1.73985e-12 
          193.9     4.21257e-12 
          198.4     1.57611e-11 
          201.8     4.10188e-11 
            205     9.79183e-11 
          210.5       4.098e-10 
          216.2      1.66763e-9 
          219.8      3.89143e-9 
            223      8.06882e-9 
          226.8      1.86518e-8 
            230       7.3886e-8 
            234      1.81794e-7 
            240      5.65284e-7 
          246.5      1.81333e-6 
          252.4      4.98545e-6 
          256.8      1.00709e-5 
            260      1.69701e-5 
            264      3.14082e-5 
          268.5      6.13179e-5 
          273.5     0.000125531 
          278.5     0.000250637 
            284     0.000520703 
            290        0.001118 
            296      0.00232231 
            301        0.004176 
            308      0.00908703 
            318       0.0265988 
            328       0.0718799 
            338        0.182828 
            348        0.439213 
            357        0.924672 
            366         1.87403 
            375         3.65652 
            385         7.39556 
            395         14.3861 
            405         27.0216 
            414         46.3494 
            422         73.2774 
            430         113.655 
            441         202.446 
            451         332.961 
            460         510.401 
            470         803.479 
            480         1238.48 
            490         1872.51 
            500         2779.21 
            506         22256.3 
            512           66061 
            520         85803.5 
            530          129638 
            540          143612 
            550          220047 
            560          275327 
            570          348275 
            580          350625 
            590          484153 
            600          641664 
            610          787355 
            620          937002 
            630      1.12573e+6 
            640      1.30577e+6 
            650      1.54909e+6 
            658      1.78522e+6 
            665       1.9758e+6 
            675      2.24909e+6 
            685      2.59064e+6 
            695      3.05658e+6 
            705       3.4696e+6 
            716      4.01291e+6 
            726      4.52346e+6 
            735      5.08219e+6 
            745      5.76506e+6 
            755       6.4755e+6 
            765      7.21755e+6 
            775      8.08498e+6 
            785      8.98685e+6 
            795      9.90485e+6 
            805      1.09439e+7 
            815      1.19894e+7 
            825      1.32105e+7 
            835      1.42209e+7 
            845      1.56802e+7 
            855      1.70064e+7 
            865      1.85655e+7 
            875      2.01708e+7 
            885      2.18941e+7 
            895      2.36086e+7 
            905        2.504e+7 
            915      5.32994e+7 
            925      8.80727e+8 
            935      2.76489e+9 
            945      6.12242e+9 
            955      7.32413e+9 
            965      8.80873e+9 
            975      3.78511e+9 
            985      9.05378e+9 
            995      8.67293e+9 
           1005      9.00771e+9 
           1015      8.63802e+9 
           1025      4.12865e+9 
           1035      7.67508e+9 
           1045      9.40146e+9 
           1055      9.13438e+9 
           1065      8.34951e+9 
           1075      8.88144e+9 
           1085      8.34919e+9 
           1095      8.89207e+9 
           1105      8.34588e+9 
           1115        8.362e+9 
           1125      7.93271e+9 
           1135      8.37112e+9 
           1145      7.91375e+9 
           1155      8.17804e+9 
           1165      8.16177e+9 
           1175      7.15789e+9 
           1185      7.96907e+9 
           1195      7.33396e+9 
           1205      5.91133e+9 
           1215        2.811e+9 
           1225      6.65981e+9 
           1235      7.30871e+9 
           1245      7.31864e+9 
           1255      7.14005e+9 
           1265      7.04644e+9 
           1275      7.13216e+9 
           1285      6.99718e+9 
           1295      6.20752e+9 
           1305      6.28883e+9 
           1315      6.72208e+9 
           1325      6.52594e+9 
           1335      6.26302e+9 
           1345       6.3662e+9 
           1355      6.38585e+9 
           1365      6.18951e+9 
           1375      6.11036e+9 
           1385      6.08097e+9 
           1395      5.68591e+9 
           1405      5.73809e+9 
           1415      5.80196e+9 
           1425      5.72434e+9 
           1435      5.70009e+9 
           1442      5.68673e+9 
           1447      5.63418e+9 
           1455      5.55478e+9 
           1465       5.4599e+9 
           1475      5.38871e+9 
           1485      5.30272e+9 
           1495      5.21802e+9 
           1505      5.07423e+9 
           1512      5.00165e+9 
           1517      5.01523e+9 
           1525      4.95027e+9 
           1535      4.75615e+9 
           1545      4.78001e+9 
           1555      4.64301e+9 
           1565      4.68461e+9 
           1575      4.66617e+9 
           1585      4.60043e+9 
           1595      4.56069e+9 
           1605      4.42609e+9 
           1615      4.36841e+9 
           1625      4.35148e+9 
           1635      4.33209e+9 
           1645      4.24562e+9 
           1655      4.20602e+9 
           1665      4.17562e+9 
           1672      4.08359e+9 
           1677      4.13376e+9 
           1685      4.08253e+9 
           1695      3.99857e+9 
           1705      3.92213e+9 
           1715       3.8299e+9 
           1725      3.79904e+9 
           1735      3.77052e+9 
           1745      3.71357e+9 
           1755      3.70195e+9 
           1765      3.56712e+9 
           1775      3.55526e+9 
           1785      3.53067e+9 
           1795      3.51576e+9 
           1805      3.48235e+9 
           1815      3.39742e+9 
           1825      3.37828e+9 
           1835      3.33261e+9 
           1845      3.19996e+9 
           1855      3.13008e+9 
           1865      3.13462e+9 
           1875      3.15314e+9 
           1885      3.01057e+9 
           1895      2.90754e+9 
           1905      2.98682e+9 
           1915      2.89058e+9 
           1925      2.84101e+9 
           1935      2.86645e+9 
           1945      2.86763e+9 
           1955      2.74029e+9 
           1967      2.78748e+9 
           1976       2.8046e+9 
           1984      2.71589e+9 
           1995      2.64305e+9 
           2005       2.6682e+9 
           2015      2.66442e+9 
           2025      2.65609e+9 
           2035      2.58311e+9 
           2045      2.55466e+9 
           2055      2.48356e+9 
           2065      2.48201e+9 
           2074      2.51306e+9 
           2078      2.44512e+9 
           2085      2.44692e+9 
           2095      2.38568e+9 
           2105      2.39504e+9 
           2115      2.37648e+9 
           2125      2.37061e+9 
           2135      2.33671e+9 
           2145      2.29082e+9 
           2155      2.28421e+9 
           2165      2.25971e+9 
           2175      2.22974e+9 
           2185      2.20732e+9 
           2195      2.18741e+9 
           2205       2.1608e+9 
           2215      2.13672e+9 
           2225      2.10706e+9 
           2235      2.08372e+9 
           2245       2.0664e+9 
           2255      2.03803e+9 
           2265      2.02088e+9 
           2275      1.99763e+9 
           2285       1.9783e+9 
           2295      1.93721e+9 
           2305       1.9332e+9 
           2315      1.90719e+9 
           2325      1.88796e+9 
           2335      1.85807e+9 
           2345      1.83678e+9 
           2355      1.82753e+9 
           2365      1.80349e+9 
           2375      1.78479e+9 
           2385      1.76085e+9 
           2395      1.74401e+9 
           2405      1.72641e+9 
           2415      1.70361e+9 
           2425      1.69453e+9 
           2435      1.67314e+9 
           2445      1.65652e+9 
           2455      1.64136e+9 
           2465      1.62224e+9 
           2475       1.6056e+9 
           2485      1.58818e+9 
           2495       1.5477e+9 
           2505       1.5544e+9 
           2513      1.53032e+9 
           2518      1.52984e+9 
           2525      1.51977e+9 
           2535      1.50323e+9 
           2545       1.4787e+9 
           2555      1.47436e+9 
           2565      1.45527e+9 
           2575      1.44627e+9 
           2585      1.43098e+9 
           2595      1.41606e+9 
           2605      1.41104e+9 
           2615      1.39762e+9 
           2625      1.38278e+9 
           2635      1.36433e+9 
           2645      1.35549e+9 
           2655      1.34091e+9 
           2665      1.32504e+9 
           2675      1.31215e+9 
           2685      1.30626e+9 
           2695      1.28372e+9 
           2705      1.27965e+9 
           2715      1.26666e+9 
           2725       1.2448e+9 
           2735      1.24186e+9 
           2745      1.22358e+9 
           2755      1.21288e+9 
           2765       1.1952e+9 
           2775      1.19399e+9 
           2785      1.18174e+9 
           2795      1.15092e+9 
           2805      1.15058e+9 
           2815      1.14803e+9 
           2825      1.12736e+9 
           2835      1.11745e+9 
           2845      1.11459e+9 
           2855      1.10393e+9 
           2865      1.09376e+9 
           2875      1.08316e+9 
           2885      1.07295e+9 
           2895      1.06267e+9 
           2910      1.04738e+9 
           2930      1.02695e+9 
           2950      1.00246e+9 
           2970      9.89732e+8 
           2990      9.70931e+8 
           3010      9.53206e+8 
           3030       9.3611e+8 
           3050      9.19013e+8 
           3070      9.02361e+8 
           3090      8.85115e+8 
           3110       8.6999e+8 
           3130      8.55408e+8 
           3150       8.3991e+8 
           3170      8.24734e+8 
           3190      8.04392e+8 
           3210      7.95972e+8 
           3230      7.81884e+8 
           3250      7.68225e+8 
           3270      7.55721e+8 
           3290      7.41688e+8 
           3310      7.30001e+8 
           3330      7.17522e+8 
           3350      7.04079e+8 
           3370      6.93358e+8 
           3390      6.81693e+8 
           3410      6.70286e+8 
           3430      6.56184e+8 
           3450      6.43122e+8 
           3470      6.34385e+8 
           3490       6.2463e+8 
           3510      6.17623e+8 
           3530      6.07833e+8 
           3550      5.98104e+8 
           3570      5.90534e+8 
           3590      5.78448e+8 
           3610      5.69571e+8 
           3630      5.59966e+8 
           3640      5.58373e+8 
           3650       5.5314e+8 
           3670      5.45785e+8 
           3690        5.263e+8 
           3710      5.30165e+8 
           3730      5.36464e+8 
           3750      6.00677e+8 
           3770      6.03254e+8 
           3790      6.19328e+8 
           3810      6.42636e+8 
           3830      5.72071e+8 
           3850      6.50016e+8 
           3870      6.40975e+8 
           3890      5.49157e+8 
           3910      6.29579e+8 
           3930       6.1565e+8 
           3950      6.09649e+8 
           3970      5.10468e+8 
           3990      5.88636e+8 
           4010      5.79124e+8 
           4030      5.55552e+8 
           4050      5.64732e+8 
           4070      5.54465e+8 
           4090      5.30409e+8 
           4110      4.71578e+8 
           4130      5.23453e+8 
           4150      5.16976e+8 
           4170      5.11661e+8 
           4190      5.05136e+8 
           4210      4.97478e+8 
           4230      4.89711e+8 
           4250      4.82005e+8 
           4270      4.73533e+8 
           4290      4.67225e+8 
           4310      4.59532e+8 
           4330      4.33355e+8 
           4350      3.97405e+8 
           4370      4.38616e+8 
           4390      4.25812e+8 
           4410      4.26279e+8 
           4430      4.18445e+8 
           4450      4.13951e+8 
           4470      3.96566e+8 
           4490      4.01338e+8 
           4510      3.95953e+8 
           4530      3.90096e+8 
           4550      3.84272e+8 
           4570      3.78589e+8 
           4590      3.73223e+8 
           4610      3.67882e+8 
           4630      3.62602e+8 
           4650      3.56841e+8 
           4670      3.52185e+8 
           4690      3.47286e+8 
           4710      3.38433e+8 
           4730      3.37278e+8 
           4750      3.32307e+8 
           4770      3.28118e+8 
           4790      3.23512e+8 
           4810       3.1889e+8 
           4830      3.14026e+8 
           4850      2.99542e+8 
           4870      2.70131e+8 
           4890      3.00821e+8 
           4910      2.97485e+8 
           4930      2.88706e+8 
           4950      2.89422e+8 
           4970      2.85541e+8 
           4990      2.81668e+8 
           5010      2.74936e+8 
           5030      2.74109e+8 
           5050      2.68707e+8 
           5070      2.66841e+8 
           5090      2.63279e+8 
           5110       2.5978e+8 
           5130      2.56326e+8 
           5150      2.52933e+8 
           5170      2.49641e+8 
           5190      2.46378e+8 
           5210      2.43047e+8 
           5230      2.39993e+8 
           5250       2.3687e+8 
           5270        2.338e+8 
           5290      2.30797e+8 
           5310      2.27819e+8 
           5330      2.24893e+8 
           5350       2.2199e+8 
           5370      2.19203e+8 
           5390      2.16425e+8 
           5410      2.13683e+8 
           5430      2.10949e+8 
           5450      2.08313e+8 
           5470      2.05709e+8 
           5490      2.03163e+8 
           5510      2.00624e+8 
           5530      1.98128e+8 
           5550      1.95688e+8 
           5570      1.93265e+8 
           5590      1.90896e+8 
           5610      1.88532e+8 
           5630      1.86256e+8 
           5650      1.83913e+8 
           5670      1.81692e+8 
           5690      1.79486e+8 
           5710      1.77364e+8 
           5730      1.75233e+8 
           5750      1.73105e+8 
           5770      1.71058e+8 
           5790      1.69013e+8 
           5810      1.67003e+8 
           5830      1.65017e+8 
           5850      1.63065e+8 
           5870      1.57353e+8 
           5890      1.59175e+8 
           5910      1.57376e+8 
           5930      1.55535e+8 
           5950      1.53714e+8 
           5970      1.51946e+8 
           5990      1.50166e+8 
           6010      1.48438e+8 
           6030       1.4673e+8 
           6050      1.45052e+8 
           6070      1.43381e+8 
           6090      1.41751e+8 
           6110      1.40138e+8 
           6130      1.38543e+8 
           6150      1.36966e+8 
           6170      1.35427e+8 
           6190      1.33904e+8 
           6210      1.32398e+8 
           6230      1.30918e+8 
           6250      1.29455e+8 
           6270      1.28017e+8 
           6290      1.26595e+8 
           6310      1.25179e+8 
           6330      1.23806e+8 
           6350      1.22392e+8 
           6370      1.21077e+8 
           6390      1.19776e+8 
           6410      1.18461e+8 
           6430      1.17179e+8 
           6450       1.1591e+8 
           6470      1.14645e+8 
           6490      1.13412e+8 
           6510      1.12192e+8 
           6530      1.10852e+8 
           6550      1.07691e+8 
           6570      9.68598e+7 
           6590      1.06943e+8 
           6610      1.06314e+8 
           6630      1.05193e+8 
           6650      1.04161e+8 
           6670      1.02318e+8 
           6690      1.01261e+8 
           6710      1.00909e+8 
           6730      9.98531e+7 
           6750      9.88158e+7 
           6770      9.77889e+7 
           6790      9.67643e+7 
           6810      9.57662e+7 
           6830      9.47782e+7 
           6850         9.38e+7 
           6870      9.28396e+7 
           6890      9.18887e+7 
           6910      9.09473e+7 
           6930      9.00152e+7 
           6950      8.91079e+7 
           6970      8.82018e+7 
           6990      8.73045e+7 
           7010      8.64314e+7 
           7030      8.55592e+7 
           7050       8.4703e+7 
           7070      8.26191e+7 
           7090      8.30155e+7 
           7110      8.21914e+7 
           7130      8.13753e+7 
           7150      8.05669e+7 
           7170      7.97517e+7 
           7190      7.89807e+7 
           7210      7.82098e+7 
           7230      7.73308e+7 
           7250      7.66826e+7 
           7270      7.59334e+7 
           7290      7.46312e+7 
           7310       7.4449e+7 
           7330      7.37418e+7 
           7350      7.30272e+7 
           7370      7.23193e+7 
           7390      7.16248e+7 
           7410      7.09368e+7 
           7430      7.02552e+7 
           7450      6.96002e+7 
           7470      6.89309e+7 
           7490      6.82812e+7 
           7510      6.76041e+7 
           7530       6.6993e+7 
           7550       6.6361e+7 
           7570       6.5734e+7 
           7590       6.5116e+7 
           7610      6.45055e+7 
           7630      6.39025e+7 
           7650      6.33055e+7 
           7670      6.27177e+7 
           7690      6.21307e+7 
           7710      6.15534e+7 
           7730      6.09913e+7 
           7750       6.0421e+7 
           7770      5.98457e+7 
           7790      5.93234e+7 
           7810      5.87328e+7 
           7830      5.82439e+7 
           7850      5.77726e+7 
           7870      5.72464e+7 
           7890      5.66885e+7 
           7910      5.61878e+7 
           7930      5.55854e+7 
           7950      5.50641e+7 
           7970       5.4536e+7 
           7990      5.40757e+7 
           8010      5.35852e+7 
           8030      5.31305e+7 
           8050      5.26907e+7 
           8070      5.22586e+7 
           8090      5.16816e+7 
           8110      5.12741e+7 
           8130      5.09076e+7 
           8150      5.03478e+7 
           8170      5.00198e+7 
           8190      4.95359e+7 
           8210      4.89942e+7 
           8230      4.87213e+7 
           8250      4.83022e+7 
           8270       4.7637e+7 
           8290      4.73975e+7 
           8310      4.70033e+7 
           8330      4.65884e+7 
           8350      4.59726e+7 
           8370      4.56091e+7 
           8390      4.52672e+7 
           8410      4.48284e+7 
           8430      4.44209e+7 
           8450      4.38732e+7 
           8470       4.3254e+7 
           8490      4.36374e+7 
           8510      4.22902e+7 
           8530      4.32058e+7 
           8550      4.08915e+7 
           8570      4.32399e+7 
           8590      4.09037e+7 
