# Kurucz ODFNEW /NOVER (2003)
# teff = 30000 K (value for the effective temperature for the model. Temperatures are given in K)
# logg = 4 log(cm/s2) (value for Log(G) for the model.)
# meta = -1  (value for the Metallicity for the model.)
# lh = 1.25  (l/Hp where l is the  mixing length of the convective element and Hp is the pressure scale height)
# vtur = 2 km/s (Microturbulence velocity)
# alpha = 0  (Alpha)
#
# column 1: WAVELENGTH (ANGSTROM), Wavelength in Angstrom
# column 2: FLUX (ERG/CM2/S/A), Flux in erg/cm2/s/A
          147.2      7.93662e-9 
            151      2.59304e-8 
          155.2      8.98303e-8 
          158.8      2.47648e-7 
            162      5.88062e-7 
            166      1.65533e-6 
          170.3      4.77087e-6 
          173.4      9.91141e-6 
          176.8      2.14601e-5 
          180.2      4.51339e-5 
          181.7      6.21061e-5 
          186.1     0.000153919 
            191     0.000402773 
          193.9     0.000695578 
          198.4      0.00157362 
          201.8      0.00284662 
            205      0.00488417 
          210.5       0.0118978 
          216.2       0.0285377 
          219.8       0.0484573 
            223       0.0764762 
          226.8        0.129333 
            230         93.7693 
            234         263.909 
            240         473.973 
          246.5          899.69 
          252.4         1559.47 
          256.8         1922.03 
            260         3233.52 
            264         4508.74 
          268.5         6628.75 
          273.5         9638.54 
          278.5         13409.1 
            284         22973.9 
            290         34022.6 
            296         48252.1 
            301         59743.8 
            308         90477.2 
            318          197462 
            328          314935 
            338          529460 
            348          832168 
            357      1.35502e+6 
            366      2.05621e+6 
            375      2.75103e+6 
            385       3.9888e+6 
            395      5.62251e+6 
            405       7.5022e+6 
            414      9.84003e+6 
            422      1.18895e+7 
            430      1.46472e+7 
            441      1.92131e+7 
            451      2.42224e+7 
            460      2.89758e+7 
            470      3.61091e+7 
            480       4.3973e+7 
            490      5.29131e+7 
            500      6.44433e+7 
            506      3.15467e+8 
            512      1.30037e+9 
            520      1.26608e+9 
            530      1.26445e+9 
            540      1.17274e+9 
            550      1.39035e+9 
            560      1.55197e+9 
            570      1.64838e+9 
            580      1.53917e+9 
            590      1.71493e+9 
            600      1.69685e+9 
            610      1.83424e+9 
            620      2.00076e+9 
            630      2.04207e+9 
            640      2.02409e+9 
            650      2.12458e+9 
            658      2.14188e+9 
            665      2.24849e+9 
            675      2.29928e+9 
            685      2.22565e+9 
            695      2.52598e+9 
            705      2.45104e+9 
            716      2.69811e+9 
            726      2.71328e+9 
            735      2.78148e+9 
            745      2.88867e+9 
            755      2.93413e+9 
            765      3.01622e+9 
            775      3.10259e+9 
            785      3.23349e+9 
            795      3.27402e+9 
            805      3.30724e+9 
            815      3.34098e+9 
            825      3.47363e+9 
            835      3.26552e+9 
            845      3.53069e+9 
            855      3.58262e+9 
            865      3.68208e+9 
            875      3.77007e+9 
            885      3.86453e+9 
            895      3.93818e+9 
            905      3.93659e+9 
            915      4.93396e+9 
            925     2.37871e+10 
            935     4.05819e+10 
            945     6.12495e+10 
            955     6.67107e+10 
            965     7.64159e+10 
            975     3.86025e+10 
            985     6.97293e+10 
            995     6.47806e+10 
           1005     6.70786e+10 
           1015     6.65459e+10 
           1025     4.64213e+10 
           1035     6.25605e+10 
           1045     6.92173e+10 
           1055     6.69094e+10 
           1065     6.04541e+10 
           1075     6.20045e+10 
           1085     5.75067e+10 
           1095     6.08818e+10 
           1105     5.84983e+10 
           1115     5.73567e+10 
           1125     5.16713e+10 
           1135     5.53619e+10 
           1145     5.23015e+10 
           1155     5.20634e+10 
           1165     5.10735e+10 
           1175     3.99698e+10 
           1185     4.74378e+10 
           1195     4.62435e+10 
           1205     4.32738e+10 
           1215     3.06186e+10 
           1225     4.28464e+10 
           1235     4.43018e+10 
           1245     4.28104e+10 
           1255     4.25638e+10 
           1265     4.23855e+10 
           1275      4.1955e+10 
           1285     4.13319e+10 
           1295     3.83373e+10 
           1305     3.84975e+10 
           1315     3.90449e+10 
           1325     3.76295e+10 
           1335     3.64464e+10 
           1345     3.63625e+10 
           1355     3.58216e+10 
           1365     3.46719e+10 
           1375     3.40538e+10 
           1385     3.33419e+10 
           1395     2.95359e+10 
           1405     2.96742e+10 
           1415     3.10946e+10 
           1425     2.94445e+10 
           1435     2.98533e+10 
           1442     2.98378e+10 
           1447     2.94214e+10 
           1455     2.86557e+10 
           1465     2.80551e+10 
           1475     2.75998e+10 
           1485     2.73011e+10 
           1495     2.65461e+10 
           1505     2.58003e+10 
           1512     2.52653e+10 
           1517     2.51563e+10 
           1525      2.4655e+10 
           1535     2.26688e+10 
           1545     2.17039e+10 
           1555     2.11359e+10 
           1565     2.17172e+10 
           1575      2.2065e+10 
           1585     2.19434e+10 
           1595     2.16188e+10 
           1605     2.04976e+10 
           1615     1.99124e+10 
           1625     1.99377e+10 
           1635     1.98848e+10 
           1645     1.92066e+10 
           1655     1.95873e+10 
           1665     1.92304e+10 
           1672     1.85644e+10 
           1677     1.95536e+10 
           1685     1.90008e+10 
           1695     1.85295e+10 
           1705     1.80756e+10 
           1715      1.7526e+10 
           1725     1.71436e+10 
           1735     1.73433e+10 
           1745     1.70189e+10 
           1755     1.67374e+10 
           1765     1.63959e+10 
           1775     1.60993e+10 
           1785     1.60022e+10 
           1795     1.57484e+10 
           1805     1.56414e+10 
           1815     1.51734e+10 
           1825     1.49917e+10 
           1835      1.4831e+10 
           1845     1.40752e+10 
           1855     1.39042e+10 
           1865     1.38811e+10 
           1875     1.37752e+10 
           1885     1.30983e+10 
           1895     1.26824e+10 
           1905      1.2941e+10 
           1915     1.25144e+10 
           1925     1.20848e+10 
           1935     1.23215e+10 
           1945     1.23464e+10 
           1955     1.16133e+10 
           1967     1.18284e+10 
           1976     1.19476e+10 
           1984      1.1506e+10 
           1995     1.11617e+10 
           2005     1.12559e+10 
           2015     1.12094e+10 
           2025     1.11394e+10 
           2035     1.07673e+10 
           2045     1.06145e+10 
           2055      9.45609e+9 
           2065      9.22779e+9 
           2074       9.4623e+9 
           2078      9.30463e+9 
           2085       9.5447e+9 
           2095      9.66324e+9 
           2105      9.76719e+9 
           2115      9.72221e+9 
           2125      9.61507e+9 
           2135      9.46984e+9 
           2145      9.28922e+9 
           2155      9.24296e+9 
           2165      9.03721e+9 
           2175      8.98855e+9 
           2185      8.80388e+9 
           2195      8.77232e+9 
           2205       8.6418e+9 
           2215       8.4503e+9 
           2225      8.38745e+9 
           2235      8.25374e+9 
           2245      8.15645e+9 
           2255       7.9687e+9 
           2265      7.92933e+9 
           2275      7.82192e+9 
           2285      7.69805e+9 
           2295      7.35145e+9 
           2305       7.4289e+9 
           2315        7.374e+9 
           2325      7.27655e+9 
           2335       7.1653e+9 
           2345      7.08788e+9 
           2355      6.98909e+9 
           2365      6.89442e+9 
           2375       6.7924e+9 
           2385      6.64085e+9 
           2395      6.59339e+9 
           2405      6.52174e+9 
           2415      6.42973e+9 
           2425      6.35003e+9 
           2435      6.25192e+9 
           2445      6.17706e+9 
           2455      6.09772e+9 
           2465       6.0192e+9 
           2475      5.93622e+9 
           2485      5.85346e+9 
           2495      5.32733e+9 
           2505      5.68394e+9 
           2513      5.49968e+9 
           2518      5.56349e+9 
           2525      5.55921e+9 
           2535      5.49023e+9 
           2545      5.38639e+9 
           2555      5.33202e+9 
           2565      5.27632e+9 
           2575      5.20997e+9 
           2585      5.14544e+9 
           2595      5.07951e+9 
           2605      5.03559e+9 
           2615       4.9685e+9 
           2625      4.90775e+9 
           2635      4.84274e+9 
           2645      4.77857e+9 
           2655       4.7173e+9 
           2665      4.64367e+9 
           2675      4.58354e+9 
           2685      4.55217e+9 
           2695      4.46072e+9 
           2705      4.42935e+9 
           2715      4.37767e+9 
           2725      4.30496e+9 
           2735      4.24709e+9 
           2745      4.22311e+9 
           2755      4.17459e+9 
           2765      4.09719e+9 
           2775      4.07833e+9 
           2785      4.02626e+9 
           2795      3.94123e+9 
           2805      3.92021e+9 
           2815      3.88685e+9 
           2825      3.81317e+9 
           2835      3.76536e+9 
           2845      3.75136e+9 
           2855      3.70322e+9 
           2865      3.66025e+9 
           2875      3.61847e+9 
           2885      3.57759e+9 
           2895      3.53534e+9 
           2910        3.471e+9 
           2930      3.39539e+9 
           2950      3.29786e+9 
           2970      3.24159e+9 
           2990      3.16618e+9 
           3010      3.09156e+9 
           3030      3.02618e+9 
           3050      2.96204e+9 
           3070      2.89991e+9 
           3090      2.82327e+9 
           3110      2.77352e+9 
           3130      2.71293e+9 
           3150      2.65372e+9 
           3170      2.59702e+9 
           3190      2.52791e+9 
           3210      2.48323e+9 
           3230      2.43589e+9 
           3250       2.3866e+9 
           3270      2.33692e+9 
           3290      2.28712e+9 
           3310      2.24296e+9 
           3330      2.19537e+9 
           3350      2.14832e+9 
           3370      2.10761e+9 
           3390      2.06704e+9 
           3410      2.02576e+9 
           3430      1.97864e+9 
           3450      1.93348e+9 
           3470      1.89959e+9 
           3490      1.86189e+9 
           3510      1.83015e+9 
           3530      1.79726e+9 
           3550      1.76227e+9 
           3570      1.73566e+9 
           3590      1.69243e+9 
           3610      1.66396e+9 
           3630      1.62912e+9 
           3640      1.62215e+9 
           3650      1.58335e+9 
           3670       1.5599e+9 
           3690      1.52721e+9 
           3710      1.47877e+9 
           3730      1.42694e+9 
           3750      1.45779e+9 
           3770      1.44114e+9 
           3790      1.48044e+9 
           3810      1.51794e+9 
           3830      1.36503e+9 
           3850      1.52072e+9 
           3870      1.50796e+9 
           3890       1.2937e+9 
           3910      1.47389e+9 
           3930      1.44195e+9 
           3950      1.41944e+9 
           3970       1.1976e+9 
           3990      1.36779e+9 
           4010      1.34795e+9 
           4030       1.2903e+9 
           4050      1.31047e+9 
           4070      1.27538e+9 
           4090      1.20873e+9 
           4110      1.09189e+9 
           4130      1.20518e+9 
           4150      1.18981e+9 
           4170      1.17714e+9 
           4190      1.15711e+9 
           4210      1.13792e+9 
           4230      1.12026e+9 
           4250      1.09864e+9 
           4270      1.07581e+9 
           4290      1.06112e+9 
           4310      1.03918e+9 
           4330      9.74511e+8 
           4350      9.01742e+8 
           4370      9.87882e+8 
           4390      9.60467e+8 
           4410      9.58439e+8 
           4430      9.44084e+8 
           4450      9.30347e+8 
           4470      8.90044e+8 
           4490      9.00315e+8 
           4510      8.86588e+8 
           4530      8.72608e+8 
           4550      8.56274e+8 
           4570      8.44159e+8 
           4590      8.30131e+8 
           4610      8.17254e+8 
           4630       8.0397e+8 
           4650       7.8198e+8 
           4670      7.78544e+8 
           4690      7.62687e+8 
           4710      7.46849e+8 
           4730      7.44723e+8 
           4750      7.32738e+8 
           4770      7.22881e+8 
           4790      7.11767e+8 
           4810      7.00552e+8 
           4830      6.87543e+8 
           4850      6.52752e+8 
           4870      5.95396e+8 
           4890      6.56422e+8 
           4910      6.49163e+8 
           4930      6.29058e+8 
           4950      6.29658e+8 
           4970      6.21474e+8 
           4990      6.12281e+8 
           5010      5.96596e+8 
           5030      5.94377e+8 
           5050      5.83282e+8 
           5070      5.77415e+8 
           5090      5.69003e+8 
           5110      5.60793e+8 
           5130      5.52549e+8 
           5150      5.44672e+8 
           5170      5.37027e+8 
           5190      5.29567e+8 
           5210      5.22109e+8 
           5230      5.14749e+8 
           5250      5.07472e+8 
           5270      5.00345e+8 
           5290      4.93459e+8 
           5310      4.86596e+8 
           5330      4.79914e+8 
           5350      4.73266e+8 
           5370      4.66795e+8 
           5390      4.60342e+8 
           5410      4.53237e+8 
           5430       4.4795e+8 
           5450      4.41852e+8 
           5470      4.35882e+8 
           5490      4.30025e+8 
           5510      4.24278e+8 
           5530      4.18579e+8 
           5550      4.13048e+8 
           5570      4.07525e+8 
           5590      4.02106e+8 
           5610      3.96838e+8 
           5630      3.91635e+8 
           5650       3.8646e+8 
           5670      3.81219e+8 
           5690      3.75437e+8 
           5710       3.7035e+8 
           5730      3.65635e+8 
           5750      3.60737e+8 
           5770      3.56374e+8 
           5790      3.51803e+8 
           5810      3.47343e+8 
           5830      3.42847e+8 
           5850      3.38679e+8 
           5870      3.26809e+8 
           5890      3.30055e+8 
           5910      3.26628e+8 
           5930        3.225e+8 
           5950      3.18495e+8 
           5970      3.14737e+8 
           5990      3.10717e+8 
           6010      3.06942e+8 
           6030      3.03117e+8 
           6050      2.99418e+8 
           6070      2.95791e+8 
           6090      2.92176e+8 
           6110      2.88621e+8 
           6130      2.85117e+8 
           6150      2.81572e+8 
           6170      2.78196e+8 
           6190      2.74897e+8 
           6210      2.71615e+8 
           6230       2.6836e+8 
           6250       2.6514e+8 
           6270      2.62005e+8 
           6290      2.58903e+8 
           6310      2.55817e+8 
           6330      2.52821e+8 
           6350      2.49829e+8 
           6370      2.46926e+8 
           6390      2.44027e+8 
           6410      2.41177e+8 
           6430      2.38394e+8 
           6450      2.35623e+8 
           6470      2.32827e+8 
           6490       2.3016e+8 
           6510      2.27575e+8 
           6530      2.24443e+8 
           6550      2.17674e+8 
           6570      1.97246e+8 
           6590      2.15993e+8 
           6610      2.14835e+8 
           6630      2.12478e+8 
           6650      2.10129e+8 
           6670      2.06186e+8 
           6690      2.03861e+8 
           6710      2.03166e+8 
           6730      2.00837e+8 
           6750      1.98682e+8 
           6770      1.96498e+8 
           6790       1.9419e+8 
           6810      1.92166e+8 
           6830      1.90049e+8 
           6850      1.87985e+8 
           6870      1.85935e+8 
           6890      1.83849e+8 
           6910      1.81855e+8 
           6930      1.79936e+8 
           6950      1.77997e+8 
           6970      1.76078e+8 
           6990      1.74185e+8 
           7010      1.72318e+8 
           7030      1.70463e+8 
           7050      1.68656e+8 
           7070      1.64643e+8 
           7090      1.65094e+8 
           7110       1.6334e+8 
           7130      1.61624e+8 
           7150      1.59925e+8 
           7170      1.58206e+8 
           7190      1.56591e+8 
           7210      1.54956e+8 
           7230       1.5291e+8 
           7250      1.51702e+8 
           7270      1.50177e+8 
           7290      1.47604e+8 
           7310      1.47079e+8 
           7330      1.45583e+8 
           7350      1.44095e+8 
           7370       1.4262e+8 
           7390      1.41166e+8 
           7410      1.39733e+8 
           7430      1.38313e+8 
           7450      1.36926e+8 
           7470      1.35485e+8 
           7490      1.34165e+8 
           7510       1.3279e+8 
           7530      1.31494e+8 
           7550      1.30184e+8 
           7570      1.28886e+8 
           7590       1.2758e+8 
           7610      1.26318e+8 
           7630      1.25087e+8 
           7650      1.23854e+8 
           7670      1.22633e+8 
           7690      1.21423e+8 
           7710      1.20236e+8 
           7730      1.19053e+8 
           7750        1.179e+8 
           7770      1.16751e+8 
           7790      1.15625e+8 
           7810      1.14453e+8 
           7830      1.13402e+8 
           7850      1.12391e+8 
           7870      1.11285e+8 
           7890      1.10177e+8 
           7910      1.09187e+8 
           7930      1.08128e+8 
           7950      1.07107e+8 
           7970      1.06007e+8 
           7990      1.05052e+8 
           8010      1.03982e+8 
           8030      1.02997e+8 
           8050       1.0205e+8 
           8070      1.01117e+8 
           8090       1.0003e+8 
           8110      9.90852e+7 
           8130      9.83133e+7 
           8150      9.72756e+7 
           8170      9.65177e+7 
           8190      9.54796e+7 
           8210      9.43219e+7 
           8230      9.36027e+7 
           8250      9.28339e+7 
           8270      9.15922e+7 
           8290      9.10795e+7 
           8310      9.02761e+7 
           8330      8.94251e+7 
           8350      8.82678e+7 
           8370      8.76852e+7 
           8390      8.69947e+7 
           8410      8.62032e+7 
           8430      8.53547e+7 
           8450      8.41491e+7 
           8470      8.37417e+7 
           8490      8.29399e+7 
           8510      8.20356e+7 
           8530       8.1527e+7 
           8550      7.99608e+7 
           8570      8.07832e+7 
           8590       7.8064e+7 
