# Kurucz ODFNEW /NOVER (2003)
# teff = 25000 K (value for the effective temperature for the model. Temperatures are given in K)
# logg = 5 log(cm/s2) (value for Log(G) for the model.)
# meta = 0.2  (value for the Metallicity for the model.)
# lh = 1.25  (l/Hp where l is the  mixing length of the convective element and Hp is the pressure scale height)
# vtur = 2 km/s (Microturbulence velocity)
# alpha = 0.4  (Alpha)
#
# column 1: WAVELENGTH (ANGSTROM), Wavelength in Angstrom
# column 2: FLUX (ERG/CM2/S/A), Flux in erg/cm2/s/A
          147.2     2.33137e-13 
            151     9.21162e-13 
          155.2     3.89663e-12 
          158.8      1.2648e-11 
            162     3.45522e-11 
            166     1.15137e-10 
          170.3     3.93199e-10 
          173.4     9.26789e-10 
          176.8      2.28449e-9 
          180.2      5.45139e-9 
          181.7      7.91494e-9 
          186.1      2.29487e-8 
            191      7.12245e-8 
          193.9      1.35693e-7 
          198.4      3.56252e-7 
          201.8      7.18939e-7 
            205      1.36429e-6 
          210.5      3.93451e-6 
          216.2      1.11788e-5 
          219.8      2.10604e-5 
            223      3.63911e-5 
          226.8      6.83856e-5 
            230      0.00171387 
            234      0.00383665 
            240      0.00896106 
          246.5       0.0213821 
          252.4       0.0459137 
          256.8       0.0764756 
            260        0.118358 
            264        0.185349 
          268.5        0.307922 
          273.5        0.524887 
          278.5        0.887202 
            284         1.63684 
            290         2.88908 
            296          5.0101 
            301         7.77318 
            308          14.704 
            318         33.9244 
            328         69.8874 
            338         146.914 
            348         286.037 
            357         950.359 
            366         1773.43 
            375         2760.41 
            385          4627.5 
            395         7979.83 
            405         12306.4 
            414         18422.4 
            422         25038.6 
            430         34934.6 
            441         52598.1 
            451         74782.5 
            460         99459.4 
            470          138551 
            480          187711 
            490          255159 
            500          339313 
            506      1.58086e+6 
            512      1.20346e+7 
            520      1.38342e+7 
            530      1.71024e+7 
            540        1.806e+7 
            550      2.55354e+7 
            560      2.94032e+7 
            570      3.53933e+7 
            580      3.46123e+7 
            590      4.50181e+7 
            600      4.97367e+7 
            610      5.80979e+7 
            620      6.20525e+7 
            630      6.57696e+7 
            640       6.1362e+7 
            650      5.32183e+7 
            658      7.20849e+7 
            665      8.62544e+7 
            675      9.43012e+7 
            685      9.87537e+7 
            695      1.26007e+8 
            705      1.30166e+8 
            716      1.47082e+8 
            726      1.53436e+8 
            735      1.62073e+8 
            745      1.82288e+8 
            755      1.95091e+8 
            765      2.09967e+8 
            775       2.2547e+8 
            785      2.41172e+8 
            795      2.48787e+8 
            805      2.60666e+8 
            815      2.71437e+8 
            825      2.93474e+8 
            835      2.68818e+8 
            845       3.0782e+8 
            855      3.18642e+8 
            865      3.39131e+8 
            875      3.58226e+8 
            885       3.8614e+8 
            895      4.04217e+8 
            905      4.00361e+8 
            915      4.88717e+8 
            925      1.96659e+9 
            935      4.74023e+9 
            945     1.25511e+10 
            955      2.0178e+10 
            965     2.70512e+10 
            975      4.43773e+9 
            985      2.7974e+10 
            995     2.55542e+10 
           1005     3.06065e+10 
           1015     2.87045e+10 
           1025      8.48643e+9 
           1035     2.12792e+10 
           1045     3.80136e+10 
           1055     3.53332e+10 
           1065     2.55092e+10 
           1075     3.13494e+10 
           1085     2.86112e+10 
           1095     3.24848e+10 
           1105     2.74609e+10 
           1115      2.4799e+10 
           1125     1.97431e+10 
           1135     2.84393e+10 
           1145     2.34168e+10 
           1155     2.55606e+10 
           1165     2.58401e+10 
           1175     1.57429e+10 
           1185     2.48645e+10 
           1195     2.02219e+10 
           1205     1.07164e+10 
           1215      7.02228e+9 
           1225     1.59077e+10 
           1235     2.27558e+10 
           1245     2.28712e+10 
           1255     2.22647e+10 
           1265     2.23593e+10 
           1275     2.30113e+10 
           1285     2.29634e+10 
           1295      1.3377e+10 
           1305     1.38178e+10 
           1315     2.18383e+10 
           1325     2.00119e+10 
           1335     1.93446e+10 
           1345     1.92673e+10 
           1355     1.94602e+10 
           1365     1.68626e+10 
           1375     1.64339e+10 
           1385     1.61696e+10 
           1395     1.09351e+10 
           1405     1.23252e+10 
           1415     1.43047e+10 
           1425     1.43749e+10 
           1435     1.47278e+10 
           1442     1.54437e+10 
           1447     1.51638e+10 
           1455     1.46606e+10 
           1465     1.34292e+10 
           1475     1.35584e+10 
           1485     1.31275e+10 
           1495     1.30037e+10 
           1505      1.1347e+10 
           1512     1.04154e+10 
           1517     1.08089e+10 
           1525     1.12412e+10 
           1535      9.55404e+9 
           1545      9.38847e+9 
           1555       9.0693e+9 
           1565      9.66194e+9 
           1575     1.02681e+10 
           1585     1.01711e+10 
           1595     1.02036e+10 
           1605     1.03526e+10 
           1615     1.01288e+10 
           1625      9.88039e+9 
           1635      1.0432e+10 
           1645     1.03973e+10 
           1655     1.00972e+10 
           1665     1.04084e+10 
           1672      9.95773e+9 
           1677     1.06481e+10 
           1685     1.04268e+10 
           1695      9.83789e+9 
           1705      9.40753e+9 
           1715      8.91247e+9 
           1725      8.69068e+9 
           1735      9.08989e+9 
           1745      8.87453e+9 
           1755      8.91129e+9 
           1765      8.62654e+9 
           1775      8.16468e+9 
           1785      8.22302e+9 
           1795      8.61443e+9 
           1805      8.64228e+9 
           1815      7.70824e+9 
           1825      8.04839e+9 
           1835      7.66387e+9 
           1845      6.97022e+9 
           1855      6.99566e+9 
           1865      7.06977e+9 
           1875      7.43691e+9 
           1885      6.62548e+9 
           1895      6.18142e+9 
           1905      6.69637e+9 
           1915      6.25741e+9 
           1925      5.96271e+9 
           1935      6.29827e+9 
           1945      6.39042e+9 
           1955      5.80664e+9 
           1967      6.31068e+9 
           1976       6.6054e+9 
           1984      6.04384e+9 
           1995      5.95995e+9 
           2005      6.15265e+9 
           2015      5.98354e+9 
           2025      6.22813e+9 
           2035      5.69193e+9 
           2045      5.79288e+9 
           2055      5.57642e+9 
           2065      5.62555e+9 
           2074      5.75953e+9 
           2078      5.31721e+9 
           2085      5.57222e+9 
           2095      5.23882e+9 
           2105      5.42458e+9 
           2115      5.43076e+9 
           2125      5.48289e+9 
           2135      5.34172e+9 
           2145      5.09462e+9 
           2155      5.29771e+9 
           2165      5.25282e+9 
           2175      5.16481e+9 
           2185      5.00709e+9 
           2195      5.05478e+9 
           2205      5.00911e+9 
           2215      4.92106e+9 
           2225      4.76453e+9 
           2235      4.73157e+9 
           2245      4.75693e+9 
           2255      4.57993e+9 
           2265      4.65699e+9 
           2275      4.58084e+9 
           2285      4.56587e+9 
           2295      4.23427e+9 
           2305      4.39267e+9 
           2315      4.26567e+9 
           2325      4.21588e+9 
           2335       4.0543e+9 
           2345      4.07132e+9 
           2355      4.05713e+9 
           2365      3.99521e+9 
           2375      3.93351e+9 
           2385      3.90258e+9 
           2395        3.883e+9 
           2405      3.78148e+9 
           2415      3.75442e+9 
           2425      3.75985e+9 
           2435      3.63264e+9 
           2445      3.64011e+9 
           2455      3.63564e+9 
           2465      3.56987e+9 
           2475      3.51728e+9 
           2485       3.4681e+9 
           2495      3.11241e+9 
           2505      3.36624e+9 
           2513      3.21616e+9 
           2518      3.33085e+9 
           2525      3.27471e+9 
           2535      3.23574e+9 
           2545      3.09746e+9 
           2555      3.16687e+9 
           2565      3.11251e+9 
           2575      3.13781e+9 
           2585      3.10997e+9 
           2595      3.08107e+9 
           2605      3.04669e+9 
           2615       3.0106e+9 
           2625      2.98398e+9 
           2635      2.95622e+9 
           2645       2.9345e+9 
           2655      2.91447e+9 
           2665      2.79594e+9 
           2675       2.8183e+9 
           2685      2.80498e+9 
           2695      2.70779e+9 
           2705      2.67355e+9 
           2715      2.66386e+9 
           2725      2.63546e+9 
           2735      2.63219e+9 
           2745      2.54345e+9 
           2755      2.54165e+9 
           2765      2.51477e+9 
           2775      2.54164e+9 
           2785      2.49642e+9 
           2795      2.37804e+9 
           2805         2.42e+9 
           2815      2.43156e+9 
           2825      2.38496e+9 
           2835      2.29148e+9 
           2845      2.33112e+9 
           2855      2.29901e+9 
           2865       2.2974e+9 
           2875      2.26786e+9 
           2885      2.24257e+9 
           2895      2.21299e+9 
           2910      2.16328e+9 
           2930      2.13082e+9 
           2950      2.06687e+9 
           2970      2.04442e+9 
           2990      1.99079e+9 
           3010      1.93024e+9 
           3030      1.91654e+9 
           3050      1.88164e+9 
           3070      1.85257e+9 
           3090      1.77954e+9 
           3110      1.76834e+9 
           3130      1.72708e+9 
           3150      1.69854e+9 
           3170      1.65535e+9 
           3190      1.61275e+9 
           3210      1.59871e+9 
           3230      1.56189e+9 
           3250      1.53795e+9 
           3270      1.50609e+9 
           3290      1.47523e+9 
           3310      1.44982e+9 
           3330      1.41901e+9 
           3350      1.39235e+9 
           3370      1.36452e+9 
           3390      1.34339e+9 
           3410      1.31848e+9 
           3430       1.2889e+9 
           3450      1.25978e+9 
           3470       1.2377e+9 
           3490      1.21332e+9 
           3510      1.19369e+9 
           3530      1.17537e+9 
           3550      1.15406e+9 
           3570       1.1406e+9 
           3590       1.1034e+9 
           3610       1.0893e+9 
           3630      1.06999e+9 
           3640      1.07159e+9 
           3650      1.05578e+9 
           3670      1.04413e+9 
           3690      1.02737e+9 
           3710      9.88949e+8 
           3730      9.55085e+8 
           3750      9.47202e+8 
           3770      9.19658e+8 
           3790      9.59494e+8 
           3810       9.9938e+8 
           3830      8.67724e+8 
           3850       1.0246e+9 
           3870      1.04226e+9 
           3890      8.11885e+8 
           3910      1.04435e+9 
           3930      1.02148e+9 
           3950      1.00435e+9 
           3970      7.55304e+8 
           3990      9.60512e+8 
           4010      9.77288e+8 
           4030      9.03845e+8 
           4050      9.50798e+8 
           4070      8.98561e+8 
           4090      8.12797e+8 
           4110      7.11883e+8 
           4130       8.5398e+8 
           4150      8.56399e+8 
           4170      8.57845e+8 
           4190      8.48645e+8 
           4210      8.43385e+8 
           4230      8.23617e+8 
           4250      7.97676e+8 
           4270      7.71377e+8 
           4290      7.65696e+8 
           4310      7.38954e+8 
           4330      6.54282e+8 
           4350      5.95162e+8 
           4370      7.00022e+8 
           4390       6.8881e+8 
           4410      6.96892e+8 
           4430      6.91631e+8 
           4450      6.81185e+8 
           4470      6.33473e+8 
           4490       6.5548e+8 
           4510      6.57143e+8 
           4530      6.44524e+8 
           4550      6.35613e+8 
           4570      6.24777e+8 
           4590      6.14355e+8 
           4610      5.99747e+8 
           4630      5.90711e+8 
           4650      5.74246e+8 
           4670      5.74174e+8 
           4690      5.69956e+8 
           4710      5.41928e+8 
           4730      5.48216e+8 
           4750      5.39735e+8 
           4770       5.4007e+8 
           4790      5.29182e+8 
           4810      5.14744e+8 
           4830      5.01285e+8 
           4850      4.52059e+8 
           4870      4.00923e+8 
           4890      4.79874e+8 
           4910      4.79364e+8 
           4930      4.58572e+8 
           4950      4.67035e+8 
           4970      4.64977e+8 
           4990      4.57021e+8 
           5010      4.35218e+8 
           5030      4.42291e+8 
           5050      4.28868e+8 
           5070      4.31896e+8 
           5090      4.24088e+8 
           5110      4.17009e+8 
           5130      4.07838e+8 
           5150      4.02972e+8 
           5170      4.00917e+8 
           5190      3.95553e+8 
           5210      3.86665e+8 
           5230      3.85105e+8 
           5250      3.79948e+8 
           5270      3.73597e+8 
           5290      3.69808e+8 
           5310      3.64382e+8 
           5330      3.58643e+8 
           5350      3.52623e+8 
           5370       3.5008e+8 
           5390      3.45049e+8 
           5410       3.4034e+8 
           5430      3.34835e+8 
           5450       3.3034e+8 
           5470      3.25574e+8 
           5490      3.22469e+8 
           5510      3.18581e+8 
           5530       3.1378e+8 
           5550      3.10324e+8 
           5570      3.05938e+8 
           5590      3.02523e+8 
           5610      2.97844e+8 
           5630      2.94817e+8 
           5650      2.87977e+8 
           5670      2.83523e+8 
           5690      2.80498e+8 
           5710       2.7856e+8 
           5730      2.75781e+8 
           5750      2.71382e+8 
           5770      2.69278e+8 
           5790      2.65757e+8 
           5810       2.6219e+8 
           5830      2.58587e+8 
           5850      2.55633e+8 
           5870      2.42502e+8 
           5890      2.46135e+8 
           5910      2.45346e+8 
           5930       2.4244e+8 
           5950      2.38632e+8 
           5970      2.37511e+8 
           5990      2.33502e+8 
           6010      2.31669e+8 
           6030      2.28477e+8 
           6050       2.2594e+8 
           6070       2.2337e+8 
           6090      2.20523e+8 
           6110      2.18033e+8 
           6130       2.1559e+8 
           6150      2.11182e+8 
           6170      2.09795e+8 
           6190      2.07861e+8 
           6210      2.05489e+8 
           6230      2.03124e+8 
           6250      1.99926e+8 
           6270      1.98001e+8 
           6290      1.95887e+8 
           6310      1.93246e+8 
           6330      1.91454e+8 
           6350      1.87877e+8 
           6370      1.86448e+8 
           6390      1.84637e+8 
           6410      1.82478e+8 
           6430      1.80789e+8 
           6450      1.78492e+8 
           6470      1.75707e+8 
           6490         1.74e+8 
           6510      1.71759e+8 
           6530      1.68394e+8 
           6550      1.57901e+8 
           6570       1.3795e+8 
           6590      1.60171e+8 
           6610      1.61963e+8 
           6630      1.60884e+8 
           6650      1.59262e+8 
           6670      1.55421e+8 
           6690      1.53912e+8 
           6710      1.54309e+8 
           6730      1.52296e+8 
           6750      1.51089e+8 
           6770      1.49458e+8 
           6790      1.46429e+8 
           6810       1.4592e+8 
           6830      1.44227e+8 
           6850      1.43024e+8 
           6870      1.41458e+8 
           6890      1.39797e+8 
           6910      1.38176e+8 
           6930      1.36862e+8 
           6950      1.35561e+8 
           6970       1.3414e+8 
           6990      1.32665e+8 
           7010      1.31196e+8 
           7030      1.29825e+8 
           7050      1.28453e+8 
           7070      1.24622e+8 
           7090      1.25741e+8 
           7110      1.23976e+8 
           7130      1.22726e+8 
           7150      1.21731e+8 
           7170      1.20642e+8 
           7190      1.19477e+8 
           7210      1.18257e+8 
           7230      1.15103e+8 
           7250      1.15565e+8 
           7270      1.14645e+8 
           7290      1.12415e+8 
           7310      1.12301e+8 
           7330      1.11163e+8 
           7350      1.10071e+8 
           7370      1.08975e+8 
           7390      1.07875e+8 
           7410      1.06793e+8 
           7430      1.05523e+8 
           7450      1.04604e+8 
           7470      1.02998e+8 
           7490      1.02449e+8 
           7510      1.01503e+8 
           7530       1.0044e+8 
           7550      9.95712e+7 
           7570      9.86118e+7 
           7590      9.75958e+7 
           7610      9.65566e+7 
           7630       9.5721e+7 
           7650      9.47963e+7 
           7670      9.38863e+7 
           7690      9.29718e+7 
           7710      9.20718e+7 
           7730      9.11357e+7 
           7750      9.03147e+7 
           7770      8.85836e+7 
           7790       8.8595e+7 
           7810      8.77033e+7 
           7830      8.69178e+7 
           7850      8.58458e+7 
           7870      8.50329e+7 
           7890      8.39246e+7 
           7910      8.36332e+7 
           7930      8.28824e+7 
           7950      8.17566e+7 
           7970      8.11985e+7 
           7990      8.00549e+7 
           8010      7.96967e+7 
           8030       7.8938e+7 
           8050        7.818e+7 
           8070      7.74806e+7 
           8090      7.67123e+7 
           8110        7.567e+7 
           8130      7.53665e+7 
           8150      7.46851e+7 
           8170      7.40603e+7 
           8190      7.30756e+7 
           8210      7.23902e+7 
           8230      7.15605e+7 
           8250        7.138e+7 
           8270      7.00878e+7 
           8290      7.00624e+7 
           8310      6.94747e+7 
           8330      6.88808e+7 
           8350      6.79299e+7 
           8370      6.74605e+7 
           8390      6.70589e+7 
           8410      6.64421e+7 
           8430      6.58303e+7 
           8450      6.44586e+7 
           8470      6.47059e+7 
           8490      6.39049e+7 
           8510      6.34696e+7 
           8530      6.28151e+7 
           8550      6.21093e+7 
           8570      6.20095e+7 
