# Kurucz ODFNEW /NOVER (2003)
# teff = 21000 K (value for the effective temperature for the model. Temperatures are given in K)
# logg = 4.5 log(cm/s2) (value for Log(G) for the model.)
# meta = -1.5  (value for the Metallicity for the model.)
# lh = 1.25  (l/Hp where l is the  mixing length of the convective element and Hp is the pressure scale height)
# vtur = 2 km/s (Microturbulence velocity)
# alpha = 0.4  (Alpha)
#
# column 1: WAVELENGTH (ANGSTROM), Wavelength in Angstrom
# column 2: FLUX (ERG/CM2/S/A), Flux in erg/cm2/s/A
          147.2     5.28134e-19 
            151     3.13994e-18 
          155.2     2.04075e-17 
          158.8     9.40231e-17 
            162     3.46225e-16 
            166     1.64987e-15 
          170.3     8.16898e-15 
          173.4     2.46855e-14 
          176.8     7.95358e-14 
          180.2     2.45584e-13 
          181.7     3.98605e-13 
          186.1     1.58151e-12 
            191     6.82617e-12 
          193.9     1.56685e-11 
          198.4     5.43112e-11 
          201.8      1.3413e-10 
            205     3.05902e-10 
          210.5      1.19004e-9 
          216.2      4.52914e-9 
          219.8      1.01699e-8 
            223      2.04164e-8 
          226.8      4.55409e-8 
            230      1.81727e-7 
            234      4.39662e-7 
            240      1.33595e-6 
          246.5      4.15999e-6 
          252.4      1.11187e-5 
          256.8       2.2156e-5 
            260      3.67439e-5 
            264      6.70152e-5 
          268.5     0.000128713 
          273.5     0.000258953 
          278.5     0.000508638 
            284      0.00103837 
            290      0.00218969 
            296      0.00446962 
            301      0.00793119 
            308       0.0169843 
            318       0.0483634 
            328        0.127739 
            338         0.31799 
            348        0.748892 
            357         1.55017 
            366         3.09273 
            375         5.94462 
            385          11.836 
            395         22.6861 
            405         42.0265 
            414          71.244 
            422         111.504 
            430         171.252 
            441         301.316 
            451         490.227 
            460         744.593 
            470          1160.8 
            480         1772.79 
            490         2656.88 
            500         3909.85 
            506         31337.7 
            512         94011.3 
            520          120957 
            530          174524 
            540          199760 
            550          289664 
            560          360812 
            570          454360 
            580          478325 
            590          649022 
            600          824703 
            610      1.00427e+6 
            620      1.18987e+6 
            630      1.42358e+6 
            640      1.64902e+6 
            650      1.95195e+6 
            658      2.23368e+6 
            665      2.46428e+6 
            675      2.81225e+6 
            685      3.23519e+6 
            695      3.78098e+6 
            705      4.28927e+6 
            716      4.93362e+6 
            726      5.55821e+6 
            735      6.22718e+6 
            745      7.02518e+6 
            755      7.87793e+6 
            765      8.75028e+6 
            775      9.77787e+6 
            785      1.08392e+7 
            795      1.19219e+7 
            805      1.31455e+7 
            815      1.43954e+7 
            825      1.58076e+7 
            835      1.70117e+7 
            845      1.87039e+7 
            855      2.02432e+7 
            865      2.20618e+7 
            875      2.38509e+7 
            885      2.58599e+7 
            895        2.784e+7 
            905      2.94443e+7 
            915      4.59423e+7 
            925      1.90063e+8 
            935      6.01879e+8 
            945      3.03172e+9 
            955      6.88338e+9 
            965      9.80271e+9 
            975      2.68729e+9 
            985      1.4705e+10 
            995     1.52191e+10 
           1005     1.57797e+10 
           1015     1.21445e+10 
           1025      1.69496e+9 
           1035      9.59597e+9 
           1045     1.60162e+10 
           1055     1.59946e+10 
           1065     1.43717e+10 
           1075     1.53981e+10 
           1085      1.4272e+10 
           1095     1.51314e+10 
           1105     1.39529e+10 
           1115     1.38007e+10 
           1125     1.29701e+10 
           1135     1.36178e+10 
           1145     1.25468e+10 
           1155      1.3006e+10 
           1165     1.29219e+10 
           1175     1.11101e+10 
           1185     1.23043e+10 
           1195     1.04823e+10 
           1205      6.96133e+9 
           1215      1.33913e+9 
           1225      6.68065e+9 
           1235      1.0249e+10 
           1245     1.07143e+10 
           1255     1.04356e+10 
           1265     1.02331e+10 
           1275      1.0413e+10 
           1285      1.0215e+10 
           1295      8.84481e+9 
           1305      8.62793e+9 
           1315       9.6218e+9 
           1325      9.25523e+9 
           1335      8.85266e+9 
           1345      8.93309e+9 
           1355      8.88216e+9 
           1365      8.54019e+9 
           1375      8.43137e+9 
           1385      8.36445e+9 
           1395      7.79777e+9 
           1405      7.84099e+9 
           1415      7.84815e+9 
           1425      7.73152e+9 
           1435      7.64079e+9 
           1442      7.63255e+9 
           1447      7.54139e+9 
           1455      7.40121e+9 
           1465      7.22469e+9 
           1475      7.09953e+9 
           1485       6.9195e+9 
           1495      6.82033e+9 
           1505       6.5625e+9 
           1512      6.43036e+9 
           1517      6.46433e+9 
           1525      6.35732e+9 
           1535      6.08114e+9 
           1545      6.11836e+9 
           1555      5.89954e+9 
           1565      5.90037e+9 
           1575      5.89949e+9 
           1585      5.79574e+9 
           1595      5.74507e+9 
           1605      5.56504e+9 
           1615      5.47713e+9 
           1625      5.42547e+9 
           1635      5.38538e+9 
           1645      5.27667e+9 
           1655      5.16509e+9 
           1665      5.17159e+9 
           1672      5.01383e+9 
           1677      5.08123e+9 
           1685       5.0193e+9 
           1695      4.90203e+9 
           1705      4.78094e+9 
           1715       4.6508e+9 
           1725      4.58855e+9 
           1735      4.56697e+9 
           1745      4.48187e+9 
           1755      4.46311e+9 
           1765      4.25244e+9 
           1775      4.27282e+9 
           1785       4.2181e+9 
           1795       4.2069e+9 
           1805      4.14469e+9 
           1815      4.03979e+9 
           1825      4.01871e+9 
           1835      3.94594e+9 
           1845      3.78564e+9 
           1855      3.69698e+9 
           1865      3.68235e+9 
           1875      3.70522e+9 
           1885      3.54197e+9 
           1895      3.42264e+9 
           1905      3.49892e+9 
           1915      3.38337e+9 
           1925      3.32239e+9 
           1935      3.33291e+9 
           1945      3.33358e+9 
           1955      3.19104e+9 
           1967      3.23401e+9 
           1976      3.24611e+9 
           1984      3.14275e+9 
           1995      3.05404e+9 
           2005      3.07595e+9 
           2015      3.05514e+9 
           2025        3.047e+9 
           2035      2.96491e+9 
           2045      2.92815e+9 
           2055      2.83362e+9 
           2065      2.83707e+9 
           2074      2.84867e+9 
           2078      2.79026e+9 
           2085      2.78897e+9 
           2095      2.71838e+9 
           2105      2.72186e+9 
           2115      2.69618e+9 
           2125      2.68421e+9 
           2135      2.64111e+9 
           2145      2.59279e+9 
           2155      2.57739e+9 
           2165      2.54125e+9 
           2175      2.50679e+9 
           2185      2.47908e+9 
           2195        2.456e+9 
           2205      2.41983e+9 
           2215      2.38743e+9 
           2225      2.35034e+9 
           2235      2.32951e+9 
           2245      2.30439e+9 
           2255      2.26948e+9 
           2265      2.25036e+9 
           2275       2.2208e+9 
           2285      2.19953e+9 
           2295      2.15358e+9 
           2305      2.14216e+9 
           2315      2.11133e+9 
           2325         2.09e+9 
           2335      2.04919e+9 
           2345      2.01312e+9 
           2355      2.01168e+9 
           2365      1.97544e+9 
           2375      1.96018e+9 
           2385      1.92523e+9 
           2395       1.9109e+9 
           2405      1.88794e+9 
           2415      1.86336e+9 
           2425      1.85705e+9 
           2435      1.82862e+9 
           2445      1.80953e+9 
           2455      1.79519e+9 
           2465      1.76894e+9 
           2475      1.75172e+9 
           2485      1.73277e+9 
           2495      1.69174e+9 
           2505      1.69356e+9 
           2513      1.66293e+9 
           2518      1.66715e+9 
           2525      1.65024e+9 
           2535      1.62663e+9 
           2545      1.60602e+9 
           2555        1.603e+9 
           2565      1.57924e+9 
           2575      1.57047e+9 
           2585      1.55281e+9 
           2595        1.535e+9 
           2605      1.52518e+9 
           2615      1.51094e+9 
           2625      1.49672e+9 
           2635      1.47806e+9 
           2645      1.47099e+9 
           2655      1.45315e+9 
           2665      1.43096e+9 
           2675      1.41771e+9 
           2685      1.41202e+9 
           2695      1.38476e+9 
           2705      1.38175e+9 
           2715      1.36592e+9 
           2725      1.33942e+9 
           2735      1.33866e+9 
           2745      1.31077e+9 
           2755      1.30038e+9 
           2765      1.28405e+9 
           2775      1.28528e+9 
           2785      1.27077e+9 
           2795      1.22847e+9 
           2805      1.23509e+9 
           2815      1.23399e+9 
           2825      1.20752e+9 
           2835      1.19419e+9 
           2845      1.19521e+9 
           2855      1.18417e+9 
           2865       1.1733e+9 
           2875        1.161e+9 
           2885      1.14989e+9 
           2895      1.13864e+9 
           2910      1.12159e+9 
           2930       1.0972e+9 
           2950      1.06973e+9 
           2970       1.0576e+9 
           2990      1.03637e+9 
           3010      1.01732e+9 
           3030      9.98399e+8 
           3050      9.79517e+8 
           3070       9.6108e+8 
           3090      9.42484e+8 
           3110      9.25416e+8 
           3130      9.09397e+8 
           3150      8.92571e+8 
           3170      8.76095e+8 
           3190      8.52742e+8 
           3210      8.44233e+8 
           3230      8.28935e+8 
           3250      8.14128e+8 
           3270        8.005e+8 
           3290      7.85368e+8 
           3310       7.7257e+8 
           3330      7.59003e+8 
           3350      7.44563e+8 
           3370      7.32799e+8 
           3390      7.20212e+8 
           3410      7.07868e+8 
           3430      6.93521e+8 
           3450      6.79743e+8 
           3470      6.69896e+8 
           3490      6.58591e+8 
           3510       6.4863e+8 
           3530      6.38912e+8 
           3550      6.28386e+8 
           3570       6.2098e+8 
           3590      6.07241e+8 
           3610      5.98883e+8 
           3630       5.8767e+8 
           3640      5.86436e+8 
           3650      5.78731e+8 
           3670      5.71909e+8 
           3690      5.61161e+8 
           3710      5.42017e+8 
           3730      5.18186e+8 
           3750      5.44044e+8 
           3770      5.47273e+8 
           3790       5.9213e+8 
           3810      6.28492e+8 
           3830      5.35037e+8 
           3850      6.59699e+8 
           3870      6.81071e+8 
           3890      5.00958e+8 
           3910      6.73811e+8 
           3930      6.72605e+8 
           3950       6.5439e+8 
           3970      4.68208e+8 
           3990      6.24676e+8 
           4010      6.32869e+8 
           4030      5.88422e+8 
           4050      6.21876e+8 
           4070      6.06023e+8 
           4090      5.33314e+8 
           4110      4.52421e+8 
           4130      5.64954e+8 
           4150      5.65646e+8 
           4170       5.6292e+8 
           4190      5.56422e+8 
           4210      5.47704e+8 
           4230      5.38747e+8 
           4250      5.29809e+8 
           4270      5.18928e+8 
           4290      5.10764e+8 
           4310      4.97233e+8 
           4330      4.28412e+8 
           4350      3.85659e+8 
           4370      4.71501e+8 
           4390      4.54352e+8 
           4410      4.65079e+8 
           4430      4.56397e+8 
           4450      4.51581e+8 
           4470       4.1872e+8 
           4490      4.35797e+8 
           4510      4.31662e+8 
           4530      4.24922e+8 
           4550      4.18374e+8 
           4570       4.1205e+8 
           4590      4.05964e+8 
           4610      3.99896e+8 
           4630      3.93866e+8 
           4650      3.87558e+8 
           4670      3.82224e+8 
           4690      3.76728e+8 
           4710      3.65316e+8 
           4730      3.65264e+8 
           4750      3.59657e+8 
           4770       3.5514e+8 
           4790      3.49406e+8 
           4810       3.4307e+8 
           4830      3.34486e+8 
           4850      2.95858e+8 
           4870      2.59726e+8 
           4890      3.17915e+8 
           4910      3.18347e+8 
           4930      3.05864e+8 
           4950      3.11762e+8 
           4970      3.07626e+8 
           4990      3.03289e+8 
           5010      2.94493e+8 
           5030      2.94836e+8 
           5050      2.88074e+8 
           5070      2.86861e+8 
           5090      2.82909e+8 
           5110      2.78997e+8 
           5130      2.75194e+8 
           5150      2.71441e+8 
           5170      2.67823e+8 
           5190       2.6421e+8 
           5210      2.60326e+8 
           5230      2.57182e+8 
           5250      2.53736e+8 
           5270      2.50349e+8 
           5290       2.4706e+8 
           5310      2.43799e+8 
           5330      2.40541e+8 
           5350      2.37298e+8 
           5370      2.34318e+8 
           5390       2.3126e+8 
           5410      2.28241e+8 
           5430       2.2517e+8 
           5450      2.22328e+8 
           5470      2.19471e+8 
           5490      2.16725e+8 
           5510      2.13926e+8 
           5530      2.11211e+8 
           5550      2.08542e+8 
           5570      2.05893e+8 
           5590      2.03314e+8 
           5610      2.00705e+8 
           5630      1.98248e+8 
           5650      1.95572e+8 
           5670      1.93211e+8 
           5690      1.90878e+8 
           5710      1.88572e+8 
           5730      1.86248e+8 
           5750      1.83941e+8 
           5770      1.81717e+8 
           5790      1.79498e+8 
           5810      1.77304e+8 
           5830      1.75148e+8 
           5850      1.73027e+8 
           5870      1.65061e+8 
           5890      1.68437e+8 
           5910      1.66868e+8 
           5930      1.64887e+8 
           5950      1.62865e+8 
           5970      1.60983e+8 
           5990      1.59049e+8 
           6010       1.5721e+8 
           6030      1.55361e+8 
           6050      1.53532e+8 
           6070      1.51745e+8 
           6090      1.49968e+8 
           6110      1.48231e+8 
           6130      1.46514e+8 
           6150      1.44785e+8 
           6170      1.43155e+8 
           6190      1.41514e+8 
           6210      1.39891e+8 
           6230      1.38295e+8 
           6250      1.36708e+8 
           6270      1.35176e+8 
           6290      1.33641e+8 
           6310      1.32114e+8 
           6330      1.30651e+8 
           6350      1.28988e+8 
           6370      1.27641e+8 
           6390      1.26308e+8 
           6410      1.24898e+8 
           6430       1.2353e+8 
           6450      1.22158e+8 
           6470      1.20801e+8 
           6490      1.19414e+8 
           6510      1.17748e+8 
           6530      1.15649e+8 
           6550      1.07946e+8 
           6570      9.44422e+7 
           6590      1.10586e+8 
           6610      1.11289e+8 
           6630      1.10456e+8 
           6650      1.09562e+8 
           6670      1.07153e+8 
           6690      1.06042e+8 
           6710      1.06089e+8 
           6730      1.04968e+8 
           6750      1.03851e+8 
           6770      1.02754e+8 
           6790      1.01651e+8 
           6810        1.006e+8 
           6830      9.95429e+7 
           6850      9.85048e+7 
           6870      9.74772e+7 
           6890      9.64677e+7 
           6910      9.54682e+7 
           6930      9.44708e+7 
           6950      9.35067e+7 
           6970      9.25444e+7 
           6990      9.15915e+7 
           7010      9.06556e+7 
           7030      8.97289e+7 
           7050      8.88112e+7 
           7070      8.65081e+7 
           7090       8.7025e+7 
           7110      8.61411e+7 
           7130      8.52732e+7 
           7150      8.44136e+7 
           7170      8.35623e+7 
           7190      8.27337e+7 
           7210       8.1913e+7 
           7230      8.09704e+7 
           7250      8.02877e+7 
           7270      7.94973e+7 
           7290      7.81047e+7 
           7310      7.79247e+7 
           7330      7.71705e+7 
           7350      7.64163e+7 
           7370      7.56692e+7 
           7390      7.49291e+7 
           7410      7.42027e+7 
           7430      7.34762e+7 
           7450      7.27768e+7 
           7470      7.20703e+7 
           7490      7.13837e+7 
           7510      7.06767e+7 
           7530      7.00161e+7 
           7550      6.93482e+7 
           7570      6.86864e+7 
           7590      6.80372e+7 
           7610      6.73873e+7 
           7630      6.67498e+7 
           7650      6.61244e+7 
           7670      6.54982e+7 
           7690       6.4884e+7 
           7710      6.42753e+7 
           7730      6.36721e+7 
           7750      6.30804e+7 
           7770      6.24067e+7 
           7790      6.19134e+7 
           7810       6.1312e+7 
           7830      6.07737e+7 
           7850      6.02468e+7 
           7870      5.96946e+7 
           7890      5.91103e+7 
           7910      5.86233e+7 
           7930      5.80878e+7 
           7950      5.75396e+7 
           7970      5.69926e+7 
           7990      5.64786e+7 
           8010      5.59844e+7 
           8030      5.54541e+7 
           8050      5.49521e+7 
           8070      5.44701e+7 
           8090      5.39064e+7 
           8110      5.34684e+7 
           8130      5.30187e+7 
           8150      5.24917e+7 
           8170      5.20922e+7 
           8190      5.15691e+7 
           8210      5.10152e+7 
           8230      5.06741e+7 
           8250      5.02616e+7 
           8270      4.96348e+7 
           8290      4.93715e+7 
           8310       4.8964e+7 
           8330      4.85228e+7 
           8350      4.79124e+7 
           8370      4.76262e+7 
           8390      4.72806e+7 
           8410      4.68589e+7 
           8430       4.6411e+7 
           8450      4.57378e+7 
           8470      4.55451e+7 
           8490      4.51019e+7 
           8510      4.46217e+7 
           8530      4.43454e+7 
           8550      4.33863e+7 
           8570      4.40155e+7 
