# Kurucz ODFNEW /NOVER (2003)
# teff = 7750 K (value for the effective temperature for the model. Temperatures are given in K)
# logg = 3.5 log(cm/s2) (value for Log(G) for the model.)
# meta = -4  (value for the Metallicity for the model.)
# lh = 1.25  (l/Hp where l is the  mixing length of the convective element and Hp is the pressure scale height)
# vtur = 2 km/s (Microturbulence velocity)
# alpha = 0.4  (Alpha)
#
# column 1: WAVELENGTH (ANGSTROM), Wavelength in Angstrom
# column 2: FLUX (ERG/CM2/S/A), Flux in erg/cm2/s/A
          147.2     1.73866e-35 
            151     1.65225e-35 
          155.2     1.56403e-35 
          158.8     1.49392e-35 
            162     1.43549e-35 
            166     1.36714e-35 
          170.3     1.29897e-35 
          173.4     1.25294e-35 
          176.8     1.20522e-35 
          180.2     1.16017e-35 
          181.7     1.14109e-35 
          186.1     1.08777e-35 
            191     1.03267e-35 
          193.9     1.00201e-35 
          198.4     9.57076e-36 
          201.8     9.25097e-36 
            205     8.96441e-36 
          210.5     8.50208e-36 
          216.2     8.05969e-36 
          219.8     7.79784e-36 
            223     7.57565e-36 
          226.8     7.32392e-36 
            230     7.12154e-36 
            234     6.88015e-36 
            240     6.54044e-36 
          246.5     6.20006e-36 
          252.4     5.91358e-36 
          256.8     5.71267e-36 
            260     5.57292e-36 
            264     5.40532e-36 
          268.5     5.22566e-36 
          273.5     5.03634e-36 
          278.5     4.85712e-36 
            284     4.67082e-36 
            290     4.47954e-36 
            296     5.26379e-23 
            301     2.23287e-22 
            308     1.38577e-21 
            318      1.5991e-20 
            328     1.58026e-19 
            338     1.35781e-18 
            348     1.02687e-17 
            357     5.73892e-17 
            366     2.93833e-16 
            375     1.38701e-15 
            385     7.12209e-15 
            395     3.35549e-14 
            405     1.45993e-13 
            414     5.14729e-13 
            422     1.50521e-12 
            430     4.22186e-12 
            441     1.63559e-11 
            451     5.27641e-11 
            460     1.44651e-10 
            470     4.23015e-10 
            480      1.18035e-9 
            490      3.15176e-9 
            500      8.07512e-9 
            506      1.39411e-8 
            512      2.37367e-8 
            520      4.72946e-8 
            530      1.08557e-7 
            540      2.41205e-7 
            550      5.19725e-7 
            560      1.08781e-6 
            570      2.21516e-6 
            580      4.39488e-6 
            590      8.50677e-6 
            600      1.60853e-5 
            610      2.97445e-5 
            620      5.38525e-5 
            630      9.55539e-5 
            640     0.000166346 
            650     0.000284326 
            658     0.000431134 
            665     0.000615137 
            675      0.00100817 
            685      0.00162679 
            695      0.00258659 
            705       0.0040546 
            716      0.00654487 
            726      0.00997796 
            735       0.0144297 
            745       0.0214964 
            755       0.0316584 
            765       0.0461158 
            775       0.0664675 
            785       0.0948449 
            795        0.134014 
            805        0.187596 
            815        0.260247 
            825        0.357907 
            835        0.488126 
            845        0.660361 
            855        0.886495 
            865         1.18121 
            875         1.56252 
            885         2.05261 
            895         2.67832 
            905         3.47215 
            915         6.61957 
            925         20.9714 
            935          34.776 
            945         60.6758 
            955         88.7479 
            965         110.718 
            975         87.1694 
            985         209.199 
            995         270.158 
           1005         277.751 
           1015         241.508 
           1025         204.285 
           1035         376.474 
           1045         604.892 
           1055         797.071 
           1065         1115.02 
           1075          1405.4 
           1085         1975.55 
           1095         2147.09 
           1105         2164.65 
           1115         2111.27 
           1125         2221.93 
           1135         2347.92 
           1145         2425.07 
           1155         2444.15 
           1165         2406.78 
           1175         2266.99 
           1185         3758.64 
           1195         2751.29 
           1205         2159.33 
           1215         1491.53 
           1225         2580.53 
           1235         4238.26 
           1245         1542.06 
           1255         4401.09 
           1265         6634.92 
           1275         8301.31 
           1285         10529.2 
           1295         13222.6 
           1305         18034.7 
           1315           24481 
           1325         35728.3 
           1335         53538.7 
           1345         83387.5 
           1355          125452 
           1365          167334 
           1375          172806 
           1385          160645 
           1395          172980 
           1405          319567 
           1415          637565 
           1425          722987 
           1435          879153 
           1442       1.0388e+6 
           1447          879727 
           1455      1.05666e+6 
           1465          969687 
           1475      1.07717e+6 
           1485      1.18582e+6 
           1495       1.3138e+6 
           1505      1.43074e+6 
           1512      1.53497e+6 
           1517      1.27442e+6 
           1525      1.32738e+6 
           1535      1.28632e+6 
           1545      1.02107e+6 
           1555          907335 
           1565          659424 
           1575          548216 
           1585          487485 
           1595          438062 
           1605          467734 
           1615          840693 
           1625      1.89333e+6 
           1635      3.55573e+6 
           1645      6.48105e+6 
           1655      7.91964e+6 
           1665      1.15005e+7 
           1672      1.26064e+7 
           1677      1.35108e+7 
           1685      1.44656e+7 
           1695      1.53536e+7 
           1705      1.59853e+7 
           1715      1.68164e+7 
           1725      1.71284e+7 
           1735      1.76649e+7 
           1745      1.76511e+7 
           1755      1.80046e+7 
           1765      1.81398e+7 
           1775      1.83521e+7 
           1785       1.8458e+7 
           1795      1.88316e+7 
           1805       1.8664e+7 
           1815      1.88569e+7 
           1825      1.89019e+7 
           1835      1.92391e+7 
           1845      1.90101e+7 
           1855      1.93848e+7 
           1865       1.9679e+7 
           1875      1.97836e+7 
           1885      1.98976e+7 
           1895      2.00134e+7 
           1905      1.99731e+7 
           1915      2.01954e+7 
           1925      2.03227e+7 
           1935       2.0082e+7 
           1945      2.04984e+7 
           1955      2.05721e+7 
           1967      2.06675e+7 
           1976      2.06331e+7 
           1984      2.06125e+7 
           1995       2.0826e+7 
           2005      2.08193e+7 
           2015       2.0822e+7 
           2025      2.07712e+7 
           2035      2.10169e+7 
           2045      2.10533e+7 
           2055      2.08694e+7 
           2065      2.09549e+7 
           2074      2.12096e+7 
           2078      2.12249e+7 
           2085      2.12299e+7 
           2095      2.12689e+7 
           2105      2.12994e+7 
           2115      2.13309e+7 
           2125      2.12307e+7 
           2135      2.13447e+7 
           2145      2.14246e+7 
           2155      2.14241e+7 
           2165      2.12339e+7 
           2175      2.13433e+7 
           2185      2.14593e+7 
           2195      2.15379e+7 
           2205      2.13871e+7 
           2215      2.10609e+7 
           2225      2.13392e+7 
           2235      2.15854e+7 
           2245      2.15475e+7 
           2255      2.13686e+7 
           2265      2.12553e+7 
           2275      2.14546e+7 
           2285      2.15111e+7 
           2295      2.14378e+7 
           2305       2.1545e+7 
           2315       2.1509e+7 
           2325      2.14707e+7 
           2335      2.12741e+7 
           2345      2.07622e+7 
           2355      2.13402e+7 
           2365      2.08025e+7 
           2375      2.12368e+7 
           2385      2.05776e+7 
           2395      2.11417e+7 
           2405      2.11753e+7 
           2415      2.11611e+7 
           2425      2.15783e+7 
           2435      2.14561e+7 
           2445      2.14769e+7 
           2455      2.15554e+7 
           2465      2.14417e+7 
           2475      2.14047e+7 
           2485      2.13096e+7 
           2495       2.1216e+7 
           2505      2.14534e+7 
           2513      2.11637e+7 
           2518      2.11225e+7 
           2525      2.10782e+7 
           2535      2.10911e+7 
           2545      2.12938e+7 
           2555       2.1472e+7 
           2565      2.12196e+7 
           2575       2.1313e+7 
           2585      2.12838e+7 
           2595      2.12336e+7 
           2605      2.11631e+7 
           2615      2.10957e+7 
           2625      2.10955e+7 
           2635      2.11701e+7 
           2645      2.15504e+7 
           2655        2.153e+7 
           2665       2.1435e+7 
           2675      2.14441e+7 
           2685      2.14973e+7 
           2695      2.14584e+7 
           2705      2.14602e+7 
           2715      2.12906e+7 
           2725      2.12493e+7 
           2735      2.12841e+7 
           2745      2.07798e+7 
           2755       2.0928e+7 
           2765      2.12071e+7 
           2775      2.13764e+7 
           2785      2.13315e+7 
           2795      2.05262e+7 
           2805      2.09556e+7 
           2815      2.13675e+7 
           2825      2.13487e+7 
           2835      2.12757e+7 
           2845       2.1287e+7 
           2855      2.10498e+7 
           2865      2.12207e+7 
           2875      2.12488e+7 
           2885      2.11783e+7 
           2895      2.12579e+7 
           2910      2.12506e+7 
           2930      2.11489e+7 
           2950      2.11085e+7 
           2970       2.1137e+7 
           2990      2.10937e+7 
           3010       2.1097e+7 
           3030      2.10689e+7 
           3050       2.1041e+7 
           3070      2.09796e+7 
           3090      2.09744e+7 
           3110      2.09466e+7 
           3130      2.09097e+7 
           3150      2.08675e+7 
           3170       2.0842e+7 
           3190      2.07636e+7 
           3210      2.07667e+7 
           3230      2.06739e+7 
           3250      2.06895e+7 
           3270      2.06743e+7 
           3290      2.06423e+7 
           3310      2.06051e+7 
           3330      2.05499e+7 
           3350      2.04859e+7 
           3370      2.04558e+7 
           3390      2.04206e+7 
           3410      2.04018e+7 
           3430      2.03589e+7 
           3450      2.03128e+7 
           3470      2.02702e+7 
           3490      2.02282e+7 
           3510      2.01854e+7 
           3530      2.01412e+7 
           3550      2.00954e+7 
           3570      2.00444e+7 
           3590       1.9998e+7 
           3610      1.99504e+7 
           3630      1.99019e+7 
           3640      1.98771e+7 
           3650      1.99558e+7 
           3670      1.98214e+7 
           3690      1.91349e+7 
           3710      2.12523e+7 
           3730      2.31658e+7 
           3750      2.99696e+7 
           3770      3.16616e+7 
           3790      3.72609e+7 
           3810      4.30085e+7 
           3830      3.52719e+7 
           3850      4.71849e+7 
           3870      5.22223e+7 
           3890      3.14088e+7 
           3910      5.20686e+7 
           3930      5.51036e+7 
           3950      5.17123e+7 
           3970      3.05645e+7 
           3990      4.96347e+7 
           4010      5.45739e+7 
           4030      5.48431e+7 
           4050      5.41765e+7 
           4070      5.22307e+7 
           4090      4.17985e+7 
           4110      3.27752e+7 
           4130      4.97899e+7 
           4150      5.16298e+7 
           4170      5.16514e+7 
           4190      5.13183e+7 
           4210      5.08828e+7 
           4230      5.03902e+7 
           4250      4.98712e+7 
           4270      4.92584e+7 
           4290      4.83949e+7 
           4310      4.63831e+7 
           4330      3.60858e+7 
           4350      3.10502e+7 
           4370      4.45757e+7 
           4390      4.60901e+7 
           4410      4.61166e+7 
           4430       4.5847e+7 
           4450      4.54853e+7 
           4470      4.51659e+7 
           4490      4.47495e+7 
           4510      4.43368e+7 
           4530      4.39241e+7 
           4550      4.35134e+7 
           4570      4.31117e+7 
           4590      4.27118e+7 
           4610      4.23189e+7 
           4630      4.19295e+7 
           4650      4.15435e+7 
           4670      4.11625e+7 
           4690      4.07848e+7 
           4710      4.04035e+7 
           4730      4.00036e+7 
           4750      3.95722e+7 
           4770      3.91517e+7 
           4790      3.86645e+7 
           4810       3.7974e+7 
           4830      3.64329e+7 
           4850      2.96627e+7 
           4870      2.44954e+7 
           4890      3.47519e+7 
           4910      3.61601e+7 
           4930       3.6261e+7 
           4950      3.60901e+7 
           4970      3.58353e+7 
           4990      3.55864e+7 
           5010      3.52984e+7 
           5030      3.49899e+7 
           5050      3.46808e+7 
           5070      3.43755e+7 
           5090      3.40724e+7 
           5110      3.37731e+7 
           5130      3.34759e+7 
           5150      3.31823e+7 
           5170      3.28796e+7 
           5190      3.26001e+7 
           5210      3.23225e+7 
           5230        3.204e+7 
           5250      3.17635e+7 
           5270      3.14876e+7 
           5290      3.12163e+7 
           5310      3.09469e+7 
           5330      3.06806e+7 
           5350      3.04174e+7 
           5370      3.01573e+7 
           5390      2.98989e+7 
           5410      2.96448e+7 
           5430      2.93923e+7 
           5450      2.91427e+7 
           5470       2.8896e+7 
           5490      2.86521e+7 
           5510       2.8411e+7 
           5530      2.81713e+7 
           5550      2.79356e+7 
           5570      2.77014e+7 
           5590      2.74686e+7 
           5610      2.72395e+7 
           5630      2.70119e+7 
           5650      2.67868e+7 
           5670      2.65641e+7 
           5690       2.6344e+7 
           5710      2.61251e+7 
           5730      2.59086e+7 
           5750      2.56957e+7 
           5770      2.54839e+7 
           5790      2.52744e+7 
           5810      2.50672e+7 
           5830      2.48612e+7 
           5850      2.46585e+7 
           5870      2.44557e+7 
           5890      2.42563e+7 
           5910      2.40611e+7 
           5930      2.38669e+7 
           5950      2.36738e+7 
           5970      2.34826e+7 
           5990      2.32935e+7 
           6010      2.31064e+7 
           6030      2.29213e+7 
           6050      2.27381e+7 
           6070      2.25568e+7 
           6090      2.23774e+7 
           6110      2.21999e+7 
           6130      2.20241e+7 
           6150      2.18493e+7 
           6170      2.16762e+7 
           6190      2.15049e+7 
           6210      2.13353e+7 
           6230      2.11675e+7 
           6250      2.10004e+7 
           6270       2.0836e+7 
           6290      2.06732e+7 
           6310      2.05121e+7 
           6330      2.03517e+7 
           6350      2.01928e+7 
           6370      2.00365e+7 
           6390      1.98818e+7 
           6410      1.97276e+7 
           6430       1.9575e+7 
           6450      1.93796e+7 
           6470      1.92059e+7 
           6490      1.90073e+7 
           6510      1.87378e+7 
           6530      1.82044e+7 
           6550      1.61747e+7 
           6570      1.32294e+7 
           6590      1.73305e+7 
           6610      1.79294e+7 
           6630      1.79825e+7 
           6650      1.79154e+7 
           6670      1.78106e+7 
           6690      1.77135e+7 
           6710      1.75897e+7 
           6730      1.74579e+7 
           6750      1.73273e+7 
           6770      1.71971e+7 
           6790       1.7069e+7 
           6810      1.69421e+7 
           6830      1.68155e+7 
           6850       1.6691e+7 
           6870      1.65668e+7 
           6890      1.64438e+7 
           6910      1.63227e+7 
           6930      1.62019e+7 
           6950      1.60831e+7 
           6970      1.59646e+7 
           6990      1.58479e+7 
           7010      1.57315e+7 
           7030       1.5617e+7 
           7050      1.55027e+7 
           7070      1.53895e+7 
           7090      1.52781e+7 
           7110      1.51669e+7 
           7130      1.50568e+7 
           7150      1.49483e+7 
           7170      1.48401e+7 
           7190      1.47336e+7 
           7210      1.46274e+7 
           7230      1.45221e+7 
           7250      1.44184e+7 
           7270      1.43149e+7 
           7290      1.42124e+7 
           7310      1.41108e+7 
           7330      1.40107e+7 
           7350      1.39109e+7 
           7370      1.38119e+7 
           7390      1.37138e+7 
           7410      1.36172e+7 
           7430      1.35208e+7 
           7450      1.34252e+7 
           7470      1.33311e+7 
           7490      1.32372e+7 
           7510      1.31441e+7 
           7530      1.30518e+7 
           7550      1.29609e+7 
           7570      1.28702e+7 
           7590      1.27808e+7 
           7610      1.26916e+7 
           7630      1.26038e+7 
           7650      1.25161e+7 
           7670      1.24292e+7 
           7690      1.23436e+7 
           7710      1.22581e+7 
           7730      1.21739e+7 
           7750      1.20905e+7 
           7770      1.20058e+7 
           7790       1.1925e+7 
           7810       1.1843e+7 
           7830      1.17623e+7 
           7850      1.16823e+7 
           7870      1.16023e+7 
           7890      1.15236e+7 
           7910      1.14455e+7 
           7930      1.13675e+7 
           7950      1.12907e+7 
           7970      1.12145e+7 
           7990       1.1139e+7 
           8010      1.10635e+7 
           8030      1.09892e+7 
           8050      1.09154e+7 
           8070      1.08423e+7 
           8090      1.07698e+7 
           8110      1.06978e+7 
           8130      1.06259e+7 
           8150      1.05551e+7 
           8170      1.04848e+7 
           8190      1.04151e+7 
           8210      1.03594e+7 
           8230      1.02952e+7 
           8250      1.02321e+7 
           8270        1.017e+7 
           8290      1.01067e+7 
           8310      1.00429e+7 
           8330      9.97515e+6 
           8350      9.90743e+6 
           8370      9.82465e+6 
           8390      9.75004e+6 
           8410      9.66484e+6 
           8430      9.62009e+6 
           8450      9.57091e+6 
           8470      9.32412e+6 
           8490      9.53582e+6 
           8510      9.08633e+6 
           8530      9.50044e+6 
           8550      8.69592e+6 
           8570      9.51455e+6 
