# Kurucz ODFNEW /NOVER (2003)
# teff = 26000 K (value for the effective temperature for the model. Temperatures are given in K)
# logg = 3 log(cm/s2) (value for Log(G) for the model.)
# meta = -0.5  (value for the Metallicity for the model.)
# lh = 1.25  (l/Hp where l is the  mixing length of the convective element and Hp is the pressure scale height)
# vtur = 2 km/s (Microturbulence velocity)
# alpha = 0  (Alpha)
#
# column 1: WAVELENGTH (ANGSTROM), Wavelength in Angstrom
# column 2: FLUX (ERG/CM2/S/A), Flux in erg/cm2/s/A
          147.2     3.22903e-12 
            151     1.29593e-11 
          155.2     5.58329e-11 
          158.8     1.84141e-10 
            162     5.09943e-10 
            166      1.72711e-9 
          170.3      6.02061e-9 
          173.4      1.42735e-8 
          176.8      3.55442e-8 
          180.2      8.55529e-8 
          181.7      1.24744e-7 
          186.1      3.64501e-7 
            191      1.13573e-6 
          193.9      2.16595e-6 
          198.4       5.6812e-6 
          201.8      1.14388e-5 
            205      2.16347e-5 
          210.5      6.18408e-5 
          216.2     0.000173396 
          219.8     0.000323439 
            223      0.00055328 
          226.8      0.00102806 
            230        0.481708 
            234          1.1366 
            240         2.26463 
          246.5         4.84968 
          252.4         9.37067 
          256.8         13.2037 
            260         23.7546 
            264         36.7303 
          268.5         58.3079 
          273.5         91.6714 
          278.5         138.088 
            284         281.996 
            290         456.376 
            296         705.422 
            301         960.109 
            308         1818.36 
            318         4406.05 
            328          7820.4 
            338         14894.2 
            348         26104.8 
            357         80158.7 
            366          151889 
            375          211796 
            385          335111 
            395          574589 
            405          797902 
            414      1.11916e+6 
            422      1.38611e+6 
            430      1.81258e+6 
            441      2.50274e+6 
            451      3.20811e+6 
            460      3.93447e+6 
            470      5.15142e+6 
            480      6.53521e+6 
            490      8.22638e+6 
            500      1.03643e+7 
            506      5.56451e+7 
            512      3.52738e+8 
            520      3.44936e+8 
            530      3.33102e+8 
            540      3.18863e+8 
            550      4.21364e+8 
            560      5.04416e+8 
            570       5.4522e+8 
            580      4.94105e+8 
            590      5.77096e+8 
            600        5.436e+8 
            610       6.4943e+8 
            620      7.43639e+8 
            630      7.56572e+8 
            640      7.36306e+8 
            650      6.59049e+8 
            658      7.50528e+8 
            665      8.53088e+8 
            675      8.93154e+8 
            685      8.07211e+8 
            695      1.04067e+9 
            705      9.33818e+8 
            716      1.14395e+9 
            726      1.13774e+9 
            735       1.1664e+9 
            745       1.2386e+9 
            755      1.26615e+9 
            765       1.3277e+9 
            775      1.39885e+9 
            785      1.47757e+9 
            795      1.50555e+9 
            805      1.50715e+9 
            815       1.5144e+9 
            825      1.62531e+9 
            835      1.38918e+9 
            845       1.6279e+9 
            855      1.64874e+9 
            865      1.72297e+9 
            875      1.79142e+9 
            885      1.88003e+9 
            895      1.93443e+9 
            905      1.92411e+9 
            915       3.9433e+9 
            925     1.88113e+10 
            935     2.57855e+10 
            945     2.89685e+10 
            955     2.95043e+10 
            965     3.05275e+10 
            975     1.24948e+10 
            985     2.47827e+10 
            995     2.48666e+10 
           1005      2.7041e+10 
           1015     2.76543e+10 
           1025     2.47074e+10 
           1035      2.5557e+10 
           1045     3.03346e+10 
           1055     2.89043e+10 
           1065     2.55328e+10 
           1075     2.71962e+10 
           1085      2.5526e+10 
           1095     2.72886e+10 
           1105     2.61749e+10 
           1115     2.57824e+10 
           1125     2.18327e+10 
           1135     2.54862e+10 
           1145     2.41016e+10 
           1155      2.4189e+10 
           1165     2.38499e+10 
           1175     1.61552e+10 
           1185     2.22388e+10 
           1195     2.18573e+10 
           1205     1.97432e+10 
           1215      1.8204e+10 
           1225     2.09766e+10 
           1235     2.18886e+10 
           1245      2.0974e+10 
           1255      2.1129e+10 
           1265     2.13199e+10 
           1275     2.14783e+10 
           1285      2.1289e+10 
           1295     1.91639e+10 
           1305      1.9637e+10 
           1315     2.06081e+10 
           1325     1.98591e+10 
           1335     1.92807e+10 
           1345     1.93704e+10 
           1355     1.91859e+10 
           1365      1.8576e+10 
           1375     1.81948e+10 
           1385     1.77975e+10 
           1395     1.37479e+10 
           1405     1.45963e+10 
           1415     1.67622e+10 
           1425     1.58161e+10 
           1435     1.63121e+10 
           1442     1.64453e+10 
           1447     1.62435e+10 
           1455     1.57655e+10 
           1465     1.53198e+10 
           1475     1.53492e+10 
           1485      1.5231e+10 
           1495     1.48477e+10 
           1505     1.43754e+10 
           1512     1.37682e+10 
           1517     1.39546e+10 
           1525     1.37302e+10 
           1535     1.22766e+10 
           1545      1.1535e+10 
           1555     1.12726e+10 
           1565     1.21185e+10 
           1575     1.26387e+10 
           1585     1.26079e+10 
           1595     1.24835e+10 
           1605     1.18664e+10 
           1615     1.15449e+10 
           1625      1.1635e+10 
           1635      1.1873e+10 
           1645     1.17116e+10 
           1655      1.1732e+10 
           1665     1.15823e+10 
           1672      1.1092e+10 
           1677     1.21193e+10 
           1685     1.16517e+10 
           1695     1.12509e+10 
           1705     1.10576e+10 
           1715     1.06327e+10 
           1725     1.04399e+10 
           1735     1.06717e+10 
           1745     1.04924e+10 
           1755     1.04221e+10 
           1765     1.03004e+10 
           1775      9.97812e+9 
           1785     1.00362e+10 
           1795       9.9511e+9 
           1805      9.98221e+9 
           1815      9.51331e+9 
           1825      9.55005e+9 
           1835      9.46202e+9 
           1845      8.82142e+9 
           1855      8.89539e+9 
           1865      8.96294e+9 
           1875      8.95106e+9 
           1885      8.33831e+9 
           1895      7.96046e+9 
           1905      8.31654e+9 
           1915      8.04982e+9 
           1925      7.69751e+9 
           1935      8.04325e+9 
           1945      8.15166e+9 
           1955      7.48861e+9 
           1967      7.83577e+9 
           1976      8.07485e+9 
           1984      7.65881e+9 
           1995       7.4768e+9 
           2005      7.58918e+9 
           2015      7.60515e+9 
           2025      7.66289e+9 
           2035      7.25181e+9 
           2045      7.21556e+9 
           2055      6.59759e+9 
           2065      6.52828e+9 
           2074      6.88907e+9 
           2078      6.64551e+9 
           2085      6.90834e+9 
           2095      6.67517e+9 
           2105      6.79121e+9 
           2115      6.79999e+9 
           2125      6.79779e+9 
           2135      6.70253e+9 
           2145      6.49894e+9 
           2155      6.56401e+9 
           2165      6.46654e+9 
           2175      6.40164e+9 
           2185      6.31312e+9 
           2195      6.30311e+9 
           2205      6.22205e+9 
           2215      6.13697e+9 
           2225      6.04327e+9 
           2235      5.94369e+9 
           2245      5.91746e+9 
           2255      5.81331e+9 
           2265      5.77693e+9 
           2275      5.71664e+9 
           2285      5.64016e+9 
           2295      5.23428e+9 
           2305      5.47719e+9 
           2315      5.40242e+9 
           2325      5.34483e+9 
           2335      5.25859e+9 
           2345      5.24377e+9 
           2355      5.17658e+9 
           2365      5.11679e+9 
           2375      5.03973e+9 
           2385      4.95332e+9 
           2395      4.90403e+9 
           2405      4.86327e+9 
           2415      4.79724e+9 
           2425      4.75673e+9 
           2435      4.67536e+9 
           2445      4.63612e+9 
           2455      4.59274e+9 
           2465      4.53503e+9 
           2475      4.46962e+9 
           2485       4.3865e+9 
           2495       3.5827e+9 
           2505      4.24151e+9 
           2513      4.15853e+9 
           2518      4.20519e+9 
           2525      4.22067e+9 
           2535      4.18023e+9 
           2545      4.08532e+9 
           2555      4.05894e+9 
           2565      4.02839e+9 
           2575      3.98557e+9 
           2585      3.93985e+9 
           2595      3.89455e+9 
           2605      3.86238e+9 
           2615      3.80915e+9 
           2625       3.7704e+9 
           2635      3.72854e+9 
           2645      3.68166e+9 
           2655      3.64308e+9 
           2665      3.58078e+9 
           2675      3.53958e+9 
           2685      3.52382e+9 
           2695      3.44885e+9 
           2705      3.42309e+9 
           2715      3.38959e+9 
           2725      3.35132e+9 
           2735      3.30797e+9 
           2745      3.28726e+9 
           2755      3.25421e+9 
           2765      3.20366e+9 
           2775       3.1902e+9 
           2785      3.14742e+9 
           2795      3.07092e+9 
           2805      3.06855e+9 
           2815      3.05197e+9 
           2825      3.00784e+9 
           2835      2.95596e+9 
           2845      2.95355e+9 
           2855       2.9139e+9 
           2865      2.88506e+9 
           2875      2.85559e+9 
           2885      2.82732e+9 
           2895       2.7946e+9 
           2910      2.74411e+9 
           2930       2.6937e+9 
           2950      2.62336e+9 
           2970      2.57837e+9 
           2990      2.52086e+9 
           3010      2.45761e+9 
           3030      2.41535e+9 
           3050       2.3715e+9 
           3070      2.32759e+9 
           3090      2.25929e+9 
           3110      2.23188e+9 
           3130      2.18368e+9 
           3150      2.14036e+9 
           3170      2.09661e+9 
           3190      2.04967e+9 
           3210      2.01324e+9 
           3230      1.97383e+9 
           3250      1.94002e+9 
           3270      1.89814e+9 
           3290      1.86191e+9 
           3310      1.82765e+9 
           3330      1.78912e+9 
           3350      1.75422e+9 
           3370      1.72192e+9 
           3390      1.69324e+9 
           3410      1.66157e+9 
           3430      1.62724e+9 
           3450      1.59266e+9 
           3470      1.56506e+9 
           3490      1.53604e+9 
           3510        1.511e+9 
           3530      1.48528e+9 
           3550      1.45727e+9 
           3570      1.43359e+9 
           3590      1.40065e+9 
           3610       1.3763e+9 
           3630      1.35131e+9 
           3640       1.3435e+9 
           3650      1.30821e+9 
           3670      1.28932e+9 
           3690      1.25596e+9 
           3710      1.23208e+9 
           3730      1.21268e+9 
           3750       1.2526e+9 
           3770      1.23357e+9 
           3790      1.23063e+9 
           3810      1.24598e+9 
           3830      1.16384e+9 
           3850      1.22106e+9 
           3870      1.19248e+9 
           3890      1.11472e+9 
           3910      1.16377e+9 
           3930      1.13412e+9 
           3950      1.12105e+9 
           3970      1.03423e+9 
           3990      1.08676e+9 
           4010       1.0665e+9 
           4030      1.03908e+9 
           4050      1.03511e+9 
           4070      1.00759e+9 
           4090      9.82873e+8 
           4110      9.26318e+8 
           4130      9.60349e+8 
           4150      9.47374e+8 
           4170      9.36922e+8 
           4190      9.21475e+8 
           4210      9.07916e+8 
           4230      8.94382e+8 
           4250      8.76807e+8 
           4270      8.58902e+8 
           4290      8.48619e+8 
           4310      8.33177e+8 
           4330      8.10649e+8 
           4350      7.63951e+8 
           4370      7.95462e+8 
           4390      7.81115e+8 
           4410      7.71121e+8 
           4430      7.62447e+8 
           4450      7.50662e+8 
           4470      7.30083e+8 
           4490      7.28134e+8 
           4510      7.17264e+8 
           4530      7.07053e+8 
           4550      6.94864e+8 
           4570       6.8479e+8 
           4590      6.74151e+8 
           4610      6.64325e+8 
           4630      6.53871e+8 
           4650      6.33013e+8 
           4670       6.3377e+8 
           4690      6.23444e+8 
           4710      6.10943e+8 
           4730       6.0897e+8 
           4750      5.99277e+8 
           4770       5.9269e+8 
           4790      5.84007e+8 
           4810      5.75122e+8 
           4830      5.66009e+8 
           4850      5.54384e+8 
           4870      5.18563e+8 
           4890      5.43067e+8 
           4910      5.35276e+8 
           4930       5.2268e+8 
           4950      5.19126e+8 
           4970      5.13492e+8 
           4990      5.06238e+8 
           5010      4.93994e+8 
           5030      4.91979e+8 
           5050      4.83791e+8 
           5070      4.78751e+8 
           5090      4.72059e+8 
           5110      4.65543e+8 
           5130      4.58799e+8 
           5150      4.52587e+8 
           5170      4.46639e+8 
           5190      4.40798e+8 
           5210      4.34908e+8 
           5230      4.29027e+8 
           5250      4.23099e+8 
           5270       4.1737e+8 
           5290      4.12053e+8 
           5310      4.06537e+8 
           5330       4.0125e+8 
           5350      3.95939e+8 
           5370      3.90762e+8 
           5390      3.85481e+8 
           5410       3.7992e+8 
           5430      3.75657e+8 
           5450      3.70737e+8 
           5470      3.65928e+8 
           5490      3.61204e+8 
           5510      3.56614e+8 
           5530      3.51982e+8 
           5550      3.47578e+8 
           5570      3.43071e+8 
           5590      3.38619e+8 
           5610      3.34485e+8 
           5630      3.30271e+8 
           5650      3.26025e+8 
           5670      3.21561e+8 
           5690      3.16267e+8 
           5710      3.12126e+8 
           5730      3.08333e+8 
           5750      3.04152e+8 
           5770      3.00916e+8 
           5790      2.97234e+8 
           5810      2.93662e+8 
           5830      2.90032e+8 
           5850      2.86864e+8 
           5870      2.78746e+8 
           5890      2.79853e+8 
           5910      2.77132e+8 
           5930      2.73776e+8 
           5950      2.70534e+8 
           5970      2.67604e+8 
           5990      2.64172e+8 
           6010      2.61155e+8 
           6030      2.57923e+8 
           6050      2.54944e+8 
           6070      2.52009e+8 
           6090      2.49046e+8 
           6110      2.46097e+8 
           6130       2.4323e+8 
           6150      2.40206e+8 
           6170      2.37425e+8 
           6190      2.34782e+8 
           6210       2.3209e+8 
           6230      2.29379e+8 
           6250      2.26718e+8 
           6270      2.24133e+8 
           6290      2.21586e+8 
           6310      2.18954e+8 
           6330      2.16548e+8 
           6350      2.14027e+8 
           6370      2.11646e+8 
           6390      2.09234e+8 
           6410       2.0683e+8 
           6430      2.04562e+8 
           6450      2.02244e+8 
           6470      1.99835e+8 
           6490       1.9763e+8 
           6510      1.95538e+8 
           6530      1.93238e+8 
           6550      1.90233e+8 
           6570       1.7636e+8 
           6590      1.86421e+8 
           6610      1.84915e+8 
           6630      1.82944e+8 
           6650      1.80917e+8 
           6670      1.77954e+8 
           6690      1.76016e+8 
           6710      1.75085e+8 
           6730      1.73065e+8 
           6750      1.71355e+8 
           6770      1.69546e+8 
           6790      1.67503e+8 
           6810      1.65911e+8 
           6830      1.64117e+8 
           6850      1.62406e+8 
           6870      1.60671e+8 
           6890      1.58843e+8 
           6910      1.57183e+8 
           6930       1.5565e+8 
           6950      1.54014e+8 
           6970      1.52403e+8 
           6990      1.50799e+8 
           7010       1.4922e+8 
           7030      1.47625e+8 
           7050      1.46129e+8 
           7070      1.42967e+8 
           7090      1.43136e+8 
           7110      1.41527e+8 
           7130      1.40134e+8 
           7150      1.38776e+8 
           7170      1.37292e+8 
           7190      1.35953e+8 
           7210       1.3457e+8 
           7230      1.32493e+8 
           7250      1.31734e+8 
           7270      1.30526e+8 
           7290      1.28464e+8 
           7310      1.27896e+8 
           7330      1.26617e+8 
           7350      1.25357e+8 
           7370      1.24116e+8 
           7390      1.22879e+8 
           7410      1.21654e+8 
           7430      1.20454e+8 
           7450      1.19265e+8 
           7470      1.17966e+8 
           7490      1.16893e+8 
           7510      1.15757e+8 
           7530      1.14638e+8 
           7550      1.13536e+8 
           7570      1.12424e+8 
           7590      1.11277e+8 
           7610      1.10198e+8 
           7630      1.09181e+8 
           7650      1.08128e+8 
           7670      1.07091e+8 
           7690      1.06044e+8 
           7710      1.05038e+8 
           7730       1.0401e+8 
           7750      1.03047e+8 
           7770      1.02062e+8 
           7790      1.01104e+8 
           7810      1.00105e+8 
           7830      9.92013e+7 
           7850      9.83174e+7 
           7870        9.735e+7 
           7890      9.63971e+7 
           7910      9.55671e+7 
           7930      9.46363e+7 
           7950      9.37852e+7 
           7970      9.28525e+7 
           7990      9.20283e+7 
           8010      9.11113e+7 
           8030      9.02899e+7 
           8050      8.94814e+7 
           8070       8.8674e+7 
           8090      8.77641e+7 
           8110      8.68277e+7 
           8130      8.62871e+7 
           8150       8.5382e+7 
           8170      8.47274e+7 
           8190      8.38367e+7 
           8210      8.27972e+7 
           8230       8.2106e+7 
           8250       8.1487e+7 
           8270      8.04048e+7 
           8290       7.9957e+7 
           8310      7.92726e+7 
           8330      7.85395e+7 
           8350      7.76234e+7 
           8370      7.69947e+7 
           8390      7.63873e+7 
           8410      7.56675e+7 
           8430      7.49802e+7 
           8450      7.41086e+7 
           8470      7.33337e+7 
           8490      7.32708e+7 
           8510      7.17304e+7 
           8530      7.22073e+7 
           8550      6.98446e+7 
           8570        7.154e+7 
           8590      6.91497e+7 
