# Kurucz ODFNEW /NOVER (2003)
# teff = 23000 K (value for the effective temperature for the model. Temperatures are given in K)
# logg = 3 log(cm/s2) (value for Log(G) for the model.)
# meta = 0.5  (value for the Metallicity for the model.)
# lh = 1.25  (l/Hp where l is the  mixing length of the convective element and Hp is the pressure scale height)
# vtur = 2 km/s (Microturbulence velocity)
# alpha = 0  (Alpha)
#
# column 1: WAVELENGTH (ANGSTROM), Wavelength in Angstrom
# column 2: FLUX (ERG/CM2/S/A), Flux in erg/cm2/s/A
          147.2     6.96541e-17 
            151     3.44131e-16 
          155.2     1.84525e-15 
          158.8     7.28168e-15 
            162     2.35219e-14 
            166     9.59159e-14 
          170.3      4.0415e-13 
          173.4     1.09924e-12 
          176.8     3.15598e-12 
          180.2      8.7241e-12 
          181.7     1.34968e-11 
          186.1     4.68296e-11 
            191      1.7572e-10 
          193.9     3.72769e-10 
          198.4      1.14849e-9 
          201.8      2.60332e-9 
            205      5.49007e-9 
          210.5      1.88372e-8 
          216.2      6.33975e-8 
          219.8      1.32228e-7 
            223      2.49299e-7 
          226.8      5.19405e-7 
            230      1.64743e-5 
            234      3.98519e-5 
            240     0.000103568 
          246.5     0.000280329 
          252.4     0.000667821 
          256.8      0.00119338 
            260      0.00207859 
            264      0.00352314 
          268.5      0.00629065 
          273.5       0.0116465 
          278.5       0.0210624 
            284       0.0431336 
            290       0.0824818 
            296        0.154792 
            301        0.253421 
            308        0.531235 
            318         1.39919 
            328         3.21178 
            338         7.49772 
            348         16.0806 
            357         125.544 
            366         299.711 
            375         463.568 
            385         819.896 
            395         1895.68 
            405         2991.33 
            414         4696.48 
            422         7707.46 
            430         11838.6 
            441           18677 
            451         25335.6 
            460         34343.6 
            470         51623.4 
            480         73499.8 
            490          102906 
            500          135992 
            506          641130 
            512      1.12224e+7 
            520      1.23603e+7 
            530      1.33663e+7 
            540      1.38677e+7 
            550      2.56687e+7 
            560      3.22454e+7 
            570      3.84719e+7 
            580       3.4479e+7 
            590      4.85376e+7 
            600      5.26364e+7 
            610      6.69831e+7 
            620      7.60839e+7 
            630      7.99428e+7 
            640      6.81056e+7 
            650      4.50987e+7 
            658      7.74413e+7 
            665      9.95184e+7 
            675      1.02388e+8 
            685      9.14957e+7 
            695      1.48305e+8 
            705      1.38223e+8 
            716      1.67489e+8 
            726      1.62299e+8 
            735      1.77129e+8 
            745      2.07674e+8 
            755      2.20489e+8 
            765      2.34409e+8 
            775      2.55238e+8 
            785      2.75884e+8 
            795      2.81678e+8 
            805      2.87158e+8 
            815      2.90488e+8 
            825      3.28323e+8 
            835      2.29666e+8 
            845      3.21465e+8 
            855      3.18637e+8 
            865      3.43843e+8 
            875      3.71098e+8 
            885      4.06833e+8 
            895      4.26072e+8 
            905      4.03465e+8 
            915      8.36996e+8 
            925      7.04872e+9 
            935     1.11102e+10 
            945     1.32974e+10 
            955      1.4267e+10 
            965     1.15039e+10 
            975      1.84179e+9 
            985      5.92182e+9 
            995      9.68284e+9 
           1005     1.39319e+10 
           1015     1.48589e+10 
           1025      1.2751e+10 
           1035     1.13498e+10 
           1045     1.86418e+10 
           1055     1.67835e+10 
           1065     1.26428e+10 
           1075     1.53948e+10 
           1085     1.35488e+10 
           1095     1.58927e+10 
           1105     1.39964e+10 
           1115     1.27938e+10 
           1125      8.85696e+9 
           1135     1.44571e+10 
           1145     1.36488e+10 
           1155     1.37588e+10 
           1165     1.30521e+10 
           1175      5.64975e+9 
           1185     1.20652e+10 
           1195     1.16388e+10 
           1205      6.06441e+9 
           1215      9.22974e+9 
           1225     1.19379e+10 
           1235      1.3645e+10 
           1245     1.26664e+10 
           1255     1.28005e+10 
           1265     1.32894e+10 
           1275     1.39417e+10 
           1285     1.39102e+10 
           1295      8.39912e+9 
           1305      9.91405e+9 
           1315     1.37653e+10 
           1325     1.27658e+10 
           1335     1.21506e+10 
           1345     1.27855e+10 
           1355     1.24225e+10 
           1365     1.11952e+10 
           1375     1.06521e+10 
           1385      9.64043e+9 
           1395      5.11637e+9 
           1405      6.33523e+9 
           1415      8.64273e+9 
           1425      8.79439e+9 
           1435      9.40806e+9 
           1442      9.66661e+9 
           1447      9.48225e+9 
           1455       9.0487e+9 
           1465      8.06987e+9 
           1475      8.66419e+9 
           1485      8.63963e+9 
           1495      8.39651e+9 
           1505      7.45351e+9 
           1512      6.51177e+9 
           1517      6.84379e+9 
           1525      7.11139e+9 
           1535      5.69421e+9 
           1545      5.27258e+9 
           1555      5.25873e+9 
           1565       5.9882e+9 
           1575      6.56574e+9 
           1585      6.79222e+9 
           1595      6.57508e+9 
           1605      6.81938e+9 
           1615      6.67742e+9 
           1625      6.55183e+9 
           1635      7.20362e+9 
           1645      7.30286e+9 
           1655      7.15367e+9 
           1665      7.37253e+9 
           1672      6.81448e+9 
           1677      7.96411e+9 
           1685      7.60339e+9 
           1695        7.023e+9 
           1705      7.02458e+9 
           1715       6.4034e+9 
           1725      6.41673e+9 
           1735      6.80302e+9 
           1745      6.62061e+9 
           1755      6.69227e+9 
           1765      6.75875e+9 
           1775      6.10456e+9 
           1785      6.37392e+9 
           1795      6.63294e+9 
           1805      6.78478e+9 
           1815      5.75428e+9 
           1825      6.14169e+9 
           1835      5.99941e+9 
           1845      5.36083e+9 
           1855       5.4996e+9 
           1865      5.58256e+9 
           1875      5.98213e+9 
           1885      5.17135e+9 
           1895       4.7725e+9 
           1905      5.42501e+9 
           1915      4.89728e+9 
           1925       4.6059e+9 
           1935      5.10164e+9 
           1945       5.1958e+9 
           1955      4.53965e+9 
           1967      5.17215e+9 
           1976      5.37561e+9 
           1984      5.01737e+9 
           1995       4.9019e+9 
           2005       5.3067e+9 
           2015      5.20813e+9 
           2025      5.37594e+9 
           2035      4.78232e+9 
           2045      4.99564e+9 
           2055      4.67648e+9 
           2065      4.58342e+9 
           2074      5.07202e+9 
           2078       4.3385e+9 
           2085      4.84428e+9 
           2095      4.53068e+9 
           2105      4.72971e+9 
           2115      4.82885e+9 
           2125      4.83999e+9 
           2135      4.79707e+9 
           2145      4.46628e+9 
           2155      4.74917e+9 
           2165      4.78722e+9 
           2175      4.75556e+9 
           2185      4.49766e+9 
           2195      4.65584e+9 
           2205        4.696e+9 
           2215      4.59096e+9 
           2225      4.46029e+9 
           2235      4.37793e+9 
           2245      4.45944e+9 
           2255      4.28936e+9 
           2265       4.3897e+9 
           2275      4.32018e+9 
           2285      4.34284e+9 
           2295      3.60956e+9 
           2305      4.15592e+9 
           2315      4.01472e+9 
           2325      3.99196e+9 
           2335      3.84128e+9 
           2345      3.91676e+9 
           2355       3.8998e+9 
           2365      3.88252e+9 
           2375      3.78932e+9 
           2385      3.75847e+9 
           2395      3.71349e+9 
           2405        3.649e+9 
           2415      3.63841e+9 
           2425      3.62993e+9 
           2435      3.51395e+9 
           2445      3.55806e+9 
           2455       3.5737e+9 
           2465      3.48121e+9 
           2475      3.40086e+9 
           2485      3.22517e+9 
           2495      2.28548e+9 
           2505      3.02829e+9 
           2513        3.048e+9 
           2518      3.21327e+9 
           2525      3.19518e+9 
           2535      3.17788e+9 
           2545      3.02168e+9 
           2555      3.11055e+9 
           2565      3.06109e+9 
           2575      3.09707e+9 
           2585      3.02913e+9 
           2595      3.01047e+9 
           2605      2.99673e+9 
           2615      2.92873e+9 
           2625      2.92559e+9 
           2635      2.91119e+9 
           2645      2.87247e+9 
           2655      2.87434e+9 
           2665      2.69993e+9 
           2675      2.74254e+9 
           2685      2.74133e+9 
           2695      2.62548e+9 
           2705      2.52589e+9 
           2715       2.5621e+9 
           2725      2.60061e+9 
           2735      2.57261e+9 
           2745      2.51115e+9 
           2755      2.50418e+9 
           2765      2.48708e+9 
           2775      2.51659e+9 
           2785      2.46664e+9 
           2795      2.36868e+9 
           2805      2.40315e+9 
           2815      2.41126e+9 
           2825      2.39795e+9 
           2835       2.2808e+9 
           2845      2.30975e+9 
           2855      2.25519e+9 
           2865      2.27665e+9 
           2875      2.25401e+9 
           2885      2.23071e+9 
           2895      2.17829e+9 
           2910       2.1373e+9 
           2930      2.13213e+9 
           2950      2.06345e+9 
           2970      2.03426e+9 
           2990      1.99154e+9 
           3010      1.89194e+9 
           3030      1.90763e+9 
           3050      1.88885e+9 
           3070      1.86864e+9 
           3090       1.7752e+9 
           3110      1.78804e+9 
           3130      1.73823e+9 
           3150      1.71904e+9 
           3170      1.66656e+9 
           3190      1.64614e+9 
           3210      1.62002e+9 
           3230      1.57547e+9 
           3250      1.56195e+9 
           3270       1.5194e+9 
           3290      1.49215e+9 
           3310      1.46454e+9 
           3330      1.43073e+9 
           3350      1.41051e+9 
           3370      1.37972e+9 
           3390      1.36532e+9 
           3410      1.34154e+9 
           3430      1.31551e+9 
           3450      1.28773e+9 
           3470      1.26486e+9 
           3490      1.23865e+9 
           3510      1.21635e+9 
           3530      1.20626e+9 
           3550      1.18252e+9 
           3570      1.16242e+9 
           3590      1.12705e+9 
           3610      1.10622e+9 
           3630      1.09617e+9 
           3640      1.09383e+9 
           3650      1.07376e+9 
           3670       1.0622e+9 
           3690      1.03088e+9 
           3710      1.00844e+9 
           3730       9.9757e+8 
           3750      1.05278e+9 
           3770      1.03573e+9 
           3790      1.04332e+9 
           3810      1.06657e+9 
           3830      9.74588e+8 
           3850      1.04244e+9 
           3870      1.00601e+9 
           3890       9.3512e+8 
           3910      1.00566e+9 
           3930      9.66185e+8 
           3950      9.57246e+8 
           3970      8.65066e+8 
           3990      9.32612e+8 
           4010      9.20756e+8 
           4030      8.88953e+8 
           4050      8.84835e+8 
           4070      8.43501e+8 
           4090      8.14756e+8 
           4110      7.67527e+8 
           4130       8.1027e+8 
           4150      8.04207e+8 
           4170      8.00888e+8 
           4190      7.93174e+8 
           4210      7.86421e+8 
           4230      7.68286e+8 
           4250       7.4595e+8 
           4270      7.27139e+8 
           4290      7.15545e+8 
           4310      6.92026e+8 
           4330      6.67081e+8 
           4350      6.31058e+8 
           4370       6.6106e+8 
           4390      6.68891e+8 
           4410      6.56154e+8 
           4430      6.51222e+8 
           4450      6.40359e+8 
           4470       6.2661e+8 
           4490      6.25338e+8 
           4510      6.17359e+8 
           4530      6.09276e+8 
           4550      6.02167e+8 
           4570      5.91929e+8 
           4590      5.82043e+8 
           4610      5.66616e+8 
           4630       5.5957e+8 
           4650      5.37291e+8 
           4670       5.4353e+8 
           4690      5.41045e+8 
           4710      5.21363e+8 
           4730      5.23042e+8 
           4750      5.14389e+8 
           4770      5.16757e+8 
           4790      5.07082e+8 
           4810      4.96735e+8 
           4830       4.8961e+8 
           4850      4.77973e+8 
           4870      4.40698e+8 
           4890      4.70579e+8 
           4910      4.64347e+8 
           4930      4.52403e+8 
           4950       4.4817e+8 
           4970      4.47285e+8 
           4990      4.39561e+8 
           5010      4.19789e+8 
           5030      4.25823e+8 
           5050      4.17316e+8 
           5070      4.15379e+8 
           5090      4.08631e+8 
           5110      4.01586e+8 
           5130      3.91361e+8 
           5150      3.89108e+8 
           5170      3.86653e+8 
           5190      3.82085e+8 
           5210       3.7602e+8 
           5230       3.7096e+8 
           5250      3.66444e+8 
           5270      3.59951e+8 
           5290      3.56965e+8 
           5310      3.51476e+8 
           5330      3.47636e+8 
           5350      3.42712e+8 
           5370      3.38779e+8 
           5390      3.33754e+8 
           5410      3.30236e+8 
           5430      3.25367e+8 
           5450      3.20929e+8 
           5470      3.16786e+8 
           5490      3.12582e+8 
           5510      3.09796e+8 
           5530      3.04381e+8 
           5550       3.0224e+8 
           5570       2.9773e+8 
           5590       2.9447e+8 
           5610      2.90554e+8 
           5630      2.87281e+8 
           5650       2.8184e+8 
           5670      2.76575e+8 
           5690      2.71585e+8 
           5710      2.71049e+8 
           5730      2.68243e+8 
           5750      2.63611e+8 
           5770      2.62703e+8 
           5790      2.58835e+8 
           5810      2.55873e+8 
           5830      2.51693e+8 
           5850      2.49447e+8 
           5870      2.41725e+8 
           5890      2.40912e+8 
           5910      2.39209e+8 
           5930      2.35616e+8 
           5950      2.32662e+8 
           5970       2.3267e+8 
           5990      2.27591e+8 
           6010      2.26423e+8 
           6030      2.22717e+8 
           6050      2.20392e+8 
           6070      2.18758e+8 
           6090      2.16328e+8 
           6110      2.13703e+8 
           6130      2.11519e+8 
           6150      2.07417e+8 
           6170      2.05381e+8 
           6190      2.03761e+8 
           6210      2.01884e+8 
           6230      1.99765e+8 
           6250      1.96627e+8 
           6270      1.94675e+8 
           6290      1.92801e+8 
           6310      1.90247e+8 
           6330      1.88605e+8 
           6350      1.85681e+8 
           6370      1.84303e+8 
           6390      1.82081e+8 
           6410      1.80131e+8 
           6430      1.78338e+8 
           6450      1.76246e+8 
           6470      1.73403e+8 
           6490      1.71496e+8 
           6510      1.70115e+8 
           6530      1.67926e+8 
           6550      1.65084e+8 
           6570      1.49994e+8 
           6590      1.61186e+8 
           6610      1.60738e+8 
           6630      1.59324e+8 
           6650      1.57413e+8 
           6670      1.54896e+8 
           6690      1.53331e+8 
           6710      1.52661e+8 
           6730      1.50333e+8 
           6750      1.49485e+8 
           6770      1.47929e+8 
           6790      1.44599e+8 
           6810      1.44393e+8 
           6830      1.42829e+8 
           6850      1.41635e+8 
           6870      1.40109e+8 
           6890      1.38353e+8 
           6910      1.36583e+8 
           6930       1.3578e+8 
           6950      1.34407e+8 
           6970      1.33032e+8 
           6990       1.3157e+8 
           7010      1.30191e+8 
           7030      1.28766e+8 
           7050      1.27498e+8 
           7070      1.24358e+8 
           7090      1.24947e+8 
           7110      1.21599e+8 
           7130      1.20614e+8 
           7150      1.21097e+8 
           7170       1.1991e+8 
           7190      1.18748e+8 
           7210      1.17532e+8 
           7230       1.1418e+8 
           7250      1.14777e+8 
           7270      1.13954e+8 
           7290      1.12025e+8 
           7310      1.11666e+8 
           7330      1.10434e+8 
           7350      1.09478e+8 
           7370      1.08434e+8 
           7390      1.07358e+8 
           7410      1.06292e+8 
           7430      1.05195e+8 
           7450      1.04169e+8 
           7470      1.02336e+8 
           7490      1.01999e+8 
           7510      1.01076e+8 
           7530      9.99413e+7 
           7550      9.92011e+7 
           7570      9.82437e+7 
           7590      9.72361e+7 
           7610      9.60947e+7 
           7630      9.53457e+7 
           7650      9.44487e+7 
           7670      9.35854e+7 
           7690      9.26533e+7 
           7710      9.17169e+7 
           7730       9.0789e+7 
           7750      9.00764e+7 
           7770      8.87584e+7 
           7790      8.83963e+7 
           7810      8.75118e+7 
           7830      8.67335e+7 
           7850      8.59008e+7 
           7870       8.4887e+7 
           7890      8.38459e+7 
           7910       8.3278e+7 
           7930      8.24211e+7 
           7950      8.17268e+7 
           7970      8.10265e+7 
           7990      8.02791e+7 
           8010      7.95147e+7 
           8030      7.88153e+7 
           8050      7.82148e+7 
           8070      7.75095e+7 
           8090      7.67353e+7 
           8110      7.55153e+7 
           8130      7.54463e+7 
           8150      7.46795e+7 
           8170      7.41337e+7 
           8190      7.29577e+7 
           8210      7.22952e+7 
           8230      7.13436e+7 
           8250      7.13357e+7 
           8270      6.98344e+7 
           8290      6.99364e+7 
           8310      6.93983e+7 
           8330       6.8832e+7 
           8350      6.79407e+7 
           8370      6.73153e+7 
           8390      6.69091e+7 
           8410      6.61758e+7 
           8430      6.56766e+7 
           8450      6.46485e+7 
           8470      6.41335e+7 
           8490      6.42133e+7 
           8510      6.25801e+7 
           8530       6.3395e+7 
           8550      6.08467e+7 
           8570      6.29277e+7 
           8590      6.04447e+7 
