# Kurucz ODFNEW /NOVER (2003)
# teff = 20000 K (value for the effective temperature for the model. Temperatures are given in K)
# logg = 4.5 log(cm/s2) (value for Log(G) for the model.)
# meta = 0.2  (value for the Metallicity for the model.)
# lh = 1.25  (l/Hp where l is the  mixing length of the convective element and Hp is the pressure scale height)
# vtur = 2 km/s (Microturbulence velocity)
# alpha = 0.4  (Alpha)
#
# column 1: WAVELENGTH (ANGSTROM), Wavelength in Angstrom
# column 2: FLUX (ERG/CM2/S/A), Flux in erg/cm2/s/A
          147.2     2.38561e-19 
            151      1.3812e-18 
          155.2     8.71057e-18 
          158.8     3.90572e-17 
            162     1.40319e-16 
            166     6.48039e-16 
          170.3     3.08818e-15 
          173.4     9.13295e-15 
          176.8     2.86335e-14 
          180.2     8.60704e-14 
          181.7     1.37855e-13 
          186.1      5.2747e-13 
            191     2.19092e-12 
          193.9     4.90867e-12 
          198.4     1.64052e-11 
          201.8     3.94841e-11 
            205     8.80287e-11 
          210.5     3.29337e-10 
          216.2      1.20662e-9 
          219.8      2.64916e-9 
            223      5.21356e-9 
          226.8      1.13799e-8 
            230      5.86708e-8 
            234      1.47325e-7 
            240      4.47667e-7 
          246.5      1.38887e-6 
          252.4      3.70539e-6 
          256.8      7.33793e-6 
            260      1.22766e-5 
            264      2.23824e-5 
          268.5      4.29884e-5 
          273.5      8.62876e-5 
          278.5      0.00017016 
            284     0.000352918 
            290     0.000745127 
            296       0.0015232 
            301      0.00270885 
            308      0.00588104 
            318       0.0169764 
            328       0.0444859 
            338        0.113467 
            348        0.269696 
            357        0.616872 
            366         1.25731 
            375         2.39963 
            385         4.80973 
            395         9.26002 
            405         17.2197 
            414          29.506 
            422         45.9774 
            430         71.0427 
            441         126.057 
            451         207.367 
            460         315.627 
            470         496.536 
            480         762.632 
            490         1154.07 
            500         1715.93 
            506         15196.5 
            512         97559.6 
            520          122973 
            530          172995 
            540          200199 
            550          300836 
            560          371203 
            570          486374 
            580          521396 
            590          731165 
            600          910241 
            610      1.14861e+6 
            620      1.33335e+6 
            630      1.57365e+6 
            640      1.70246e+6 
            650      1.63139e+6 
            658      2.31556e+6 
            665      2.61208e+6 
            675      2.94951e+6 
            685      3.32519e+6 
            695      4.07541e+6 
            705      4.50954e+6 
            716      5.24152e+6 
            726      5.80201e+6 
            735      6.39839e+6 
            745      7.38764e+6 
            755      8.30355e+6 
            765      9.28458e+6 
            775      1.04026e+7 
            785      1.15423e+7 
            795      1.24626e+7 
            805      1.36263e+7 
            815      1.47896e+7 
            825      1.64358e+7 
            835      1.66788e+7 
            845      1.87646e+7 
            855      2.03406e+7 
            865      2.21952e+7 
            875      2.41756e+7 
            885      2.66973e+7 
            895      2.87415e+7 
            905      2.93412e+7 
            915      4.65318e+7 
            925      2.02136e+8 
            935      5.43359e+8 
            945       1.7421e+9 
            955      3.49411e+9 
            965      4.94849e+9 
            975      8.38841e+8 
            985      5.99599e+9 
            995      5.71092e+9 
           1005      7.25578e+9 
           1015       6.5628e+9 
           1025      1.37098e+9 
           1035      4.18571e+9 
           1045      9.60431e+9 
           1055      9.25759e+9 
           1065       6.8585e+9 
           1075      8.82244e+9 
           1085      7.89477e+9 
           1095      9.21067e+9 
           1105      7.44897e+9 
           1115      6.57657e+9 
           1125      6.36373e+9 
           1135      8.83551e+9 
           1145      7.23531e+9 
           1155      8.08428e+9 
           1165      8.47986e+9 
           1175      5.98347e+9 
           1185       8.5271e+9 
           1195      4.88869e+9 
           1205      2.22933e+9 
           1215      1.31353e+9 
           1225       4.0228e+9 
           1235      7.88125e+9 
           1245      8.43885e+9 
           1255      8.16545e+9 
           1265      7.38568e+9 
           1275      7.94929e+9 
           1285      8.47035e+9 
           1295      4.40657e+9 
           1305      3.76768e+9 
           1315      7.81792e+9 
           1325      7.42311e+9 
           1335      6.68029e+9 
           1345      7.46472e+9 
           1355      7.31288e+9 
           1365      6.26027e+9 
           1375      6.37478e+9 
           1385      6.45118e+9 
           1395      5.10301e+9 
           1405      5.50468e+9 
           1415       5.7013e+9 
           1425      5.98055e+9 
           1435      5.99408e+9 
           1442      6.38552e+9 
           1447      6.29523e+9 
           1455      6.12174e+9 
           1465      5.67264e+9 
           1475      5.62265e+9 
           1485      5.47304e+9 
           1495      5.52025e+9 
           1505      4.93801e+9 
           1512      4.50152e+9 
           1517      4.77589e+9 
           1525      4.89584e+9 
           1535      4.29264e+9 
           1545      4.41212e+9 
           1555      4.18994e+9 
           1565      4.29961e+9 
           1575      4.59054e+9 
           1585      4.60552e+9 
           1595      4.65621e+9 
           1605      4.62425e+9 
           1615      4.62826e+9 
           1625      4.41596e+9 
           1635      4.66426e+9 
           1645       4.6435e+9 
           1655      4.34548e+9 
           1665      4.67476e+9 
           1672      4.49299e+9 
           1677      4.62109e+9 
           1685      4.68028e+9 
           1695      4.40598e+9 
           1705      4.17431e+9 
           1715      3.90918e+9 
           1725      3.86969e+9 
           1735      4.07451e+9 
           1745      3.92909e+9 
           1755      4.03525e+9 
           1765      3.77924e+9 
           1775      3.72685e+9 
           1785      3.75154e+9 
           1795      3.96533e+9 
           1805      3.96338e+9 
           1815      3.53694e+9 
           1825      3.70653e+9 
           1835      3.50054e+9 
           1845      3.21756e+9 
           1855      3.12932e+9 
           1865      3.18401e+9 
           1875       3.4684e+9 
           1885      3.10885e+9 
           1895      2.90922e+9 
           1905      3.16143e+9 
           1915      2.95006e+9 
           1925      2.85646e+9 
           1935      2.99494e+9 
           1945      3.00694e+9 
           1955      2.78011e+9 
           1967       3.0421e+9 
           1976      3.16188e+9 
           1984      2.91468e+9 
           1995      2.84694e+9 
           2005      2.94625e+9 
           2015      2.78968e+9 
           2025      3.00511e+9 
           2035      2.74649e+9 
           2045      2.80032e+9 
           2055      2.67233e+9 
           2065      2.72629e+9 
           2074      2.82161e+9 
           2078      2.60905e+9 
           2085      2.73438e+9 
           2095      2.56559e+9 
           2105      2.63063e+9 
           2115       2.6304e+9 
           2125      2.66669e+9 
           2135      2.56722e+9 
           2145      2.49102e+9 
           2155       2.5872e+9 
           2165      2.54254e+9 
           2175      2.50799e+9 
           2185       2.4259e+9 
           2195      2.46765e+9 
           2205      2.41766e+9 
           2215      2.36132e+9 
           2225      2.26717e+9 
           2235      2.31948e+9 
           2245      2.30043e+9 
           2255      2.20036e+9 
           2265      2.25844e+9 
           2275      2.24991e+9 
           2285      2.25552e+9 
           2295      2.14149e+9 
           2305      2.13855e+9 
           2315      2.06816e+9 
           2325      2.03912e+9 
           2335      1.94016e+9 
           2345      1.93016e+9 
           2355      1.94056e+9 
           2365       1.8829e+9 
           2375      1.89299e+9 
           2385      1.84198e+9 
           2395      1.89323e+9 
           2405      1.81323e+9 
           2415      1.82466e+9 
           2425      1.83828e+9 
           2435      1.76114e+9 
           2445      1.79371e+9 
           2455        1.779e+9 
           2465      1.74891e+9 
           2475       1.7123e+9 
           2485      1.74009e+9 
           2495      1.65427e+9 
           2505      1.70737e+9 
           2513      1.61968e+9 
           2518      1.67791e+9 
           2525      1.61673e+9 
           2535      1.60412e+9 
           2545      1.54012e+9 
           2555      1.59065e+9 
           2565      1.56917e+9 
           2575      1.60069e+9 
           2585      1.59431e+9 
           2595      1.58428e+9 
           2605      1.55549e+9 
           2615      1.54229e+9 
           2625      1.52963e+9 
           2635      1.52336e+9 
           2645      1.53707e+9 
           2655      1.52556e+9 
           2665        1.463e+9 
           2675      1.48494e+9 
           2685      1.47155e+9 
           2695      1.43295e+9 
           2705      1.42809e+9 
           2715      1.40644e+9 
           2725      1.38437e+9 
           2735      1.40086e+9 
           2745      1.33332e+9 
           2755      1.33121e+9 
           2765      1.32968e+9 
           2775       1.3476e+9 
           2785      1.33032e+9 
           2795      1.25128e+9 
           2805       1.2892e+9 
           2815      1.30054e+9 
           2825      1.27757e+9 
           2835      1.22404e+9 
           2845       1.2276e+9 
           2855      1.22794e+9 
           2865      1.23856e+9 
           2875      1.21743e+9 
           2885      1.20882e+9 
           2895      1.19833e+9 
           2910      1.18307e+9 
           2930      1.15609e+9 
           2950      1.12692e+9 
           2970      1.11653e+9 
           2990      1.09031e+9 
           3010      1.07308e+9 
           3030      1.06225e+9 
           3050      1.03966e+9 
           3070      1.02092e+9 
           3090      9.95513e+8 
           3110      9.79634e+8 
           3130      9.64886e+8 
           3150      9.46902e+8 
           3170      9.26593e+8 
           3190      8.98796e+8 
           3210      8.92713e+8 
           3230      8.77792e+8 
           3250      8.64311e+8 
           3270      8.49825e+8 
           3290      8.34268e+8 
           3310      8.21604e+8 
           3330      8.05819e+8 
           3350      7.89546e+8 
           3370      7.77084e+8 
           3390      7.64598e+8 
           3410      7.52254e+8 
           3430      7.36302e+8 
           3450      7.21396e+8 
           3470      7.10257e+8 
           3490      6.98181e+8 
           3510      6.87801e+8 
           3530      6.77913e+8 
           3550      6.66858e+8 
           3570      6.59082e+8 
           3590      6.41879e+8 
           3610      6.32676e+8 
           3630      6.23008e+8 
           3640      6.22433e+8 
           3650      6.15718e+8 
           3670      6.08662e+8 
           3690        5.976e+8 
           3710      5.75874e+8 
           3730      5.50029e+8 
           3750      5.76165e+8 
           3770      5.77066e+8 
           3790      6.23472e+8 
           3810      6.59376e+8 
           3830      5.62517e+8 
           3850      6.84124e+8 
           3870      7.03936e+8 
           3890      5.26975e+8 
           3910      7.04293e+8 
           3930      6.86996e+8 
           3950      6.80202e+8 
           3970       4.9168e+8 
           3990      6.47251e+8 
           4010       6.5864e+8 
           4030      6.10528e+8 
           4050      6.45441e+8 
           4070      6.18054e+8 
           4090      5.54889e+8 
           4110      4.74098e+8 
           4130      5.79443e+8 
           4150      5.81133e+8 
           4170      5.80165e+8 
           4190      5.75541e+8 
           4210      5.70341e+8 
           4230      5.59191e+8 
           4250       5.4637e+8 
           4270      5.27689e+8 
           4290      5.26812e+8 
           4310      5.12099e+8 
           4330      4.45391e+8 
           4350      4.01307e+8 
           4370      4.84265e+8 
           4390      4.70499e+8 
           4410      4.79529e+8 
           4430      4.71178e+8 
           4450      4.68417e+8 
           4470      4.35388e+8 
           4490      4.48224e+8 
           4510       4.4961e+8 
           4530      4.39792e+8 
           4550      4.34169e+8 
           4570      4.28177e+8 
           4590      4.21449e+8 
           4610      4.13794e+8 
           4630       4.0629e+8 
           4650      3.98674e+8 
           4670      3.95681e+8 
           4690      3.92125e+8 
           4710      3.74639e+8 
           4730      3.76344e+8 
           4750       3.7076e+8 
           4770      3.70621e+8 
           4790       3.6333e+8 
           4810      3.54094e+8 
           4830      3.45823e+8 
           4850      3.09151e+8 
           4870      2.71417e+8 
           4890      3.30929e+8 
           4910      3.30192e+8 
           4930       3.1659e+8 
           4950      3.23324e+8 
           4970      3.20483e+8 
           4990       3.1509e+8 
           5010      3.01217e+8 
           5030      3.04693e+8 
           5050      2.94766e+8 
           5070      2.97999e+8 
           5090      2.93234e+8 
           5110      2.88144e+8 
           5130      2.83024e+8 
           5150      2.79182e+8 
           5170      2.77619e+8 
           5190      2.73553e+8 
           5210      2.66127e+8 
           5230      2.66699e+8 
           5250       2.6329e+8 
           5270      2.58935e+8 
           5290      2.56806e+8 
           5310      2.53045e+8 
           5330      2.48736e+8 
           5350      2.44787e+8 
           5370      2.43385e+8 
           5390      2.40169e+8 
           5410      2.36401e+8 
           5430      2.32542e+8 
           5450        2.299e+8 
           5470       2.2627e+8 
           5490      2.24924e+8 
           5510      2.21756e+8 
           5530       2.1875e+8 
           5550      2.16333e+8 
           5570      2.13276e+8 
           5590       2.1103e+8 
           5610       2.0784e+8 
           5630      2.06116e+8 
           5650      2.00541e+8 
           5670      1.98332e+8 
           5690       1.9708e+8 
           5710      1.95493e+8 
           5730      1.93374e+8 
           5750      1.90709e+8 
           5770      1.88767e+8 
           5790       1.8642e+8 
           5810      1.83844e+8 
           5830      1.81587e+8 
           5850      1.79522e+8 
           5870      1.70998e+8 
           5890       1.7352e+8 
           5910      1.72757e+8 
           5930      1.70962e+8 
           5950      1.67867e+8 
           5970      1.67008e+8 
           5990      1.64467e+8 
           6010      1.63249e+8 
           6030      1.61173e+8 
           6050      1.59358e+8 
           6070      1.57451e+8 
           6090      1.55392e+8 
           6110      1.53862e+8 
           6130      1.52138e+8 
           6150      1.48969e+8 
           6170      1.48341e+8 
           6190      1.46892e+8 
           6210      1.45147e+8 
           6230      1.43478e+8 
           6250      1.41202e+8 
           6270      1.40025e+8 
           6290       1.3844e+8 
           6310       1.3659e+8 
           6330      1.35436e+8 
           6350      1.32688e+8 
           6370      1.31773e+8 
           6390        1.307e+8 
           6410      1.29198e+8 
           6430      1.28177e+8 
           6450      1.26487e+8 
           6470      1.24977e+8 
           6490      1.23635e+8 
           6510      1.21837e+8 
           6530      1.19722e+8 
           6550        1.118e+8 
           6570      9.73049e+7 
           6590      1.14013e+8 
           6610      1.15264e+8 
           6630      1.14492e+8 
           6650       1.1343e+8 
           6670      1.10845e+8 
           6690      1.09796e+8 
           6710      1.09829e+8 
           6730      1.08645e+8 
           6750       1.0763e+8 
           6770      1.06526e+8 
           6790      1.04748e+8 
           6810      1.04133e+8 
           6830      1.02911e+8 
           6850      1.02062e+8 
           6870      1.00989e+8 
           6890      9.99197e+7 
           6910      9.88688e+7 
           6930      9.76478e+7 
           6950      9.68761e+7 
           6970      9.58944e+7 
           6990      9.48375e+7 
           7010      9.37988e+7 
           7030      9.28543e+7 
           7050      9.18279e+7 
           7070      8.94324e+7 
           7090      9.01427e+7 
           7110      8.90177e+7 
           7130      8.81411e+7 
           7150      8.72802e+7 
           7170      8.64789e+7 
           7190      8.56705e+7 
           7210      8.48335e+7 
           7230      8.28946e+7 
           7250      8.29611e+7 
           7270      8.23057e+7 
           7290      8.08481e+7 
           7310      8.06601e+7 
           7330       7.9884e+7 
           7350       7.9129e+7 
           7370      7.83464e+7 
           7390       7.7578e+7 
           7410      7.68236e+7 
           7430      7.58647e+7 
           7450      7.52543e+7 
           7470       7.4359e+7 
           7490      7.37475e+7 
           7510      7.31014e+7 
           7530      7.23947e+7 
           7550      7.17473e+7 
           7570      7.10794e+7 
           7590      7.03391e+7 
           7610      6.97292e+7 
           7630      6.90664e+7 
           7650      6.84096e+7 
           7670      6.77716e+7 
           7690      6.71201e+7 
           7710      6.64998e+7 
           7730      6.58409e+7 
           7750      6.52506e+7 
           7770      6.38855e+7 
           7790      6.40359e+7 
           7810      6.34243e+7 
           7830      6.28611e+7 
           7850      6.19848e+7 
           7870       6.1506e+7 
           7890      6.07225e+7 
           7910      6.05483e+7 
           7930      6.00515e+7 
           7950      5.91442e+7 
           7970      5.88732e+7 
           7990      5.79321e+7 
           8010      5.78357e+7 
           8030      5.72857e+7 
           8050      5.67037e+7 
           8070      5.62709e+7 
           8090      5.56724e+7 
           8110      5.51885e+7 
           8130      5.47332e+7 
           8150       5.4246e+7 
           8170      5.38261e+7 
           8190      5.32271e+7 
           8210      5.26031e+7 
           8230      5.20073e+7 
           8250      5.19337e+7 
           8270      5.12345e+7 
           8290      5.10062e+7 
           8310      5.05373e+7 
           8330      5.01483e+7 
           8350      4.94999e+7 
           8370      4.91437e+7 
           8390      4.88695e+7 
           8410       4.8436e+7 
           8430      4.79499e+7 
           8450      4.69402e+7 
           8470      4.70901e+7 
           8490       4.6546e+7 
           8510      4.60819e+7 
           8530      4.58309e+7 
           8550      4.47813e+7 
           8570      4.54877e+7 
