# Kurucz ODFNEW /NOVER (2003)
# teff = 27000 K (value for the effective temperature for the model. Temperatures are given in K)
# logg = 5 log(cm/s2) (value for Log(G) for the model.)
# meta = 0.2  (value for the Metallicity for the model.)
# lh = 1.25  (l/Hp where l is the  mixing length of the convective element and Hp is the pressure scale height)
# vtur = 2 km/s (Microturbulence velocity)
# alpha = 0  (Alpha)
#
# column 1: WAVELENGTH (ANGSTROM), Wavelength in Angstrom
# column 2: FLUX (ERG/CM2/S/A), Flux in erg/cm2/s/A
          147.2     1.74439e-11 
            151     6.15777e-11 
          155.2      2.3179e-10 
          158.8     6.84949e-10 
            162       1.7289e-9 
            166       5.2516e-9 
          170.3      1.63788e-8 
          173.4      3.61436e-8 
          176.8      8.33889e-8 
          180.2      1.86856e-7 
          181.7      2.64299e-7 
          186.1      7.11727e-7 
            191      2.04273e-6 
          193.9      3.72208e-6 
          198.4      9.14782e-6 
          201.8      1.76101e-5 
            205      3.20263e-5 
          210.5      8.61856e-5 
          216.2     0.000228782 
          219.8     0.000413691 
            223     0.000690073 
          226.8      0.00124741 
            230       0.0889551 
            234        0.195382 
            240        0.412519 
          246.5        0.896652 
          252.4         1.77177 
          256.8         2.74271 
            260         4.25426 
            264         6.33288 
          268.5         9.98675 
          273.5         16.1117 
          278.5         25.5208 
            284         44.6371 
            290         73.6526 
            296         119.899 
            301         175.518 
            308          305.64 
            318         657.984 
            328         1240.87 
            338         2402.32 
            348         4323.07 
            357           13080 
            366         23333.7 
            375         33789.8 
            385         53427.1 
            395         89425.1 
            405          129470 
            414          184665 
            422          243891 
            430          332720 
            441          476101 
            451          634084 
            460          809612 
            470      1.09509e+6 
            480      1.43489e+6 
            490      1.87957e+6 
            500      2.39283e+6 
            506      9.25638e+6 
            512      6.68816e+7 
            520      7.33968e+7 
            530      8.30159e+7 
            540      8.56814e+7 
            550      1.17155e+8 
            560       1.3415e+8 
            570      1.54112e+8 
            580      1.48463e+8 
            590       1.8357e+8 
            600      1.95146e+8 
            610      2.20803e+8 
            620       2.3672e+8 
            630      2.43455e+8 
            640      2.23821e+8 
            650      2.08392e+8 
            658      2.56258e+8 
            665      2.98061e+8 
            675      3.18268e+8 
            685       3.2038e+8 
            695       4.1357e+8 
            705      4.16883e+8 
            716      4.66752e+8 
            726      4.79893e+8 
            735      4.92138e+8 
            745      5.49131e+8 
            755       5.7684e+8 
            765      6.11876e+8 
            775       6.4498e+8 
            785       6.8349e+8 
            795      6.99068e+8 
            805      7.18607e+8 
            815      7.33693e+8 
            825      7.88689e+8 
            835      7.11935e+8 
            845      8.02342e+8 
            855      8.13625e+8 
            865      8.59823e+8 
            875      9.04101e+8 
            885      9.63294e+8 
            895      9.97103e+8 
            905        9.831e+8 
            915      1.12448e+9 
            925      4.37942e+9 
            935     1.01949e+10 
            945     2.42159e+10 
            955     3.47205e+10 
            965     4.54636e+10 
            975      7.92633e+9 
            985     4.30187e+10 
            995      3.9978e+10 
           1005     4.65007e+10 
           1015      4.4843e+10 
           1025     1.66028e+10 
           1035     3.53123e+10 
           1045     5.57043e+10 
           1055     5.15529e+10 
           1065     3.99805e+10 
           1075     4.64447e+10 
           1085     4.13203e+10 
           1095      4.6432e+10 
           1105     4.19485e+10 
           1115     4.04631e+10 
           1125     3.15671e+10 
           1135     4.10821e+10 
           1145     3.61406e+10 
           1155     3.73701e+10 
           1165     3.65453e+10 
           1175     2.13061e+10 
           1185     3.41497e+10 
           1195     3.12722e+10 
           1205     2.21893e+10 
           1215      1.2519e+10 
           1225     2.60161e+10 
           1235     3.21371e+10 
           1245     3.13094e+10 
           1255     3.07478e+10 
           1265     3.14478e+10 
           1275     3.22797e+10 
           1285      3.2053e+10 
           1295     2.32863e+10 
           1305     2.46165e+10 
           1315     3.07684e+10 
           1325     2.83101e+10 
           1335     2.73464e+10 
           1345     2.73724e+10 
           1355     2.71607e+10 
           1365     2.45401e+10 
           1375     2.37201e+10 
           1385        2.31e+10 
           1395     1.67793e+10 
           1405     1.81248e+10 
           1415     2.02568e+10 
           1425     1.96247e+10 
           1435     2.03346e+10 
           1442     2.08859e+10 
           1447     2.05061e+10 
           1455     1.97794e+10 
           1465     1.81113e+10 
           1475     1.84293e+10 
           1485      1.8076e+10 
           1495     1.77221e+10 
           1505     1.57579e+10 
           1512     1.41682e+10 
           1517     1.45745e+10 
           1525     1.50711e+10 
           1535       1.261e+10 
           1545     1.20981e+10 
           1555     1.17879e+10 
           1565     1.28195e+10 
           1575     1.36044e+10 
           1585     1.36132e+10 
           1595     1.34753e+10 
           1605     1.36607e+10 
           1615     1.32017e+10 
           1625     1.30477e+10 
           1635     1.37486e+10 
           1645     1.36714e+10 
           1655     1.35312e+10 
           1665     1.37267e+10 
           1672     1.30155e+10 
           1677     1.42677e+10 
           1685     1.37438e+10 
           1695     1.29754e+10 
           1705     1.25218e+10 
           1715     1.18834e+10 
           1725     1.15237e+10 
           1735     1.20244e+10 
           1745     1.17615e+10 
           1755     1.17876e+10 
           1765     1.15225e+10 
           1775     1.08241e+10 
           1785      1.1006e+10 
           1795     1.13101e+10 
           1805     1.13526e+10 
           1815     1.01652e+10 
           1825     1.05205e+10 
           1835     1.01405e+10 
           1845      9.18686e+9 
           1855      9.31175e+9 
           1865      9.42889e+9 
           1875       9.7958e+9 
           1885      8.69561e+9 
           1895      8.08237e+9 
           1905      8.73967e+9 
           1915      8.19847e+9 
           1925      7.73583e+9 
           1935      8.24016e+9 
           1945      8.45151e+9 
           1955        7.558e+9 
           1967       8.1973e+9 
           1976      8.58467e+9 
           1984      7.86687e+9 
           1995      7.75111e+9 
           2005       8.0106e+9 
           2015      7.89576e+9 
           2025       8.1171e+9 
           2035      7.37862e+9 
           2045      7.49644e+9 
           2055       7.1505e+9 
           2065      7.16199e+9 
           2074      7.44214e+9 
           2078      6.76861e+9 
           2085       7.0827e+9 
           2095      6.69723e+9 
           2105      7.01413e+9 
           2115      7.01946e+9 
           2125      7.07744e+9 
           2135      6.91634e+9 
           2145      6.56534e+9 
           2155      6.81873e+9 
           2165      6.75766e+9 
           2175       6.6607e+9 
           2185      6.44916e+9 
           2195      6.51798e+9 
           2205      6.46922e+9 
           2215      6.35535e+9 
           2225      6.18078e+9 
           2235      6.08147e+9 
           2245       6.1139e+9 
           2255      5.90777e+9 
           2265      5.96895e+9 
           2275      5.86775e+9 
           2285      5.84342e+9 
           2295      5.35523e+9 
           2305      5.62603e+9 
           2315      5.46526e+9 
           2325      5.40553e+9 
           2335      5.24988e+9 
           2345      5.26734e+9 
           2355      5.23601e+9 
           2365      5.16913e+9 
           2375      5.04935e+9 
           2385       5.0112e+9 
           2395      4.95506e+9 
           2405      4.85428e+9 
           2415      4.81138e+9 
           2425      4.79856e+9 
           2435      4.64823e+9 
           2445      4.64822e+9 
           2455       4.6385e+9 
           2465      4.55903e+9 
           2475      4.48794e+9 
           2485      4.40962e+9 
           2495      3.91398e+9 
           2505      4.27279e+9 
           2513      4.06404e+9 
           2518      4.21672e+9 
           2525       4.1747e+9 
           2535      4.12395e+9 
           2545      3.98481e+9 
           2555      4.02028e+9 
           2565      3.96282e+9 
           2575       3.9575e+9 
           2585      3.91279e+9 
           2595      3.87061e+9 
           2605      3.82851e+9 
           2615      3.77753e+9 
           2625      3.74678e+9 
           2635      3.71031e+9 
           2645      3.65964e+9 
           2655      3.63982e+9 
           2665      3.49548e+9 
           2675      3.50362e+9 
           2685      3.49273e+9 
           2695      3.35974e+9 
           2705      3.30076e+9 
           2715      3.29928e+9 
           2725      3.28288e+9 
           2735      3.26445e+9 
           2745      3.17437e+9 
           2755      3.16606e+9 
           2765      3.12122e+9 
           2775      3.14984e+9 
           2785      3.09578e+9 
           2795      2.97472e+9 
           2805      2.99908e+9 
           2815      3.00938e+9 
           2825      2.94893e+9 
           2835      2.83798e+9 
           2845      2.88946e+9 
           2855      2.83995e+9 
           2865      2.83228e+9 
           2875      2.79916e+9 
           2885      2.76314e+9 
           2895       2.7252e+9 
           2910      2.66693e+9 
           2930      2.62832e+9 
           2950      2.54159e+9 
           2970      2.51093e+9 
           2990      2.44614e+9 
           3010      2.36559e+9 
           3030      2.35022e+9 
           3050      2.30675e+9 
           3070        2.268e+9 
           3090       2.1784e+9 
           3110       2.1657e+9 
           3130      2.11104e+9 
           3150       2.0751e+9 
           3170        2.019e+9 
           3190      1.97115e+9 
           3210      1.95065e+9 
           3230      1.90302e+9 
           3250      1.87218e+9 
           3270      1.83008e+9 
           3290       1.7922e+9 
           3310      1.75967e+9 
           3330      1.72056e+9 
           3350      1.68829e+9 
           3370      1.65382e+9 
           3390      1.62715e+9 
           3410      1.59545e+9 
           3430      1.55874e+9 
           3450        1.523e+9 
           3470      1.49585e+9 
           3490      1.46583e+9 
           3510      1.43997e+9 
           3530      1.41768e+9 
           3550      1.39108e+9 
           3570      1.37412e+9 
           3590      1.32848e+9 
           3610      1.31013e+9 
           3630      1.28673e+9 
           3640      1.28823e+9 
           3650      1.26017e+9 
           3670       1.2456e+9 
           3690      1.22458e+9 
           3710      1.17947e+9 
           3730      1.14216e+9 
           3750      1.12787e+9 
           3770       1.0925e+9 
           3790      1.13123e+9 
           3810      1.17394e+9 
           3830      1.02531e+9 
           3850      1.20116e+9 
           3870      1.21341e+9 
           3890      9.58921e+8 
           3910      1.21128e+9 
           3930      1.18986e+9 
           3950      1.16376e+9 
           3970      8.90522e+8 
           3990      1.11579e+9 
           4010      1.12927e+9 
           4030      1.04901e+9 
           4050      1.09731e+9 
           4070      1.04088e+9 
           4090      9.44498e+8 
           4110       8.3314e+8 
           4130      9.90387e+8 
           4150      9.90707e+8 
           4170      9.89329e+8 
           4190      9.78062e+8 
           4210       9.6979e+8 
           4230      9.47566e+8 
           4250      9.19376e+8 
           4270      8.91548e+8 
           4290      8.83049e+8 
           4310      8.50841e+8 
           4330      7.57964e+8 
           4350      6.93393e+8 
           4370      8.05385e+8 
           4390      7.95053e+8 
           4410      8.01631e+8 
           4430      7.95426e+8 
           4450      7.82414e+8 
           4470      7.30649e+8 
           4490      7.55772e+8 
           4510      7.52881e+8 
           4530      7.39804e+8 
           4550      7.29311e+8 
           4570      7.16664e+8 
           4590      7.04514e+8 
           4610      6.87087e+8 
           4630      6.75839e+8 
           4650      6.56465e+8 
           4670      6.57885e+8 
           4690      6.52114e+8 
           4710      6.23866e+8 
           4730      6.27694e+8 
           4750      6.17911e+8 
           4770      6.17327e+8 
           4790      6.05204e+8 
           4810      5.90559e+8 
           4830       5.7565e+8 
           4850      5.21664e+8 
           4870      4.64175e+8 
           4890      5.49699e+8 
           4910       5.4859e+8 
           4930      5.25718e+8 
           4950      5.33748e+8 
           4970      5.30452e+8 
           4990      5.21473e+8 
           5010      4.97476e+8 
           5030      5.05157e+8 
           5050      4.92256e+8 
           5070      4.92366e+8 
           5090      4.84084e+8 
           5110      4.76003e+8 
           5130      4.64826e+8 
           5150       4.5939e+8 
           5170      4.56816e+8 
           5190      4.51036e+8 
           5210      4.43111e+8 
           5230      4.38172e+8 
           5250      4.32284e+8 
           5270      4.25292e+8 
           5290       4.2048e+8 
           5310      4.14273e+8 
           5330      4.08544e+8 
           5350      4.01981e+8 
           5370      3.97921e+8 
           5390      3.92211e+8 
           5410      3.87219e+8 
           5430      3.81394e+8 
           5450      3.76089e+8 
           5470      3.70977e+8 
           5490      3.66229e+8 
           5510      3.62011e+8 
           5530      3.56429e+8 
           5550      3.52556e+8 
           5570      3.47624e+8 
           5590      3.43429e+8 
           5610      3.38543e+8 
           5630      3.34514e+8 
           5650      3.28291e+8 
           5670      3.22651e+8 
           5690      3.17908e+8 
           5710      3.16032e+8 
           5730      3.12521e+8 
           5750      3.07605e+8 
           5770      3.05216e+8 
           5790      3.01054e+8 
           5810      2.97267e+8 
           5830      2.92859e+8 
           5850      2.89539e+8 
           5870      2.75389e+8 
           5890      2.78887e+8 
           5910      2.77887e+8 
           5930      2.74098e+8 
           5950      2.70407e+8 
           5970      2.68883e+8 
           5990      2.64287e+8 
           6010      2.61978e+8 
           6030      2.58254e+8 
           6050      2.55356e+8 
           6070      2.52633e+8 
           6090      2.49534e+8 
           6110       2.4653e+8 
           6130      2.43751e+8 
           6150        2.393e+8 
           6170      2.37147e+8 
           6190      2.34841e+8 
           6210      2.32236e+8 
           6230      2.29544e+8 
           6250      2.26168e+8 
           6270      2.23807e+8 
           6290      2.21358e+8 
           6310      2.18566e+8 
           6330      2.16275e+8 
           6350      2.12916e+8 
           6370      2.11033e+8 
           6390      2.08625e+8 
           6410      2.06225e+8 
           6430       2.0406e+8 
           6450      2.01583e+8 
           6470       1.9835e+8 
           6490       1.9636e+8 
           6510      1.94027e+8 
           6530      1.90437e+8 
           6550      1.79344e+8 
           6570      1.57116e+8 
           6590      1.81156e+8 
           6610       1.8276e+8 
           6630      1.81556e+8 
           6650      1.79699e+8 
           6670      1.75464e+8 
           6690      1.73634e+8 
           6710      1.73989e+8 
           6730      1.71676e+8 
           6750      1.70247e+8 
           6770      1.68387e+8 
           6790      1.64986e+8 
           6810      1.64392e+8 
           6830      1.62631e+8 
           6850      1.61073e+8 
           6870      1.59322e+8 
           6890      1.57423e+8 
           6910       1.5559e+8 
           6930      1.54175e+8 
           6950      1.52579e+8 
           6970       1.5096e+8 
           6990      1.49319e+8 
           7010      1.47702e+8 
           7030      1.46123e+8 
           7050      1.44545e+8 
           7070      1.40351e+8 
           7090      1.41427e+8 
           7110       1.3941e+8 
           7130      1.37999e+8 
           7150      1.36978e+8 
           7170      1.35694e+8 
           7190      1.34343e+8 
           7210      1.32939e+8 
           7230      1.29452e+8 
           7250          1.3e+8 
           7270      1.28844e+8 
           7290      1.26351e+8 
           7310       1.2619e+8 
           7330      1.24871e+8 
           7350      1.23648e+8 
           7370      1.22402e+8 
           7390      1.21161e+8 
           7410      1.19932e+8 
           7430      1.18652e+8 
           7450      1.17507e+8 
           7470      1.15846e+8 
           7490      1.15107e+8 
           7510      1.13954e+8 
           7530      1.12771e+8 
           7550      1.11771e+8 
           7570      1.10669e+8 
           7590      1.09563e+8 
           7610      1.08351e+8 
           7630      1.07388e+8 
           7650      1.06351e+8 
           7670      1.05317e+8 
           7690       1.0428e+8 
           7710      1.03251e+8 
           7730       1.0222e+8 
           7750      1.01285e+8 
           7770      9.97845e+7 
           7790      9.93349e+7 
           7810      9.83265e+7 
           7830      9.74316e+7 
           7850       9.6465e+7 
           7870      9.54401e+7 
           7890      9.43093e+7 
           7910      9.37186e+7 
           7930      9.28211e+7 
           7950      9.18718e+7 
           7970      9.10199e+7 
           7990      9.00573e+7 
           8010      8.92676e+7 
           8030      8.84145e+7 
           8050      8.75978e+7 
           8070      8.67766e+7 
           8090      8.59164e+7 
           8110      8.47657e+7 
           8130      8.44347e+7 
           8150      8.36181e+7 
           8170       8.2927e+7 
           8190      8.18373e+7 
           8210      8.09975e+7 
           8230      8.01371e+7 
           8250      7.97822e+7 
           8270      7.83888e+7 
           8290      7.82961e+7 
           8310      7.76632e+7 
           8330      7.69487e+7 
           8350      7.59105e+7 
           8370      7.54084e+7 
           8390      7.49101e+7 
           8410      7.42027e+7 
           8430       7.3533e+7 
           8450      7.21987e+7 
           8470      7.22467e+7 
           8490      7.13997e+7 
           8510      7.08721e+7 
           8530      7.01414e+7 
           8550      6.94169e+7 
           8570      6.91907e+7 
           8590      6.72861e+7 
