# Kurucz ODFNEW /NOVER (2003)
# teff = 21000 K (value for the effective temperature for the model. Temperatures are given in K)
# logg = 3 log(cm/s2) (value for Log(G) for the model.)
# meta = 0.2  (value for the Metallicity for the model.)
# lh = 1.25  (l/Hp where l is the  mixing length of the convective element and Hp is the pressure scale height)
# vtur = 2 km/s (Microturbulence velocity)
# alpha = 0.4  (Alpha)
#
# column 1: WAVELENGTH (ANGSTROM), Wavelength in Angstrom
# column 2: FLUX (ERG/CM2/S/A), Flux in erg/cm2/s/A
          147.2     1.76039e-19 
            151     1.00108e-18 
          155.2     6.22485e-18 
          158.8     2.77407e-17 
            162     9.94606e-17 
            166     4.59838e-16 
          170.3     2.20345e-15 
          173.4     6.56931e-15 
          176.8     2.07779e-14 
          180.2     6.30759e-14 
          181.7     1.01595e-13 
          186.1     3.95763e-13 
            191     1.68129e-12 
          193.9      3.8289e-12 
          198.4     1.31272e-11 
          201.8     3.21767e-11 
            205     7.29103e-11 
          210.5     2.81623e-10 
          216.2      1.06597e-9 
          219.8      2.38801e-9 
            223      4.78925e-9 
          226.8       1.0679e-8 
            230      2.31543e-7 
            234      5.93117e-7 
            240      1.72596e-6 
          246.5      5.16818e-6 
          252.4      1.34836e-5 
          256.8      2.58544e-5 
            260        4.439e-5 
            264       7.8961e-5 
          268.5     0.000149109 
          273.5     0.000292354 
          278.5     0.000566972 
            284      0.00121068 
            290      0.00248977 
            296      0.00499849 
            301       0.0087179 
            308       0.0194528 
            318       0.0554194 
            328        0.139936 
            338        0.354754 
            348        0.825884 
            357         3.79747 
            366         7.99857 
            375         14.1511 
            385         26.9766 
            395         52.4753 
            405            91.8 
            414          151.95 
            422         228.893 
            430         349.488 
            441         593.005 
            451          924.02 
            460         1345.03 
            470         2062.55 
            480         3048.17 
            490         4517.46 
            500         6510.34 
            506         41016.5 
            512          656414 
            520          781727 
            530       1.0463e+6 
            540      1.11616e+6 
            550      1.87642e+6 
            560      2.30687e+6 
            570      2.97592e+6 
            580      2.79759e+6 
            590      4.13169e+6 
            600      5.04702e+6 
            610      6.36623e+6 
            620       7.1066e+6 
            630      7.94103e+6 
            640      7.71109e+6 
            650      6.15661e+6 
            658      1.00586e+7 
            665      1.17902e+7 
            675      1.21777e+7 
            685      1.26646e+7 
            695       1.7306e+7 
            705      1.79858e+7 
            716      2.08509e+7 
            726      2.15591e+7 
            735      2.37241e+7 
            745      2.79846e+7 
            755      3.07186e+7 
            765      3.39139e+7 
            775      3.72687e+7 
            785      4.06096e+7 
            795      4.27148e+7 
            805      4.54162e+7 
            815      4.78885e+7 
            825      5.33346e+7 
            835      4.45262e+7 
            845      5.67238e+7 
            855      5.91512e+7 
            865      6.43772e+7 
            875       6.9734e+7 
            885      7.76426e+7 
            895      8.28497e+7 
            905      8.05459e+7 
            915      1.72587e+8 
            925      2.48059e+9 
            935      4.86649e+9 
            945      7.28422e+9 
            955      8.81077e+9 
            965      8.01095e+9 
            975      1.24929e+9 
            985      5.00973e+9 
            995      6.60592e+9 
           1005       9.2785e+9 
           1015      9.52478e+9 
           1025      6.76239e+9 
           1035      6.68616e+9 
           1045     1.23618e+10 
           1055     1.11794e+10 
           1065       7.9051e+9 
           1075     1.03435e+10 
           1085      8.90505e+9 
           1095     1.08756e+10 
           1105      8.64794e+9 
           1115      7.13232e+9 
           1125       5.7443e+9 
           1135      9.89999e+9 
           1145      8.84766e+9 
           1155      9.44037e+9 
           1165      9.43194e+9 
           1175      4.96812e+9 
           1185      9.02369e+9 
           1195      6.61059e+9 
           1205      1.85736e+9 
           1215      4.22378e+9 
           1225      7.85882e+9 
           1235      9.71695e+9 
           1245      9.46329e+9 
           1255      9.35948e+9 
           1265      9.26836e+9 
           1275       9.7233e+9 
           1285      9.58601e+9 
           1295      4.21989e+9 
           1305      4.88635e+9 
           1315       9.2608e+9 
           1325      8.65289e+9 
           1335      7.98832e+9 
           1345      8.74921e+9 
           1355      8.58546e+9 
           1365      7.44936e+9 
           1375      7.25632e+9 
           1385      6.64305e+9 
           1395      3.78912e+9 
           1405      4.63749e+9 
           1415      5.97111e+9 
           1425      6.36087e+9 
           1435      6.67995e+9 
           1442      6.95967e+9 
           1447       6.8073e+9 
           1455       6.5522e+9 
           1465      5.91312e+9 
           1475      6.17953e+9 
           1485      6.10479e+9 
           1495       5.9708e+9 
           1505      5.30842e+9 
           1512       4.6518e+9 
           1517      4.90178e+9 
           1525       5.1547e+9 
           1535      4.26434e+9 
           1545      4.16797e+9 
           1555      4.09085e+9 
           1565      4.46035e+9 
           1575      4.81637e+9 
           1585      4.90184e+9 
           1595      4.84205e+9 
           1605      5.00171e+9 
           1615      4.97462e+9 
           1625      4.78861e+9 
           1635      5.22332e+9 
           1645      5.23268e+9 
           1655      5.07157e+9 
           1665      5.29498e+9 
           1672       5.0296e+9 
           1677      5.49074e+9 
           1685      5.41325e+9 
           1695        5.011e+9 
           1705      4.89174e+9 
           1715      4.52156e+9 
           1725      4.53031e+9 
           1735      4.81802e+9 
           1745      4.65619e+9 
           1755      4.71911e+9 
           1765      4.64716e+9 
           1775      4.29614e+9 
           1785      4.42005e+9 
           1795      4.69984e+9 
           1805      4.79257e+9 
           1815      4.04916e+9 
           1825      4.35985e+9 
           1835      4.17429e+9 
           1845      3.76516e+9 
           1855      3.68899e+9 
           1865      3.77615e+9 
           1875      4.16868e+9 
           1885      3.61692e+9 
           1895      3.32749e+9 
           1905      3.77402e+9 
           1915      3.39632e+9 
           1925      3.24471e+9 
           1935      3.53897e+9 
           1945       3.5674e+9 
           1955      3.19045e+9 
           1967      3.61658e+9 
           1976      3.75989e+9 
           1984      3.48462e+9 
           1995      3.40048e+9 
           2005      3.64376e+9 
           2015      3.53976e+9 
           2025      3.69681e+9 
           2035      3.30569e+9 
           2045      3.45414e+9 
           2055      3.30419e+9 
           2065      3.25981e+9 
           2074       3.5403e+9 
           2078       3.0574e+9 
           2085      3.36032e+9 
           2095       3.1454e+9 
           2105       3.2546e+9 
           2115      3.31182e+9 
           2125      3.32828e+9 
           2135      3.27965e+9 
           2145       3.0785e+9 
           2155      3.26708e+9 
           2165       3.2864e+9 
           2175      3.25354e+9 
           2185      3.08495e+9 
           2195      3.17787e+9 
           2205      3.18351e+9 
           2215        3.101e+9 
           2225      3.00927e+9 
           2235      2.99914e+9 
           2245      3.05007e+9 
           2255       2.9141e+9 
           2265      3.00335e+9 
           2275      2.96099e+9 
           2285      2.97958e+9 
           2295      2.65798e+9 
           2305      2.86676e+9 
           2315      2.75404e+9 
           2325      2.72001e+9 
           2335      2.58877e+9 
           2345      2.63271e+9 
           2355      2.64789e+9 
           2365      2.61848e+9 
           2375      2.58392e+9 
           2385      2.55706e+9 
           2395      2.55815e+9 
           2405      2.48097e+9 
           2415      2.48514e+9 
           2425       2.4939e+9 
           2435      2.40026e+9 
           2445      2.43827e+9 
           2455      2.44957e+9 
           2465      2.38572e+9 
           2475      2.33905e+9 
           2485      2.28488e+9 
           2495      1.85544e+9 
           2505      2.19739e+9 
           2513      2.13516e+9 
           2518      2.23929e+9 
           2525      2.19457e+9 
           2535      2.17318e+9 
           2545      2.04627e+9 
           2555      2.14541e+9 
           2565       2.1053e+9 
           2575      2.15125e+9 
           2585        2.114e+9 
           2595      2.10087e+9 
           2605      2.09193e+9 
           2615       2.0563e+9 
           2625      2.04547e+9 
           2635      2.03372e+9 
           2645      2.03027e+9 
           2655      2.02906e+9 
           2665      1.92608e+9 
           2675      1.96051e+9 
           2685      1.94828e+9 
           2695      1.87617e+9 
           2705      1.83617e+9 
           2715      1.84562e+9 
           2725      1.84209e+9 
           2735      1.83756e+9 
           2745      1.77255e+9 
           2755      1.77281e+9 
           2765       1.7671e+9 
           2775      1.78849e+9 
           2785      1.75541e+9 
           2795       1.6796e+9 
           2805      1.71534e+9 
           2815      1.71677e+9 
           2825      1.70374e+9 
           2835      1.62289e+9 
           2845      1.64161e+9 
           2855      1.61511e+9 
           2865       1.6319e+9 
           2875      1.61195e+9 
           2885      1.59935e+9 
           2895      1.56656e+9 
           2910      1.53938e+9 
           2930      1.52265e+9 
           2950      1.47926e+9 
           2970       1.4626e+9 
           2990      1.43189e+9 
           3010      1.37467e+9 
           3030      1.38153e+9 
           3050      1.36218e+9 
           3070      1.34517e+9 
           3090      1.28599e+9 
           3110      1.28687e+9 
           3130      1.25683e+9 
           3150      1.24031e+9 
           3170      1.20683e+9 
           3190      1.18426e+9 
           3210      1.17047e+9 
           3230      1.14363e+9 
           3250      1.13046e+9 
           3270       1.1055e+9 
           3290      1.08455e+9 
           3310      1.06712e+9 
           3330      1.04499e+9 
           3350      1.02839e+9 
           3370      1.00793e+9 
           3390      9.95217e+8 
           3410      9.78782e+8 
           3430      9.57506e+8 
           3450      9.37764e+8 
           3470      9.22011e+8 
           3490      9.04638e+8 
           3510      8.92187e+8 
           3530      8.82197e+8 
           3550      8.66276e+8 
           3570        8.537e+8 
           3590      8.28518e+8 
           3610      8.13986e+8 
           3630      8.05756e+8 
           3640      8.05401e+8 
           3650      7.92256e+8 
           3670      7.83924e+8 
           3690      7.58351e+8 
           3710      7.49758e+8 
           3730      7.47263e+8 
           3750      8.13548e+8 
           3770      8.04754e+8 
           3790      8.16976e+8 
           3810      8.42159e+8 
           3830      7.57162e+8 
           3850      8.30037e+8 
           3870      8.08903e+8 
           3890      7.27935e+8 
           3910      8.08208e+8 
           3930      7.73758e+8 
           3950        7.735e+8 
           3970      6.75373e+8 
           3990      7.49029e+8 
           4010      7.42115e+8 
           4030      7.11826e+8 
           4050      7.16067e+8 
           4070      6.84007e+8 
           4090      6.60241e+8 
           4110      6.07264e+8 
           4130      6.53654e+8 
           4150      6.48922e+8 
           4170       6.4698e+8 
           4190      6.41634e+8 
           4210      6.36976e+8 
           4230      6.22082e+8 
           4250       6.0577e+8 
           4270      5.87464e+8 
           4290      5.81549e+8 
           4310      5.66186e+8 
           4330       5.4198e+8 
           4350      5.02983e+8 
           4370      5.40547e+8 
           4390      5.40539e+8 
           4410      5.33342e+8 
           4430      5.27846e+8 
           4450      5.20981e+8 
           4470      5.05168e+8 
           4490       5.0548e+8 
           4510      5.03267e+8 
           4530      4.94188e+8 
           4550      4.88433e+8 
           4570      4.80127e+8 
           4590      4.72483e+8 
           4610      4.61195e+8 
           4630      4.56077e+8 
           4650      4.41831e+8 
           4670       4.4258e+8 
           4690      4.40355e+8 
           4710      4.21968e+8 
           4730      4.24014e+8 
           4750      4.17546e+8 
           4770      4.19251e+8 
           4790      4.11406e+8 
           4810      4.02032e+8 
           4830      3.96497e+8 
           4850      3.84617e+8 
           4870      3.50411e+8 
           4890      3.82069e+8 
           4910      3.76978e+8 
           4930       3.6585e+8 
           4950      3.64744e+8 
           4970      3.63569e+8 
           4990      3.57301e+8 
           5010      3.41261e+8 
           5030       3.4634e+8 
           5050       3.3731e+8 
           5070      3.37995e+8 
           5090      3.32494e+8 
           5110      3.26939e+8 
           5130      3.19642e+8 
           5150       3.1715e+8 
           5170      3.15194e+8 
           5190      3.11231e+8 
           5210       3.0428e+8 
           5230      3.02949e+8 
           5250      2.99347e+8 
           5270      2.94298e+8 
           5290       2.9166e+8 
           5310      2.87276e+8 
           5330      2.83374e+8 
           5350      2.78982e+8 
           5370      2.76829e+8 
           5390      2.72859e+8 
           5410      2.69674e+8 
           5430      2.65098e+8 
           5450      2.61748e+8 
           5470      2.58226e+8 
           5490      2.55735e+8 
           5510      2.53001e+8 
           5530      2.48981e+8 
           5550      2.46811e+8 
           5570      2.43233e+8 
           5590      2.40796e+8 
           5610      2.37083e+8 
           5630      2.34962e+8 
           5650      2.29265e+8 
           5670      2.25834e+8 
           5690      2.23261e+8 
           5710      2.22219e+8 
           5730       2.2004e+8 
           5750       2.1654e+8 
           5770      2.15279e+8 
           5790      2.12446e+8 
           5810      2.09848e+8 
           5830       2.0677e+8 
           5850      2.04687e+8 
           5870      1.97631e+8 
           5890      1.97768e+8 
           5910      1.96572e+8 
           5930      1.94006e+8 
           5950      1.91044e+8 
           5970      1.90781e+8 
           5990      1.87262e+8 
           6010      1.86101e+8 
           6030      1.83428e+8 
           6050      1.81497e+8 
           6070       1.7972e+8 
           6090      1.77526e+8 
           6110      1.75589e+8 
           6130      1.73733e+8 
           6150      1.70264e+8 
           6170      1.69014e+8 
           6190      1.67628e+8 
           6210      1.65847e+8 
           6230      1.64065e+8 
           6250      1.61532e+8 
           6270      1.59986e+8 
           6290      1.58322e+8 
           6310      1.56175e+8 
           6330      1.54917e+8 
           6350      1.52168e+8 
           6370      1.50982e+8 
           6390      1.49494e+8 
           6410      1.47893e+8 
           6430      1.46601e+8 
           6450      1.44806e+8 
           6470      1.42661e+8 
           6490      1.41211e+8 
           6510        1.399e+8 
           6530      1.38019e+8 
           6550      1.35009e+8 
           6570       1.2128e+8 
           6590      1.32438e+8 
           6610      1.32353e+8 
           6630      1.31136e+8 
           6650      1.29565e+8 
           6670        1.274e+8 
           6690      1.26143e+8 
           6710      1.25693e+8 
           6730      1.23983e+8 
           6750      1.23166e+8 
           6770      1.21864e+8 
           6790      1.19284e+8 
           6810      1.19007e+8 
           6830      1.17641e+8 
           6850       1.1673e+8 
           6870      1.15485e+8 
           6890      1.14141e+8 
           6910      1.12795e+8 
           6930      1.11831e+8 
           6950      1.10829e+8 
           6970      1.09698e+8 
           6990      1.08485e+8 
           7010      1.07345e+8 
           7030      1.06255e+8 
           7050      1.05176e+8 
           7070      1.02418e+8 
           7090      1.03101e+8 
           7110      1.00852e+8 
           7130      9.99683e+7 
           7150      9.98888e+7 
           7170      9.89513e+7 
           7190      9.80226e+7 
           7210      9.70302e+7 
           7230      9.43537e+7 
           7250      9.47943e+7 
           7270      9.41237e+7 
           7290      9.24667e+7 
           7310      9.22434e+7 
           7330       9.1299e+7 
           7350       9.0475e+7 
           7370      8.96032e+7 
           7390      8.87187e+7 
           7410      8.78563e+7 
           7430      8.68448e+7 
           7450      8.60873e+7 
           7470      8.46817e+7 
           7490       8.4351e+7 
           7510       8.3575e+7 
           7530      8.26931e+7 
           7550      8.20441e+7 
           7570      8.12759e+7 
           7590      8.04296e+7 
           7610       7.9578e+7 
           7630      7.89349e+7 
           7650      7.81815e+7 
           7670      7.74606e+7 
           7690      7.67205e+7 
           7710      7.59808e+7 
           7730      7.52035e+7 
           7750      7.45775e+7 
           7770       7.3127e+7 
           7790       7.3199e+7 
           7810      7.24602e+7 
           7830      7.18447e+7 
           7850      7.10267e+7 
           7870      7.03255e+7 
           7890      6.94188e+7 
           7910      6.90983e+7 
           7930      6.84027e+7 
           7950      6.75404e+7 
           7970      6.70951e+7 
           7990      6.62344e+7 
           8010      6.59334e+7 
           8030      6.53658e+7 
           8050      6.48031e+7 
           8070      6.42798e+7 
           8090      6.35882e+7 
           8110       6.2748e+7 
           8130      6.25537e+7 
           8150      6.19124e+7 
           8170      6.15081e+7 
           8190      6.06296e+7 
           8210      6.00048e+7 
           8230      5.93408e+7 
           8250      5.92472e+7 
           8270      5.80686e+7 
           8290      5.80958e+7 
           8310      5.76037e+7 
           8330      5.71645e+7 
           8350      5.63831e+7 
           8370      5.58666e+7 
           8390      5.55364e+7 
           8410      5.49689e+7 
           8430      5.44858e+7 
           8450      5.34578e+7 
           8470      5.31427e+7 
           8490      5.33682e+7 
           8510       5.1891e+7 
           8530      5.28067e+7 
           8550      5.02229e+7 
           8570      5.26791e+7 
