# Kurucz ODFNEW /NOVER (2003)
# teff = 33000 K (value for the effective temperature for the model. Temperatures are given in K)
# logg = 4.5 log(cm/s2) (value for Log(G) for the model.)
# meta = 0  (value for the Metallicity for the model.)
# lh = 1.25  (l/Hp where l is the  mixing length of the convective element and Hp is the pressure scale height)
# vtur = 2 km/s (Microturbulence velocity)
# alpha = 0  (Alpha)
#
# column 1: WAVELENGTH (ANGSTROM), Wavelength in Angstrom
# column 2: FLUX (ERG/CM2/S/A), Flux in erg/cm2/s/A
          147.2      5.24031e-6 
            151       1.4022e-5 
          155.2      3.93542e-5 
          158.8      9.12862e-5 
            162     0.000187101 
            166     0.000441655 
          170.3      0.00106122 
          173.4      0.00194908 
          176.8      0.00370737 
          180.2      0.00686737 
          181.7      0.00897718 
          186.1       0.0190653 
            191       0.0424181 
          193.9       0.0667933 
          198.4        0.131942 
          201.8         0.21601 
            205        0.338613 
          210.5        0.711684 
          216.2         1.47259 
          219.8         2.30013 
            223         3.36972 
          226.8         5.26165 
            230         2463.84 
            234         5535.29 
            240          8717.1 
          246.5         14526.1 
          252.4         23369.9 
          256.8         31255.8 
            260           53004 
            264         85285.2 
          268.5          124862 
          273.5          168884 
          278.5          210284 
            284          423190 
            290          598825 
            296          779249 
            301      1.18843e+6 
            308      2.49609e+6 
            318      5.29047e+6 
            328      7.46918e+6 
            338      1.28715e+7 
            348      1.93837e+7 
            357      3.63697e+7 
            366      6.59296e+7 
            375      7.79391e+7 
            385      1.07914e+8 
            395      1.66864e+8 
            405      2.02698e+8 
            414      2.53012e+8 
            422      2.82562e+8 
            430      3.23572e+8 
            441      3.97784e+8 
            451       4.4861e+8 
            460      4.80152e+8 
            470      5.64992e+8 
            480      6.58099e+8 
            490      7.19756e+8 
            500      8.53503e+8 
            506      1.62118e+9 
            512      9.92611e+9 
            520      9.31709e+9 
            530      8.44349e+9 
            540      7.72205e+9 
            550      9.09244e+9 
            560     1.11636e+10 
            570     1.16764e+10 
            580     1.07077e+10 
            590     1.13484e+10 
            600       9.4759e+9 
            610     1.11905e+10 
            620     1.29562e+10 
            630     1.25415e+10 
            640     1.23955e+10 
            650     1.23719e+10 
            658     1.08129e+10 
            665     1.23107e+10 
            675     1.33039e+10 
            685     1.09207e+10 
            695     1.38923e+10 
            705     1.16477e+10 
            716     1.46612e+10 
            726     1.43051e+10 
            735     1.43286e+10 
            745     1.39519e+10 
            755     1.39047e+10 
            765     1.40971e+10 
            775     1.44338e+10 
            785     1.48509e+10 
            795       1.482e+10 
            805      1.4303e+10 
            815     1.42252e+10 
            825     1.48699e+10 
            835      1.2541e+10 
            845     1.42646e+10 
            855      1.4139e+10 
            865     1.45178e+10 
            875     1.45909e+10 
            885     1.47989e+10 
            895     1.48843e+10 
            905     1.44602e+10 
            915     1.49085e+10 
            925     4.17886e+10 
            935     6.66217e+10 
            945     9.22054e+10 
            955     1.01086e+11 
            965     1.16637e+11 
            975     4.95133e+10 
            985     9.72164e+10 
            995     8.74295e+10 
           1005      9.1405e+10 
           1015     9.46701e+10 
           1025     7.04854e+10 
           1035     9.06211e+10 
           1045     1.03722e+11 
           1055     9.85499e+10 
           1065     8.57271e+10 
           1075     8.86677e+10 
           1085     8.10149e+10 
           1095     8.62532e+10 
           1105     8.22524e+10 
           1115     8.08958e+10 
           1125     6.76111e+10 
           1135      7.7178e+10 
           1145     7.35255e+10 
           1155     7.05606e+10 
           1165     6.81609e+10 
           1175     4.65978e+10 
           1185     6.20592e+10 
           1195     6.02203e+10 
           1205     5.70611e+10 
           1215     4.29983e+10 
           1225     5.52306e+10 
           1235     5.89068e+10 
           1245     5.67394e+10 
           1255     5.63411e+10 
           1265     5.74549e+10 
           1275     5.84668e+10 
           1285      5.8117e+10 
           1295     5.37971e+10 
           1305     5.36704e+10 
           1315     5.61361e+10 
           1325     5.38692e+10 
           1335     5.22091e+10 
           1345       5.195e+10 
           1355     5.07018e+10 
           1365     4.87829e+10 
           1375     4.74602e+10 
           1385     4.59034e+10 
           1395     3.75234e+10 
           1405     3.81629e+10 
           1415     4.31139e+10 
           1425     3.88988e+10 
           1435     4.10735e+10 
           1442     4.07663e+10 
           1447     4.04256e+10 
           1455     3.86032e+10 
           1465     3.75742e+10 
           1475     3.75409e+10 
           1485     3.74214e+10 
           1495     3.61774e+10 
           1505     3.49831e+10 
           1512     3.40123e+10 
           1517     3.42026e+10 
           1525     3.31449e+10 
           1535     2.90626e+10 
           1545     2.54649e+10 
           1555     2.53285e+10 
           1565     2.77776e+10 
           1575     2.89538e+10 
           1585      2.9032e+10 
           1595     2.87446e+10 
           1605     2.72059e+10 
           1615     2.59658e+10 
           1625     2.64847e+10 
           1635     2.66141e+10 
           1645     2.62608e+10 
           1655     2.65359e+10 
           1665     2.60903e+10 
           1672     2.42727e+10 
           1677      2.7662e+10 
           1685     2.63623e+10 
           1695     2.54228e+10 
           1705     2.50049e+10 
           1715     2.39662e+10 
           1725     2.30485e+10 
           1735     2.37597e+10 
           1745     2.34387e+10 
           1755     2.30378e+10 
           1765     2.26759e+10 
           1775     2.19189e+10 
           1785     2.21127e+10 
           1795     2.16378e+10 
           1805      2.1556e+10 
           1815     2.08399e+10 
           1825      2.0559e+10 
           1835     2.04463e+10 
           1845     1.92857e+10 
           1855     1.94505e+10 
           1865     1.94407e+10 
           1875     1.90657e+10 
           1885     1.80454e+10 
           1895     1.75722e+10 
           1905     1.80162e+10 
           1915     1.74608e+10 
           1925     1.64239e+10 
           1935     1.72687e+10 
           1945     1.74213e+10 
           1955     1.59424e+10 
           1967     1.65586e+10 
           1976     1.68886e+10 
           1984     1.62062e+10 
           1995     1.57714e+10 
           2005     1.59781e+10 
           2015      1.5908e+10 
           2025      1.5857e+10 
           2035     1.51793e+10 
           2045     1.49898e+10 
           2055      1.2474e+10 
           2065     1.20619e+10 
           2074     1.24261e+10 
           2078      1.2223e+10 
           2085     1.27165e+10 
           2095     1.32468e+10 
           2105     1.37513e+10 
           2115     1.38102e+10 
           2125     1.35729e+10 
           2135     1.34188e+10 
           2145     1.31425e+10 
           2155      1.3149e+10 
           2165     1.26589e+10 
           2175     1.28063e+10 
           2185     1.24187e+10 
           2195      1.2567e+10 
           2205     1.23742e+10 
           2215     1.19318e+10 
           2225     1.19754e+10 
           2235     1.17758e+10 
           2245     1.16053e+10 
           2255      1.1227e+10 
           2265     1.13014e+10 
           2275     1.11659e+10 
           2285     1.09082e+10 
           2295       9.9879e+9 
           2305     1.04091e+10 
           2315     1.04016e+10 
           2325     1.03214e+10 
           2335     1.01523e+10 
           2345     1.00406e+10 
           2355      9.85769e+9 
           2365      9.71051e+9 
           2375      9.51537e+9 
           2385      9.16222e+9 
           2395      9.18767e+9 
           2405      9.14529e+9 
           2415      9.01803e+9 
           2425       8.9374e+9 
           2435      8.77011e+9 
           2445      8.67583e+9 
           2455      8.55717e+9 
           2465      8.44882e+9 
           2475       8.3241e+9 
           2485      8.13218e+9 
           2495      6.61407e+9 
           2505      7.82093e+9 
           2513      7.47533e+9 
           2518      7.64116e+9 
           2525      7.76725e+9 
           2535      7.69613e+9 
           2545      7.52642e+9 
           2555       7.4428e+9 
           2565      7.36255e+9 
           2575      7.27139e+9 
           2585      7.18592e+9 
           2595      7.07134e+9 
           2605      7.02049e+9 
           2615      6.89528e+9 
           2625      6.83464e+9 
           2635      6.75248e+9 
           2645       6.6439e+9 
           2655      6.56829e+9 
           2665      6.42414e+9 
           2675      6.30302e+9 
           2685      6.30998e+9 
           2695      6.15691e+9 
           2705      6.10169e+9 
           2715      6.02258e+9 
           2725      5.95664e+9 
           2735      5.81697e+9 
           2745      5.83616e+9 
           2755      5.76756e+9 
           2765      5.66383e+9 
           2775      5.65146e+9 
           2785      5.55946e+9 
           2795      5.38714e+9 
           2805       5.3962e+9 
           2815      5.37314e+9 
           2825      5.28277e+9 
           2835       5.1776e+9 
           2845       5.1799e+9 
           2855        5.103e+9 
           2865       5.0321e+9 
           2875       4.9771e+9 
           2885      4.91867e+9 
           2895      4.85778e+9 
           2910      4.75044e+9 
           2930      4.66869e+9 
           2950      4.52811e+9 
           2970         4.44e+9 
           2990      4.31464e+9 
           3010       4.1972e+9 
           3030      4.10094e+9 
           3050      4.03065e+9 
           3070      3.95812e+9 
           3090      3.83244e+9 
           3110      3.78202e+9 
           3130      3.68493e+9 
           3150      3.61095e+9 
           3170      3.52519e+9 
           3190      3.44495e+9 
           3210      3.36041e+9 
           3230      3.30115e+9 
           3250      3.24296e+9 
           3270      3.15476e+9 
           3290      3.09737e+9 
           3310      3.03169e+9 
           3330      2.95961e+9 
           3350      2.89181e+9 
           3370      2.83543e+9 
           3390      2.79148e+9 
           3410       2.7322e+9 
           3430      2.67603e+9 
           3450      2.60921e+9 
           3470      2.56291e+9 
           3490      2.51058e+9 
           3510      2.46279e+9 
           3530      2.42002e+9 
           3550       2.3691e+9 
           3570      2.32871e+9 
           3590       2.2691e+9 
           3610      2.22723e+9 
           3630      2.18266e+9 
           3640       2.1642e+9 
           3650        2.077e+9 
           3670      2.04477e+9 
           3690      2.00598e+9 
           3710      1.94095e+9 
           3730      1.89669e+9 
           3750      1.88813e+9 
           3770      1.84568e+9 
           3790      1.89761e+9 
           3810      1.93876e+9 
           3830      1.75155e+9 
           3850      1.93599e+9 
           3870      1.90263e+9 
           3890      1.64613e+9 
           3910      1.88504e+9 
           3930      1.83651e+9 
           3950      1.79485e+9 
           3970      1.51909e+9 
           3990      1.74381e+9 
           4010      1.72034e+9 
           4030      1.64662e+9 
           4050      1.66919e+9 
           4070      1.60636e+9 
           4090      1.51053e+9 
           4110      1.37932e+9 
           4130       1.5272e+9 
           4150      1.50948e+9 
           4170      1.49898e+9 
           4190      1.47105e+9 
           4210      1.44461e+9 
           4230      1.42713e+9 
           4250      1.39114e+9 
           4270       1.3594e+9 
           4290      1.33865e+9 
           4310       1.3038e+9 
           4330      1.21814e+9 
           4350      1.13374e+9 
           4370      1.24211e+9 
           4390      1.21471e+9 
           4410      1.20749e+9 
           4430      1.19671e+9 
           4450      1.17559e+9 
           4470      1.12757e+9 
           4490      1.13833e+9 
           4510       1.1172e+9 
           4530      1.10302e+9 
           4550      1.07854e+9 
           4570      1.06922e+9 
           4590      1.04911e+9 
           4610      1.02967e+9 
           4630      1.00781e+9 
           4650      9.64487e+8 
           4670      9.78527e+8 
           4690      9.56309e+8 
           4710      9.40529e+8 
           4730      9.42695e+8 
           4750      9.26675e+8 
           4770      9.16785e+8 
           4790      9.02035e+8 
           4810      8.85968e+8 
           4830      8.67439e+8 
           4850      8.19828e+8 
           4870       7.4768e+8 
           4890      8.27944e+8 
           4910      8.18416e+8 
           4930      7.93933e+8 
           4950      7.92942e+8 
           4970       7.8575e+8 
           4990      7.73699e+8 
           5010      7.49448e+8 
           5030      7.48682e+8 
           5050      7.35703e+8 
           5070      7.28957e+8 
           5090      7.17685e+8 
           5110      7.06812e+8 
           5130      6.95443e+8 
           5150      6.85535e+8 
           5170      6.75914e+8 
           5190      6.66938e+8 
           5210      6.57609e+8 
           5230      6.48154e+8 
           5250      6.37771e+8 
           5270      6.28518e+8 
           5290       6.2088e+8 
           5310      6.12003e+8 
           5330      6.03493e+8 
           5350      5.94962e+8 
           5370      5.86737e+8 
           5390      5.78254e+8 
           5410      5.66405e+8 
           5430      5.62688e+8 
           5450      5.54811e+8 
           5470       5.4711e+8 
           5490      5.39619e+8 
           5510      5.32358e+8 
           5530      5.24942e+8 
           5550      5.18169e+8 
           5570      5.11018e+8 
           5590      5.03534e+8 
           5610       4.9752e+8 
           5630      4.90913e+8 
           5650      4.84069e+8 
           5670      4.76828e+8 
           5690      4.66244e+8 
           5710      4.58189e+8 
           5730      4.52586e+8 
           5750      4.46025e+8 
           5770      4.41263e+8 
           5790      4.35411e+8 
           5810      4.29461e+8 
           5830      4.23471e+8 
           5850      4.19238e+8 
           5870      4.04917e+8 
           5890      4.07949e+8 
           5910      4.04232e+8 
           5930      3.99507e+8 
           5950      3.94963e+8 
           5970      3.91286e+8 
           5990      3.86336e+8 
           6010      3.82673e+8 
           6030      3.77673e+8 
           6050      3.73235e+8 
           6070      3.68806e+8 
           6090      3.64295e+8 
           6110      3.59674e+8 
           6130      3.55356e+8 
           6150      3.50369e+8 
           6170      3.46251e+8 
           6190      3.42365e+8 
           6210      3.38337e+8 
           6230      3.34178e+8 
           6250      3.29892e+8 
           6270      3.26075e+8 
           6290      3.22253e+8 
           6310      3.18151e+8 
           6330      3.14573e+8 
           6350      3.10633e+8 
           6370      3.07144e+8 
           6390      3.03462e+8 
           6410      2.99784e+8 
           6430      2.96382e+8 
           6450      2.92781e+8 
           6470      2.88868e+8 
           6490      2.85659e+8 
           6510      2.82262e+8 
           6530      2.77947e+8 
           6550       2.6885e+8 
           6570      2.42918e+8 
           6590      2.67209e+8 
           6610      2.66319e+8 
           6630      2.63609e+8 
           6650      2.60527e+8 
           6670      2.55173e+8 
           6690      2.52193e+8 
           6710      2.51521e+8 
           6730      2.48456e+8 
           6750      2.46002e+8 
           6770      2.43465e+8 
           6790      2.40121e+8 
           6810       2.3799e+8 
           6830      2.35306e+8 
           6850      2.32762e+8 
           6870      2.30107e+8 
           6890      2.27107e+8 
           6910      2.24721e+8 
           6930      2.22704e+8 
           6950      2.20254e+8 
           6970      2.17852e+8 
           6990      2.15466e+8 
           7010      2.13035e+8 
           7030      2.10506e+8 
           7050      2.08396e+8 
           7070      2.03563e+8 
           7090      2.04058e+8 
           7110      2.01629e+8 
           7130      1.99559e+8 
           7150      1.97589e+8 
           7170      1.95242e+8 
           7190      1.93298e+8 
           7210      1.91365e+8 
           7230       1.8808e+8 
           7250      1.87137e+8 
           7270      1.85375e+8 
           7290      1.82247e+8 
           7310      1.81469e+8 
           7330       1.7959e+8 
           7350      1.77742e+8 
           7370      1.75912e+8 
           7390      1.74092e+8 
           7410      1.72296e+8 
           7430      1.70523e+8 
           7450       1.6876e+8 
           7470      1.66764e+8 
           7490      1.65069e+8 
           7510      1.63617e+8 
           7530      1.61931e+8 
           7550      1.60367e+8 
           7570      1.58726e+8 
           7590      1.56772e+8 
           7610      1.55357e+8 
           7630      1.53948e+8 
           7650      1.52417e+8 
           7670      1.50932e+8 
           7690      1.49281e+8 
           7710      1.47855e+8 
           7730      1.46258e+8 
           7750      1.45022e+8 
           7770       1.4359e+8 
           7790      1.42195e+8 
           7810      1.40751e+8 
           7830      1.39425e+8 
           7850      1.38116e+8 
           7870      1.36624e+8 
           7890      1.35243e+8 
           7910       1.3409e+8 
           7930      1.32768e+8 
           7950      1.31558e+8 
           7970      1.30205e+8 
           7990      1.29023e+8 
           8010      1.27757e+8 
           8030      1.26496e+8 
           8050      1.25345e+8 
           8070      1.24146e+8 
           8090      1.22854e+8 
           8110      1.21343e+8 
           8130      1.20656e+8 
           8150      1.19412e+8 
           8170      1.18394e+8 
           8190      1.16895e+8 
           8210      1.15231e+8 
           8230      1.13982e+8 
           8250      1.13291e+8 
           8270      1.11736e+8 
           8290      1.11198e+8 
           8310      1.10265e+8 
           8330      1.09117e+8 
           8350      1.07768e+8 
           8370      1.07076e+8 
           8390      1.06272e+8 
           8410      1.05267e+8 
           8430      1.04317e+8 
           8450      1.02922e+8 
           8470      1.02436e+8 
           8490      1.01379e+8 
           8510      1.00253e+8 
           8530      9.95452e+7 
           8550      9.83895e+7 
           8570      9.82334e+7 
           8590      9.58824e+7 
