# Kurucz ODFNEW /NOVER (2003)
# teff = 22000 K (value for the effective temperature for the model. Temperatures are given in K)
# logg = 4.5 log(cm/s2) (value for Log(G) for the model.)
# meta = 0.2  (value for the Metallicity for the model.)
# lh = 1.25  (l/Hp where l is the  mixing length of the convective element and Hp is the pressure scale height)
# vtur = 2 km/s (Microturbulence velocity)
# alpha = 0.4  (Alpha)
#
# column 1: WAVELENGTH (ANGSTROM), Wavelength in Angstrom
# column 2: FLUX (ERG/CM2/S/A), Flux in erg/cm2/s/A
          147.2     6.47406e-17 
            151     3.16042e-16 
          155.2     1.66867e-15 
          158.8     6.48617e-15 
            162     2.06567e-14 
            166     8.26874e-14 
          170.3     3.40734e-13 
          173.4     9.13659e-13 
          176.8     2.58157e-12 
          180.2     7.02515e-12 
          181.7     1.07924e-11 
          186.1      3.6722e-11 
            191     1.35074e-10 
          193.9       2.833e-10 
          198.4     8.57693e-10 
          201.8       1.9205e-9 
            205      4.00817e-9 
          210.5      1.35115e-8 
          216.2      4.47554e-8 
          219.8      9.25213e-8 
            223      1.73149e-7 
          226.8      3.56638e-7 
            230      4.95944e-6 
            234      1.19549e-5 
            240      3.22647e-5 
          246.5      8.90266e-5 
          252.4     0.000215923 
          256.8     0.000395905 
            260     0.000639103 
            264      0.00109263 
          268.5      0.00196312 
          273.5      0.00365709 
          278.5       0.0067412 
            284        0.013259 
            290       0.0258577 
            296       0.0491164 
            301       0.0822059 
            308        0.167845 
            318        0.438258 
            328         1.02989 
            338          2.4141 
            348         5.24977 
            357         13.5038 
            366         25.9944 
            375         45.4245 
            385         83.8171 
            395         151.281 
            405         259.651 
            414         418.632 
            422         613.525 
            430         906.147 
            441         1497.44 
            451         2318.34 
            460         3333.06 
            470         4973.37 
            480         7234.87 
            490         10456.5 
            500         14849.2 
            506          100399 
            512          801188 
            520          975289 
            530      1.30752e+6 
            540      1.45834e+6 
            550       2.1534e+6 
            560      2.56455e+6 
            570      3.26499e+6 
            580      3.30366e+6 
            590      4.52097e+6 
            600      5.38524e+6 
            610      6.61681e+6 
            620      7.39483e+6 
            630      8.33892e+6 
            640      8.34084e+6 
            650      6.79896e+6 
            658       1.0431e+7 
            665      1.24675e+7 
            675      1.38612e+7 
            685      1.50876e+7 
            695      1.88737e+7 
            705       2.0193e+7 
            716      2.31884e+7 
            726      2.49256e+7 
            735      2.69724e+7 
            745      3.08802e+7 
            755      3.39841e+7 
            765      3.73765e+7 
            775      4.11776e+7 
            785      4.48823e+7 
            795       4.7472e+7 
            805      5.08862e+7 
            815      5.42397e+7 
            825      5.95848e+7 
            835      5.73071e+7 
            845       6.5345e+7 
            855      6.93602e+7 
            865      7.49154e+7 
            875       8.0574e+7 
            885      8.82198e+7 
            895      9.38596e+7 
            905      9.40599e+7 
            915      1.35964e+8 
            925      6.64145e+8 
            935       1.8031e+9 
            945      5.10152e+9 
            955      8.70915e+9 
            965     1.15111e+10 
            975      1.71719e+9 
            985     1.18188e+10 
            995     1.13123e+10 
           1005     1.42408e+10 
           1015     1.34203e+10 
           1025      3.74461e+9 
           1035      9.16129e+9 
           1045      1.8312e+10 
           1055     1.70895e+10 
           1065     1.23692e+10 
           1075     1.56573e+10 
           1085     1.40647e+10 
           1095     1.63015e+10 
           1105     1.33244e+10 
           1115     1.16286e+10 
           1125     1.02435e+10 
           1135     1.48446e+10 
           1145     1.22269e+10 
           1155      1.3503e+10 
           1165     1.38462e+10 
           1175       8.8213e+9 
           1185     1.37023e+10 
           1195      9.59562e+9 
           1205      4.22568e+9 
           1215      3.20401e+9 
           1225      8.19321e+9 
           1235     1.28042e+10 
           1245     1.31216e+10 
           1255     1.27093e+10 
           1265     1.22222e+10 
           1275     1.27731e+10 
           1285     1.30551e+10 
           1295      6.79541e+9 
           1305      6.57022e+9 
           1315     1.22675e+10 
           1325     1.13876e+10 
           1335     1.05923e+10 
           1345     1.12826e+10 
           1355      1.1178e+10 
           1365      9.58876e+9 
           1375      9.53568e+9 
           1385      9.46819e+9 
           1395      6.84318e+9 
           1405      7.58392e+9 
           1415      8.31195e+9 
           1425      8.60627e+9 
           1435      8.74982e+9 
           1442      9.21983e+9 
           1447      9.05439e+9 
           1455      8.77696e+9 
           1465      8.04354e+9 
           1475      8.10368e+9 
           1485      7.87395e+9 
           1495      7.83774e+9 
           1505      6.91977e+9 
           1512      6.27365e+9 
           1517        6.584e+9 
           1525      6.85026e+9 
           1535      5.88959e+9 
           1545      5.90971e+9 
           1555      5.67924e+9 
           1565      5.96221e+9 
           1575       6.3636e+9 
           1585      6.35494e+9 
           1595      6.37931e+9 
           1605      6.45494e+9 
           1615      6.40587e+9 
           1625      6.16392e+9 
           1635      6.54451e+9 
           1645      6.51739e+9 
           1655       6.2155e+9 
           1665      6.56981e+9 
           1672      6.30361e+9 
           1677      6.60365e+9 
           1685      6.58382e+9 
           1695      6.18759e+9 
           1705       5.8944e+9 
           1715       5.5401e+9 
           1725      5.46415e+9 
           1735      5.75239e+9 
           1745      5.56182e+9 
           1755      5.65102e+9 
           1765      5.38993e+9 
           1775      5.18851e+9 
           1785      5.23175e+9 
           1795      5.53164e+9 
           1805      5.55712e+9 
           1815      4.90218e+9 
           1825      5.16633e+9 
           1835      4.88876e+9 
           1845      4.46561e+9 
           1855      4.39941e+9 
           1865      4.46457e+9 
           1875      4.81592e+9 
           1885      4.27746e+9 
           1895      3.98904e+9 
           1905      4.35691e+9 
           1915      4.04371e+9 
           1925        3.885e+9 
           1935      4.10373e+9 
           1945      4.13394e+9 
           1955      3.78422e+9 
           1967      4.15298e+9 
           1976      4.32741e+9 
           1984      3.97521e+9 
           1995      3.90007e+9 
           2005      4.05207e+9 
           2015      3.88826e+9 
           2025      4.12171e+9 
           2035      3.74835e+9 
           2045      3.83447e+9 
           2055      3.68663e+9 
           2065      3.72672e+9 
           2074      3.86567e+9 
           2078      3.53026e+9 
           2085      3.72793e+9 
           2095      3.49578e+9 
           2105      3.60029e+9 
           2115      3.60928e+9 
           2125      3.65198e+9 
           2135      3.54553e+9 
           2145      3.39235e+9 
           2155      3.54095e+9 
           2165       3.5063e+9 
           2175       3.4555e+9 
           2185      3.33517e+9 
           2195      3.38805e+9 
           2205      3.34196e+9 
           2215      3.27254e+9 
           2225      3.15751e+9 
           2235      3.17879e+9 
           2245      3.18731e+9 
           2255      3.05257e+9 
           2265      3.12863e+9 
           2275      3.09106e+9 
           2285      3.09596e+9 
           2295      2.89916e+9 
           2305      2.96057e+9 
           2315      2.86524e+9 
           2325      2.82588e+9 
           2335      2.69545e+9 
           2345      2.70074e+9 
           2355      2.70468e+9 
           2365      2.64623e+9 
           2375      2.63394e+9 
           2385      2.59223e+9 
           2395      2.61976e+9 
           2405       2.5263e+9 
           2415      2.52952e+9 
           2425      2.54124e+9 
           2435      2.44423e+9 
           2445      2.46909e+9 
           2455      2.46589e+9 
           2465      2.41412e+9 
           2475      2.37435e+9 
           2485      2.37444e+9 
           2495      2.20027e+9 
           2505      2.31764e+9 
           2513      2.20191e+9 
           2518      2.28854e+9 
           2525      2.22393e+9 
           2535      2.19839e+9 
           2545      2.10455e+9 
           2555      2.17121e+9 
           2565      2.13748e+9 
           2575      2.16784e+9 
           2585      2.15324e+9 
           2595      2.13606e+9 
           2605      2.10909e+9 
           2615       2.0877e+9 
           2625       2.0686e+9 
           2635      2.05466e+9 
           2645      2.05677e+9 
           2655      2.04531e+9 
           2665      1.96018e+9 
           2675      1.98404e+9 
           2685      1.97107e+9 
           2695      1.90983e+9 
           2705      1.89404e+9 
           2715      1.87827e+9 
           2725      1.85345e+9 
           2735      1.86254e+9 
           2745       1.7855e+9 
           2755      1.78536e+9 
           2765      1.77553e+9 
           2775      1.79734e+9 
           2785      1.76799e+9 
           2795      1.67898e+9 
           2805      1.71783e+9 
           2815      1.72585e+9 
           2825      1.69576e+9 
           2835      1.62471e+9 
           2845      1.64291e+9 
           2855       1.6318e+9 
           2865       1.6392e+9 
           2875      1.61537e+9 
           2885      1.60057e+9 
           2895       1.5818e+9 
           2910      1.55392e+9 
           2930      1.52414e+9 
           2950       1.4822e+9 
           2970      1.46743e+9 
           2990      1.43135e+9 
           3010      1.39746e+9 
           3030      1.38724e+9 
           3050      1.35963e+9 
           3070      1.33669e+9 
           3090      1.29301e+9 
           3110      1.27936e+9 
           3130      1.25518e+9 
           3150      1.23287e+9 
           3170      1.20353e+9 
           3190      1.17109e+9 
           3210      1.16155e+9 
           3230      1.13883e+9 
           3250      1.12129e+9 
           3270      1.10036e+9 
           3290      1.07891e+9 
           3310      1.06158e+9 
           3330       1.0402e+9 
           3350       1.0199e+9 
           3370      1.00192e+9 
           3390      9.86071e+8 
           3410       9.6903e+8 
           3430      9.47163e+8 
           3450      9.26876e+8 
           3470      9.11905e+8 
           3490      8.95112e+8 
           3510      8.81576e+8 
           3530      8.69166e+8 
           3550      8.54229e+8 
           3570      8.44271e+8 
           3590      8.19398e+8 
           3610      8.07626e+8 
           3630      7.95349e+8 
           3640      7.95563e+8 
           3650      7.85045e+8 
           3670      7.76456e+8 
           3690      7.62639e+8 
           3710       7.3361e+8 
           3730      7.01908e+8 
           3750      7.25089e+8 
           3770       7.2049e+8 
           3790      7.67669e+8 
           3810      8.04969e+8 
           3830      6.93368e+8 
           3850       8.2808e+8 
           3870      8.41402e+8 
           3890      6.52152e+8 
           3910      8.42806e+8 
           3930      8.17614e+8 
           3950      8.11384e+8 
           3970      6.07346e+8 
           3990      7.74917e+8 
           4010      7.83841e+8 
           4030      7.27739e+8 
           4050      7.64047e+8 
           4070      7.27764e+8 
           4090      6.64024e+8 
           4110      5.76777e+8 
           4130      6.87844e+8 
           4150       6.8777e+8 
           4170      6.87233e+8 
           4190      6.81268e+8 
           4210      6.76022e+8 
           4230      6.61412e+8 
           4250      6.44043e+8 
           4270      6.22032e+8 
           4290      6.19746e+8 
           4310      6.01555e+8 
           4330      5.34143e+8 
           4350      4.84149e+8 
           4370      5.69526e+8 
           4390      5.56998e+8 
           4410       5.6389e+8 
           4430      5.56507e+8 
           4450      5.51249e+8 
           4470      5.14708e+8 
           4490      5.29287e+8 
           4510      5.30289e+8 
           4530        5.191e+8 
           4550      5.12472e+8 
           4570      5.04497e+8 
           4590      4.96355e+8 
           4610      4.85889e+8 
           4630      4.77992e+8 
           4650      4.66867e+8 
           4670      4.65019e+8 
           4690      4.61541e+8 
           4710       4.4007e+8 
           4730      4.42688e+8 
           4750       4.3623e+8 
           4770      4.36652e+8 
           4790      4.28153e+8 
           4810       4.1685e+8 
           4830      4.07833e+8 
           4850      3.70267e+8 
           4870      3.27267e+8 
           4890      3.90891e+8 
           4910      3.89073e+8 
           4930      3.72825e+8 
           4950      3.79566e+8 
           4970      3.76853e+8 
           4990      3.70434e+8 
           5010      3.53299e+8 
           5030      3.58431e+8 
           5050      3.47118e+8 
           5070      3.50233e+8 
           5090       3.4436e+8 
           5110      3.38438e+8 
           5130      3.31266e+8 
           5150       3.2732e+8 
           5170      3.25878e+8 
           5190      3.21245e+8 
           5210      3.13107e+8 
           5230       3.1299e+8 
           5250      3.08915e+8 
           5270      3.03794e+8 
           5290      3.01003e+8 
           5310      2.96602e+8 
           5330      2.91662e+8 
           5350       2.8684e+8 
           5370      2.85151e+8 
           5390      2.81223e+8 
           5410      2.77153e+8 
           5430      2.72547e+8 
           5450      2.69193e+8 
           5470      2.65151e+8 
           5490      2.63097e+8 
           5510      2.59702e+8 
           5530      2.55917e+8 
           5550      2.53171e+8 
           5570      2.49559e+8 
           5590       2.4692e+8 
           5610       2.4308e+8 
           5630      2.40893e+8 
           5650      2.34647e+8 
           5670      2.31565e+8 
           5690       2.2966e+8 
           5710      2.28054e+8 
           5730      2.25662e+8 
           5750      2.22352e+8 
           5770      2.20371e+8 
           5790      2.17559e+8 
           5810      2.14602e+8 
           5830       2.1178e+8 
           5850      2.09399e+8 
           5870       1.9937e+8 
           5890      2.02014e+8 
           5910      2.01264e+8 
           5930      1.98987e+8 
           5950      1.95609e+8 
           5970      1.94744e+8 
           5990      1.91609e+8 
           6010      1.90158e+8 
           6030      1.87624e+8 
           6050      1.85532e+8 
           6070      1.83391e+8 
           6090       1.8099e+8 
           6110       1.7908e+8 
           6130      1.77112e+8 
           6150      1.73392e+8 
           6170      1.72527e+8 
           6190      1.70892e+8 
           6210      1.68895e+8 
           6230      1.66968e+8 
           6250       1.6429e+8 
           6270      1.62822e+8 
           6290      1.61036e+8 
           6310      1.58881e+8 
           6330      1.57484e+8 
           6350      1.54448e+8 
           6370      1.53312e+8 
           6390       1.5193e+8 
           6410      1.50185e+8 
           6430      1.48906e+8 
           6450      1.46979e+8 
           6470      1.44965e+8 
           6490      1.43545e+8 
           6510      1.41624e+8 
           6530      1.39239e+8 
           6550      1.31163e+8 
           6570      1.14568e+8 
           6590      1.32629e+8 
           6610      1.33819e+8 
           6630      1.32944e+8 
           6650      1.31533e+8 
           6670      1.28526e+8 
           6690      1.27296e+8 
           6710      1.27392e+8 
           6730      1.25862e+8 
           6750      1.24779e+8 
           6770      1.23475e+8 
           6790      1.21082e+8 
           6810      1.20616e+8 
           6830       1.1924e+8 
           6850       1.1824e+8 
           6870      1.16977e+8 
           6890       1.1568e+8 
           6910       1.1442e+8 
           6930      1.13133e+8 
           6950      1.12155e+8 
           6970      1.11001e+8 
           6990      1.09788e+8 
           7010       1.0858e+8 
           7030      1.07467e+8 
           7050      1.06313e+8 
           7070       1.0333e+8 
           7090       1.0421e+8 
           7110       1.0267e+8 
           7130      1.01658e+8 
           7150      1.00876e+8 
           7170      9.99846e+7 
           7190      9.90356e+7 
           7210      9.80521e+7 
           7230      9.55212e+7 
           7250       9.5855e+7 
           7270      9.50931e+7 
           7290      9.33103e+7 
           7310       9.3167e+7 
           7330      9.22526e+7 
           7350      9.13676e+7 
           7370      9.04632e+7 
           7390      8.95603e+7 
           7410      8.86796e+7 
           7430      8.76023e+7 
           7450      8.68746e+7 
           7470      8.57147e+7 
           7490      8.51098e+7 
           7510      8.43365e+7 
           7530      8.34904e+7 
           7550      8.27645e+7 
           7570      8.19859e+7 
           7590      8.11228e+7 
           7610      8.03587e+7 
           7630      7.96208e+7 
           7650      7.88639e+7 
           7670      7.81137e+7 
           7690      7.73639e+7 
           7710      7.66335e+7 
           7730      7.58655e+7 
           7750      7.51859e+7 
           7770      7.36575e+7 
           7790      7.37702e+7 
           7810      7.30408e+7 
           7830      7.23977e+7 
           7850      7.14546e+7 
           7870      7.08486e+7 
           7890      6.99271e+7 
           7910      6.97124e+7 
           7930      6.91036e+7 
           7950      6.80709e+7 
           7970      6.76644e+7 
           7990      6.66357e+7 
           8010       6.6456e+7 
           8030      6.58332e+7 
           8050      6.51926e+7 
           8070        6.465e+7 
           8090      6.39912e+7 
           8110      6.33323e+7 
           8130      6.28957e+7 
           8150      6.23321e+7 
           8170      6.18637e+7 
           8190      6.11182e+7 
           8210      6.04407e+7 
           8230      5.97858e+7 
           8250      5.96568e+7 
           8270      5.86966e+7 
           8290      5.85672e+7 
           8310      5.80401e+7 
           8330      5.75717e+7 
           8350      5.67613e+7 
           8370      5.63829e+7 
           8390      5.60662e+7 
           8410      5.55655e+7 
           8430      5.50159e+7 
           8450      5.38166e+7 
           8470      5.40511e+7 
           8490      5.33839e+7 
           8510      5.29304e+7 
           8530      5.25271e+7 
           8550      5.15226e+7 
           8570        5.212e+7 
