# Kurucz ODFNEW /NOVER (2003)
# teff = 8000 K (value for the effective temperature for the model. Temperatures are given in K)
# logg = 2.5 log(cm/s2) (value for Log(G) for the model.)
# meta = 0.5  (value for the Metallicity for the model.)
# lh = 1.25  (l/Hp where l is the  mixing length of the convective element and Hp is the pressure scale height)
# vtur = 2 km/s (Microturbulence velocity)
# alpha = 0.4  (Alpha)
#
# column 1: WAVELENGTH (ANGSTROM), Wavelength in Angstrom
# column 2: FLUX (ERG/CM2/S/A), Flux in erg/cm2/s/A
            357     2.80984e-24 
            366     7.49038e-23 
            375     5.35391e-22 
            385     4.04878e-21 
            395     2.74655e-20 
            405     1.10689e-20 
            414     4.85803e-20 
            422     1.70925e-19 
            430     5.72062e-19 
            441     2.79311e-18 
            451     1.09842e-17 
            460     3.56807e-17 
            470     1.24865e-16 
            480     4.13209e-16 
            490       1.298e-15 
            500      3.8782e-15 
            506     9.65233e-15 
            512     2.02072e-14 
            520     4.48815e-14 
            530     1.18098e-13 
            540     2.93218e-13 
            550     7.15225e-13 
            560     1.67402e-12 
            570     3.78747e-12 
            580      8.2054e-12 
            590      1.7686e-11 
            600     3.66202e-11 
            610     7.41715e-11 
            620     1.45929e-10 
            630      2.8054e-10 
            640     5.26538e-10 
            650      9.7058e-10 
            658      1.55786e-9 
            665      2.31537e-9 
            675      4.06525e-9 
            685      7.01457e-9 
            695      1.18683e-8 
            705      1.94449e-8 
            716      3.38498e-8 
            726      5.44635e-8 
            735      8.24764e-8 
            745      1.28639e-7 
            755      1.98607e-7 
            765       3.0316e-7 
            775      4.56811e-7 
            785       6.8349e-7 
            795      9.89472e-7 
            805      1.44076e-6 
            815      2.10358e-6 
            825      3.00653e-6 
            835      4.24546e-6 
            845      5.94832e-6 
            855      8.25324e-6 
            865      1.13503e-5 
            875      1.52881e-5 
            885      2.09181e-5 
            895      2.80789e-5 
            905      3.69639e-5 
            915       0.0144928 
            925        0.042177 
            935       0.0555641 
            945       0.0746055 
            955        0.104308 
            965        0.139174 
            975        0.177089 
            985        0.226766 
            995        0.282605 
           1005        0.383024 
           1015        0.490629 
           1025        0.599576 
           1035        0.771834 
           1045         0.97354 
           1055          1.2181 
           1065         1.48622 
           1075         1.86467 
           1085         2.30779 
           1095         2.77366 
           1105          9.1817 
           1115         31.1662 
           1125          45.849 
           1135         63.8983 
           1145         80.9565 
           1155         89.5633 
           1165         123.701 
           1175          148.13 
           1185         153.007 
           1195         68.6226 
           1205         109.115 
           1215         25.6321 
           1225         133.354 
           1235         277.084 
           1245          674.31 
           1255         1538.04 
           1265         1125.09 
           1275         2280.76 
           1285         3206.67 
           1295         3750.39 
           1305         2150.45 
           1315         4494.02 
           1325         5459.24 
           1335         5791.01 
           1345         7306.45 
           1355         7436.61 
           1365         7906.52 
           1375         8596.55 
           1385         9602.13 
           1395           11058 
           1405         12292.2 
           1415           12511 
           1425         14143.2 
           1435         14121.9 
           1442         16310.1 
           1447         17599.4 
           1455         19669.1 
           1465         19884.2 
           1475         21613.7 
           1485         24010.8 
           1495         27230.4 
           1505           29822 
           1512         30162.8 
           1517         32714.5 
           1525         36987.3 
           1535         69387.7 
           1545          154413 
           1555          151681 
           1565          145753 
           1575          241411 
           1585          312948 
           1595          427563 
           1605          385266 
           1615          346408 
           1625          294050 
           1635          340677 
           1645          474235 
           1655          270805 
           1665          430499 
           1672          189120 
           1677          706834 
           1685      1.62874e+6 
           1695      2.33785e+6 
           1705      3.42164e+6 
           1715      6.39008e+6 
           1725      6.89935e+6 
           1735      9.52216e+6 
           1745      7.97967e+6 
           1755      1.13296e+7 
           1765      7.30282e+6 
           1775      1.09304e+7 
           1785      8.83313e+6 
           1795      1.42085e+7 
           1805      1.00607e+7 
           1815      1.18123e+7 
           1825      9.47845e+6 
           1835      8.30942e+6 
           1845      7.83401e+6 
           1855      1.00602e+7 
           1865      1.18719e+7 
           1875      1.06022e+7 
           1885       1.1175e+7 
           1895      1.28041e+7 
           1905       1.0789e+7 
           1915       1.1782e+7 
           1925      1.12746e+7 
           1935      6.93527e+6 
           1945      1.29908e+7 
           1955      1.33747e+7 
           1967      1.53999e+7 
           1976      1.46096e+7 
           1984      1.37522e+7 
           1995      1.37212e+7 
           2005      1.27366e+7 
           2015      1.10749e+7 
           2025      1.08371e+7 
           2035      1.32681e+7 
           2045      1.50862e+7 
           2055      1.23277e+7 
           2065      1.22378e+7 
           2074      1.59153e+7 
           2078      1.76915e+7 
           2085      1.66075e+7 
           2095      1.50794e+7 
           2105      1.37173e+7 
           2115       1.3971e+7 
           2125      1.41602e+7 
           2135      1.03996e+7 
           2145      1.35543e+7 
           2155      1.42019e+7 
           2165       1.1995e+7 
           2175      1.24456e+7 
           2185      1.31699e+7 
           2195      1.47266e+7 
           2205       1.3507e+7 
           2215      1.05957e+7 
           2225      1.01126e+7 
           2235      1.36755e+7 
           2245      1.22489e+7 
           2255      9.74824e+6 
           2265      9.98252e+6 
           2275      1.18355e+7 
           2285       1.2554e+7 
           2295      1.10501e+7 
           2305      1.18166e+7 
           2315      1.07327e+7 
           2325      1.00259e+7 
           2335      6.59401e+6 
           2345      4.89924e+6 
           2355      8.70971e+6 
           2365      4.86886e+6 
           2375      6.81912e+6 
           2385      3.74449e+6 
           2395      5.16497e+6 
           2405      4.90254e+6 
           2415      6.38096e+6 
           2425       1.0334e+7 
           2435      9.74796e+6 
           2445      1.08002e+7 
           2455      1.08087e+7 
           2465      1.01731e+7 
           2475      9.45448e+6 
           2485      9.81047e+6 
           2495      9.26357e+6 
           2505        1.261e+7 
           2513      8.82651e+6 
           2518      9.42073e+6 
           2525       7.1805e+6 
           2535      6.81677e+6 
           2545      7.29609e+6 
           2555      9.91277e+6 
           2565       8.1453e+6 
           2575      9.89745e+6 
           2585      9.23976e+6 
           2595      8.16002e+6 
           2605      7.05768e+6 
           2615       6.5493e+6 
           2625      8.91221e+6 
           2635      1.10525e+7 
           2645      1.61429e+7 
           2655      1.69258e+7 
           2665      1.25751e+7 
           2675       1.4514e+7 
           2685      1.38929e+7 
           2695      1.30478e+7 
           2705      1.42016e+7 
           2715      1.19879e+7 
           2725      1.20802e+7 
           2735      1.31866e+7 
           2745      7.17158e+6 
           2755      8.41558e+6 
           2765      9.59067e+6 
           2775        1.121e+7 
           2785       7.1628e+6 
           2795      2.40104e+6 
           2805      3.13903e+6 
           2815      9.52399e+6 
           2825      1.40526e+7 
           2835      1.41646e+7 
           2845      1.38311e+7 
           2855      1.17312e+7 
           2865      1.53478e+7 
           2875      1.48069e+7 
           2885       1.5253e+7 
           2895      1.42614e+7 
           2910      1.77525e+7 
           2930      1.62516e+7 
           2950       1.6338e+7 
           2970      1.80376e+7 
           2990      1.81304e+7 
           3010      1.91589e+7 
           3030      1.88326e+7 
           3050      1.85795e+7 
           3070      1.85325e+7 
           3090      1.96439e+7 
           3110      1.87268e+7 
           3130      1.86136e+7 
           3150      1.95322e+7 
           3170      1.91081e+7 
           3190      1.74861e+7 
           3210      1.88133e+7 
           3230      1.73117e+7 
           3250      1.88438e+7 
           3270      1.95755e+7 
           3290      1.97165e+7 
           3310      2.03826e+7 
           3330      1.96072e+7 
           3350      1.92029e+7 
           3370      1.87842e+7 
           3390      1.94208e+7 
           3410      2.00632e+7 
           3430      2.03986e+7 
           3450      2.02097e+7 
           3470      1.98313e+7 
           3490      1.95629e+7 
           3510      2.04108e+7 
           3530      2.04492e+7 
           3550      2.14284e+7 
           3570      1.99619e+7 
           3590      2.00006e+7 
           3610      2.01872e+7 
           3630      2.04282e+7 
           3640      1.99078e+7 
           3650      2.11766e+7 
           3670      2.08026e+7 
           3690      2.04347e+7 
           3710      2.42248e+7 
           3730      2.75597e+7 
           3750      3.85369e+7 
           3770      4.26378e+7 
           3790      5.55176e+7 
           3810      6.48242e+7 
           3830      4.95897e+7 
           3850      6.87123e+7 
           3870      7.72279e+7 
           3890      4.50618e+7 
           3910      7.19004e+7 
           3930      4.19027e+7 
           3950      6.47122e+7 
           3970      3.28902e+7 
           3990      7.20183e+7 
           4010      7.80069e+7 
           4030       7.6193e+7 
           4050      7.56468e+7 
           4070      7.37362e+7 
           4090      6.43576e+7 
           4110      4.89732e+7 
           4130      7.09864e+7 
           4150      7.42828e+7 
           4170      7.18626e+7 
           4190      7.15215e+7 
           4210      7.10009e+7 
           4230      6.89899e+7 
           4250      6.92431e+7 
           4270      6.58459e+7 
           4290      6.70572e+7 
           4310      6.17698e+7 
           4330       5.2275e+7 
           4350       4.4232e+7 
           4370       6.3938e+7 
           4390      6.29462e+7 
           4410      6.14604e+7 
           4430      6.03384e+7 
           4450      6.15266e+7 
           4470      6.16259e+7 
           4490      6.06352e+7 
           4510      6.25138e+7 
           4530      5.89449e+7 
           4550      5.81549e+7 
           4570      6.05855e+7 
           4590      5.73514e+7 
           4610      5.95954e+7 
           4630      5.70905e+7 
           4650      5.78636e+7 
           4670      5.75418e+7 
           4690      5.51064e+7 
           4710      5.29616e+7 
           4730      5.53857e+7 
           4750      5.53494e+7 
           4770      5.39689e+7 
           4790      5.36456e+7 
           4810      5.23944e+7 
           4830      5.15464e+7 
           4850       4.1447e+7 
           4870      3.25726e+7 
           4890       4.8605e+7 
           4910      4.95272e+7 
           4930      4.83139e+7 
           4950      4.93311e+7 
           4970      4.95968e+7 
           4990      4.68308e+7 
           5010      4.41972e+7 
           5030      4.56228e+7 
           5050      4.50376e+7 
           5070      4.60196e+7 
           5090      4.53839e+7 
           5110       4.5263e+7 
           5130        4.384e+7 
           5150      4.26096e+7 
           5170      4.19282e+7 
           5190      4.13022e+7 
           5210      4.13521e+7 
           5230      4.09483e+7 
           5250      4.15117e+7 
           5270      3.79959e+7 
           5290      4.05376e+7 
           5310      3.94512e+7 
           5330      3.77579e+7 
           5350      3.95031e+7 
           5370      3.92238e+7 
           5390      3.83705e+7 
           5410      3.73291e+7 
           5430      3.74265e+7 
           5450      3.80604e+7 
           5470      3.74124e+7 
           5490      3.68829e+7 
           5510      3.64592e+7 
           5530      3.63734e+7 
           5550      3.63074e+7 
           5570      3.56914e+7 
           5590      3.52242e+7 
           5610      3.52572e+7 
           5630       3.5208e+7 
           5650      3.44706e+7 
           5670      3.37111e+7 
           5690      3.39144e+7 
           5710      3.35848e+7 
           5730      3.39899e+7 
           5750      3.30827e+7 
           5770       3.3054e+7 
           5790      3.25373e+7 
           5810      3.23784e+7 
           5830      3.21644e+7 
           5850      3.17885e+7 
           5870      3.15351e+7 
           5890      3.06773e+7 
           5910      3.09101e+7 
           5930      3.06141e+7 
           5950      3.01745e+7 
           5970      3.00795e+7 
           5990      2.95104e+7 
           6010      2.90285e+7 
           6030      2.90787e+7 
           6050      2.86511e+7 
           6070      2.87704e+7 
           6090      2.83237e+7 
           6110      2.78772e+7 
           6130      2.73046e+7 
           6150      2.64231e+7 
           6170      2.65856e+7 
           6190      2.71407e+7 
           6210      2.68499e+7 
           6230      2.63613e+7 
           6250      2.52979e+7 
           6270      2.62656e+7 
           6290      2.60541e+7 
           6310      2.53556e+7 
           6330      2.53065e+7 
           6350      2.46475e+7 
           6370      2.46248e+7 
           6390      2.47127e+7 
           6410      2.41626e+7 
           6430      2.42339e+7 
           6450      2.33368e+7 
           6470      2.37516e+7 
           6490      2.31198e+7 
           6510      2.31397e+7 
           6530      2.27579e+7 
           6550      2.01745e+7 
           6570      1.58617e+7 
           6590         2.17e+7 
           6610      2.22121e+7 
           6630       2.2266e+7 
           6650      2.21152e+7 
           6670      2.18388e+7 
           6690      2.17438e+7 
           6710      2.15658e+7 
           6730      2.12906e+7 
           6750      2.09075e+7 
           6770      2.11138e+7 
           6790      2.08392e+7 
           6810      2.07178e+7 
           6830      2.04359e+7 
           6850      2.02863e+7 
           6870       2.0229e+7 
           6890       2.0057e+7 
           6910      1.98692e+7 
           6930      1.96559e+7 
           6950      1.95429e+7 
           6970      1.93254e+7 
           6990      1.92335e+7 
           7010      1.86172e+7 
           7030      1.88407e+7 
           7050      1.87173e+7 
           7070      1.85912e+7 
           7090      1.84647e+7 
           7110      1.78088e+7 
           7130      1.79676e+7 
           7150       1.7809e+7 
           7170      1.76585e+7 
           7190      1.74977e+7 
           7210      1.74262e+7 
           7230      1.72326e+7 
           7250      1.69606e+7 
           7270      1.70863e+7 
           7290      1.67828e+7 
           7310      1.67214e+7 
           7330      1.66191e+7 
           7350      1.65448e+7 
           7370      1.64877e+7 
           7390      1.62344e+7 
           7410      1.59644e+7 
           7430      1.57066e+7 
           7450       1.5693e+7 
           7470      1.55145e+7 
           7490      1.55164e+7 
           7510      1.54619e+7 
           7530      1.53992e+7 
           7550      1.53798e+7 
           7570       1.5131e+7 
           7590      1.51155e+7 
           7610      1.49867e+7 
           7630      1.49004e+7 
           7650      1.46797e+7 
           7670      1.44669e+7 
           7690      1.43815e+7 
           7710       1.4345e+7 
           7730      1.42898e+7 
           7750      1.41465e+7 
           7770      1.36513e+7 
           7790      1.40395e+7 
           7810      1.38639e+7 
           7830      1.36887e+7 
           7850       1.3476e+7 
           7870      1.34496e+7 
           7890      1.32653e+7 
           7910      1.31784e+7 
           7930      1.30234e+7 
           7950      1.28524e+7 
           7970      1.30845e+7 
           7990       1.2678e+7 
           8010      1.28502e+7 
           8030      1.26829e+7 
           8050      1.26444e+7 
           8070      1.25355e+7 
           8090      1.24557e+7 
           8110      1.24013e+7 
           8130      1.23557e+7 
           8150      1.22611e+7 
           8170      1.21741e+7 
           8190       1.1817e+7 
           8210      1.16751e+7 
           8230      1.15967e+7 
           8250      1.16363e+7 
           8270      1.17916e+7 
           8290      1.16701e+7 
           8310      1.15235e+7 
           8330       1.1339e+7 
           8350      1.13782e+7 
           8370      1.12803e+7 
           8390      1.11287e+7 
           8410      1.10257e+7 
           8430      1.09862e+7 
           8450      1.06726e+7 
           8470        1.045e+7 
           8490      1.09742e+7 
           8510      9.76676e+6 
           8530      1.10361e+7 
           8550       8.5712e+6 
           8570      1.14324e+7 
           8590      1.04741e+7 
           8610      1.01007e+7 
           8630      1.16033e+7 
           8650       1.1088e+7 
           8670      8.26692e+6 
           8690      1.10465e+7 
           8710      1.18147e+7 
           8730      1.13296e+7 
           8750      8.76596e+6 
           8770      1.09439e+7 
           8790      1.17157e+7 
           8810      1.16844e+7 
           8830      1.11899e+7 
           8850      1.02289e+7 
           8870      8.49351e+6 
           8890       1.0873e+7 
           8910      1.12262e+7 
           8930      1.11335e+7 
           8950      1.12672e+7 
           8970      1.10414e+7 
           8990      1.06544e+7 
           9010      8.41538e+6 
           9030      9.35437e+6 
           9050      1.06157e+7 
           9070      1.04224e+7 
           9090      1.02781e+7 
           9110      1.04791e+7 
           9130      1.05403e+7 
           9150      1.05654e+7 
           9170       1.0406e+7 
           9190      1.01449e+7 
           9210       9.4995e+6 
           9230      7.31013e+6 
           9250      9.04195e+6 
           9270      9.49047e+6 
           9290      9.99835e+6 
           9310      9.98065e+6 
           9330      9.83447e+6 
           9350      9.86656e+6 
           9370      9.84294e+6 
           9390      9.62417e+6 
           9410      9.17784e+6 
