# Kurucz ODFNEW /NOVER (2003)
# teff = 26000 K (value for the effective temperature for the model. Temperatures are given in K)
# logg = 5 log(cm/s2) (value for Log(G) for the model.)
# meta = -2  (value for the Metallicity for the model.)
# lh = 1.25  (l/Hp where l is the  mixing length of the convective element and Hp is the pressure scale height)
# vtur = 2 km/s (Microturbulence velocity)
# alpha = 0.4  (Alpha)
#
# column 1: WAVELENGTH (ANGSTROM), Wavelength in Angstrom
# column 2: FLUX (ERG/CM2/S/A), Flux in erg/cm2/s/A
          147.2     4.69837e-13 
            151      2.0782e-12 
          155.2     9.91519e-12 
          158.8      3.5536e-11 
            162     1.05646e-10 
            166     3.89499e-10 
          170.3      1.48148e-9 
          173.4      3.72688e-9 
          176.8      9.88326e-9 
          180.2      2.52777e-8 
          181.7      3.78237e-8 
          186.1      1.18828e-7 
            191      3.99572e-7 
          193.9      7.95489e-7 
          198.4      2.22376e-6 
          201.8      4.68793e-6 
            205        9.245e-6 
          210.5      2.82558e-5 
          216.2        8.453e-5 
          219.8     0.000163864 
            223      0.00028964 
          226.8     0.000557438 
            230      0.00501285 
            234        0.011163 
            240       0.0262749 
          246.5       0.0632158 
          252.4        0.136172 
          256.8        0.226628 
            260        0.341642 
            264        0.541938 
          268.5        0.894685 
          273.5         1.52913 
          278.5         2.56631 
            284         4.43541 
            290         7.84771 
            296         13.5327 
            301         20.9353 
            308         36.7055 
            318          83.252 
            328         174.032 
            338         348.489 
            348         667.483 
            357         1159.28 
            366         1959.58 
            375         3205.92 
            385         5397.86 
            395          8808.5 
            405           14009 
            414         20854.9 
            422         29155.3 
            430         40150.5 
            441         61427.4 
            451         88532.8 
            460          120918 
            470          168514 
            480          231008 
            490          312304 
            500          416361 
            506      2.20003e+6 
            512      7.79157e+6 
            520      9.27877e+6 
            530      1.21734e+7 
            540      1.27886e+7 
            550      1.67691e+7 
            560      1.90623e+7 
            570      2.21423e+7 
            580      2.22443e+7 
            590      2.76481e+7 
            600      3.19508e+7 
            610      3.62039e+7 
            620      4.01407e+7 
            630      4.50538e+7 
            640      4.90696e+7 
            650       5.5089e+7 
            658      5.98597e+7 
            665      6.37959e+7 
            675      6.87642e+7 
            685      7.45775e+7 
            695      8.36717e+7 
            705      9.00088e+7 
            716      9.86767e+7 
            726      1.06398e+8 
            735      1.14862e+8 
            745      1.24084e+8 
            755       1.3337e+8 
            765      1.42555e+8 
            775      1.53088e+8 
            785      1.63506e+8 
            795      1.73402e+8 
            805       1.8466e+8 
            815      1.95629e+8 
            825      2.07614e+8 
            835      2.15731e+8 
            845      2.30852e+8 
            855      2.42335e+8 
            865      2.56069e+8 
            875      2.69351e+8 
            885      2.82985e+8 
            895      2.96337e+8 
            905      3.06719e+8 
            915      3.91558e+8 
            925      1.70998e+9 
            935      4.49675e+9 
            945      1.5305e+10 
            955     2.53616e+10 
            965     3.54416e+10 
            975     1.27461e+10 
            985     4.51776e+10 
            995     4.41904e+10 
           1005      4.6027e+10 
           1015     3.82937e+10 
           1025      9.03075e+9 
           1035     3.32191e+10 
           1045      4.3799e+10 
           1055     4.31452e+10 
           1065     3.98909e+10 
           1075     4.06387e+10 
           1085     3.71921e+10 
           1095     3.93185e+10 
           1105     3.73297e+10 
           1115     3.65692e+10 
           1125     3.41717e+10 
           1135     3.50402e+10 
           1145     3.28878e+10 
           1155     3.31623e+10 
           1165     3.25066e+10 
           1175     2.84166e+10 
           1185     3.05816e+10 
           1195       2.803e+10 
           1205     2.24573e+10 
           1215      6.56675e+9 
           1225     2.13534e+10 
           1235     2.63178e+10 
           1245     2.62005e+10 
           1255     2.58349e+10 
           1265     2.51714e+10 
           1275     2.50377e+10 
           1285     2.44578e+10 
           1295     2.24352e+10 
           1305     2.23446e+10 
           1315     2.27708e+10 
           1325     2.19605e+10 
           1335     2.11614e+10 
           1345     2.10687e+10 
           1355      2.0845e+10 
           1365     2.01183e+10 
           1375     1.98132e+10 
           1385     1.94458e+10 
           1395     1.82216e+10 
           1405     1.80845e+10 
           1415     1.80957e+10 
           1425     1.77734e+10 
           1435      1.7433e+10 
           1442     1.72711e+10 
           1447     1.70729e+10 
           1455     1.67747e+10 
           1465     1.63967e+10 
           1475     1.60711e+10 
           1485     1.57286e+10 
           1495     1.54119e+10 
           1505     1.48934e+10 
           1512     1.47573e+10 
           1517     1.46528e+10 
           1525     1.43932e+10 
           1535     1.38713e+10 
           1545     1.36734e+10 
           1555     1.33195e+10 
           1565     1.32754e+10 
           1575     1.30876e+10 
           1585     1.28376e+10 
           1595     1.26239e+10 
           1605     1.22528e+10 
           1615     1.20137e+10 
           1625     1.18933e+10 
           1635     1.17034e+10 
           1645     1.13146e+10 
           1655     1.12938e+10 
           1665     1.11121e+10 
           1672     1.09171e+10 
           1677     1.09107e+10 
           1685     1.07421e+10 
           1695     1.05209e+10 
           1705     1.03081e+10 
           1715     1.00818e+10 
           1725      9.91217e+9 
           1735      9.78122e+9 
           1745      9.60287e+9 
           1755      9.46623e+9 
           1765      9.18053e+9 
           1775      9.08013e+9 
           1785      8.95006e+9 
           1795      8.84442e+9 
           1805      8.71073e+9 
           1815       8.5321e+9 
           1825      8.40673e+9 
           1835      8.26277e+9 
           1845      8.01252e+9 
           1855      7.80879e+9 
           1865      7.74076e+9 
           1875      7.71103e+9 
           1885      7.46042e+9 
           1895      7.25044e+9 
           1905       7.2882e+9 
           1915      7.07267e+9 
           1925      6.94956e+9 
           1935      6.91243e+9 
           1945      6.86633e+9 
           1955      6.62683e+9 
           1967      6.62927e+9 
           1976      6.59179e+9 
           1984      6.43806e+9 
           1995      6.25963e+9 
           2005      6.27326e+9 
           2015      6.20966e+9 
           2025      6.13782e+9 
           2035      6.00888e+9 
           2045       5.9189e+9 
           2055      5.75127e+9 
           2065      5.67989e+9 
           2074      5.68509e+9 
           2078      5.57397e+9 
           2085      5.56061e+9 
           2095      5.44611e+9 
           2105      5.42901e+9 
           2115      5.37055e+9 
           2125      5.30802e+9 
           2135      5.22734e+9 
           2145      5.14293e+9 
           2155      5.08014e+9 
           2165      5.01162e+9 
           2175      4.93769e+9 
           2185      4.87184e+9 
           2195      4.80738e+9 
           2205      4.73985e+9 
           2215      4.67504e+9 
           2225      4.60838e+9 
           2235        4.544e+9 
           2245      4.48627e+9 
           2255      4.42242e+9 
           2265      4.36576e+9 
           2275      4.30679e+9 
           2285      4.24991e+9 
           2295      4.15767e+9 
           2305      4.13578e+9 
           2315      4.07967e+9 
           2325       4.0266e+9 
           2335      3.96987e+9 
           2345      3.91916e+9 
           2355      3.87107e+9 
           2365      3.81995e+9 
           2375      3.76982e+9 
           2385      3.71986e+9 
           2395      3.67283e+9 
           2405      3.62614e+9 
           2415      3.57815e+9 
           2425      3.53614e+9 
           2435      3.48911e+9 
           2445      3.44576e+9 
           2455      3.40374e+9 
           2465      3.36049e+9 
           2475      3.31845e+9 
           2485      3.27727e+9 
           2495      3.19199e+9 
           2505      3.19519e+9 
           2513      3.15084e+9 
           2518      3.14303e+9 
           2525      3.11718e+9 
           2535      3.07915e+9 
           2545      3.03145e+9 
           2555      3.00321e+9 
           2565      2.96735e+9 
           2575      2.93395e+9 
           2585      2.89895e+9 
           2595      2.86417e+9 
           2605      2.84928e+9 
           2615      2.81579e+9 
           2625      2.78268e+9 
           2635      2.74771e+9 
           2645      2.71475e+9 
           2655      2.67948e+9 
           2665      2.64137e+9 
           2675      2.60523e+9 
           2685      2.59287e+9 
           2695      2.53984e+9 
           2705      2.53268e+9 
           2715      2.50343e+9 
           2725      2.45059e+9 
           2735       2.4459e+9 
           2745      2.41601e+9 
           2755      2.38937e+9 
           2765      2.33935e+9 
           2775       2.3371e+9 
           2785      2.31039e+9 
           2795       2.2608e+9 
           2805      2.25036e+9 
           2815      2.23374e+9 
           2825      2.17986e+9 
           2835       2.1624e+9 
           2845      2.16002e+9 
           2855      2.13604e+9 
           2865      2.11262e+9 
           2875      2.08943e+9 
           2885      2.06668e+9 
           2895      2.04407e+9 
           2910      2.01064e+9 
           2930      1.96696e+9 
           2950        1.907e+9 
           2970      1.88457e+9 
           2990      1.84439e+9 
           3010      1.80566e+9 
           3030      1.76836e+9 
           3050      1.73168e+9 
           3070      1.69596e+9 
           3090      1.65968e+9 
           3110      1.62714e+9 
           3130      1.59565e+9 
           3150      1.56356e+9 
           3170      1.53179e+9 
           3190      1.48528e+9 
           3210      1.47089e+9 
           3230      1.44136e+9 
           3250      1.41272e+9 
           3270       1.3869e+9 
           3290      1.35773e+9 
           3310      1.33377e+9 
           3330      1.30815e+9 
           3350      1.28053e+9 
           3370      1.25871e+9 
           3390      1.23492e+9 
           3410      1.21169e+9 
           3430      1.18364e+9 
           3450      1.15708e+9 
           3470      1.13918e+9 
           3490      1.11821e+9 
           3510       1.0992e+9 
           3530      1.08043e+9 
           3550      1.06163e+9 
           3570      1.04997e+9 
           3590      1.02205e+9 
           3610      1.00862e+9 
           3630      9.86303e+8 
           3640      9.86407e+8 
           3650      9.75523e+8 
           3670      9.62878e+8 
           3690      9.46548e+8 
           3710      9.15131e+8 
           3730      8.81488e+8 
           3750      8.75218e+8 
           3770      8.53419e+8 
           3790      8.94634e+8 
           3810      9.36834e+8 
           3830      8.08809e+8 
           3850      9.73155e+8 
           3870      1.00073e+9 
           3890      7.57338e+8 
           3910      9.86888e+8 
           3930      9.89869e+8 
           3950       9.5756e+8 
           3970      7.04606e+8 
           3990      9.13019e+8 
           4010      9.24996e+8 
           4030      8.55458e+8 
           4050      9.09112e+8 
           4070      8.84961e+8 
           4090      7.80749e+8 
           4110      6.71383e+8 
           4130      8.24693e+8 
           4150      8.24463e+8 
           4170      8.21036e+8 
           4190      8.10813e+8 
           4210      7.97517e+8 
           4230      7.83992e+8 
           4250      7.70457e+8 
           4270      7.55054e+8 
           4290      7.41521e+8 
           4310      7.20601e+8 
           4330      6.24805e+8 
           4350      5.66015e+8 
           4370      6.81794e+8 
           4390      6.54953e+8 
           4410      6.72465e+8 
           4430      6.60302e+8 
           4450      6.52249e+8 
           4470      5.99949e+8 
           4490      6.30365e+8 
           4510      6.22878e+8 
           4530      6.13021e+8 
           4550      6.03186e+8 
           4570      5.93643e+8 
           4590      5.84457e+8 
           4610      5.75462e+8 
           4630      5.66582e+8 
           4650      5.56962e+8 
           4670      5.49127e+8 
           4690      5.40703e+8 
           4710      5.23791e+8 
           4730      5.24406e+8 
           4750      5.16309e+8 
           4770      5.08926e+8 
           4790      5.00284e+8 
           4810      4.91101e+8 
           4830      4.78047e+8 
           4850      4.24977e+8 
           4870      3.76254e+8 
           4890      4.53406e+8 
           4910      4.54002e+8 
           4930      4.34392e+8 
           4950      4.44618e+8 
           4970      4.38653e+8 
           4990      4.32299e+8 
           5010      4.19159e+8 
           5030      4.19882e+8 
           5050      4.10728e+8 
           5070       4.0808e+8 
           5090      4.02291e+8 
           5110      3.96609e+8 
           5130      3.91017e+8 
           5150        3.855e+8 
           5170      3.80128e+8 
           5190       3.7484e+8 
           5210      3.69567e+8 
           5230      3.64528e+8 
           5250      3.59501e+8 
           5270      3.54553e+8 
           5290      3.49709e+8 
           5310      3.44929e+8 
           5330      3.40237e+8 
           5350      3.35605e+8 
           5370      3.31111e+8 
           5390      3.26648e+8 
           5410      3.22268e+8 
           5430      3.17944e+8 
           5450      3.13725e+8 
           5470      3.09571e+8 
           5490      3.05482e+8 
           5510      3.01457e+8 
           5530      2.97494e+8 
           5550      2.93605e+8 
           5570      2.89764e+8 
           5590      2.86006e+8 
           5610      2.82283e+8 
           5630      2.78653e+8 
           5650      2.75031e+8 
           5670      2.71501e+8 
           5690      2.68024e+8 
           5710      2.64648e+8 
           5730      2.61278e+8 
           5750      2.57948e+8 
           5770      2.54714e+8 
           5790      2.51519e+8 
           5810      2.48362e+8 
           5830      2.45253e+8 
           5850      2.42192e+8 
           5870      2.29557e+8 
           5890      2.35319e+8 
           5910      2.33309e+8 
           5930      2.30431e+8 
           5950      2.27597e+8 
           5970      2.24827e+8 
           5990      2.22068e+8 
           6010      2.19383e+8 
           6030      2.16718e+8 
           6050      2.14104e+8 
           6070      2.11529e+8 
           6090      2.08984e+8 
           6110      2.06488e+8 
           6130       2.0403e+8 
           6150        2.016e+8 
           6170      1.99206e+8 
           6190      1.96859e+8 
           6210      1.94538e+8 
           6230      1.92253e+8 
           6250      1.89992e+8 
           6270      1.87776e+8 
           6290      1.85593e+8 
           6310      1.83435e+8 
           6330      1.81318e+8 
           6350      1.79188e+8 
           6370      1.77145e+8 
           6390      1.75125e+8 
           6410      1.73117e+8 
           6430      1.71148e+8 
           6450      1.69201e+8 
           6470      1.67266e+8 
           6490      1.65244e+8 
           6510      1.62905e+8 
           6530      1.59895e+8 
           6550      1.49498e+8 
           6570      1.31413e+8 
           6590      1.52806e+8 
           6610      1.53702e+8 
           6630      1.52494e+8 
           6650      1.51254e+8 
           6670       1.4741e+8 
           6690      1.45865e+8 
           6710      1.46352e+8 
           6730      1.44743e+8 
           6750      1.43176e+8 
           6770      1.41616e+8 
           6790      1.40072e+8 
           6810      1.38568e+8 
           6830      1.37071e+8 
           6850      1.35598e+8 
           6870      1.34147e+8 
           6890       1.3271e+8 
           6910      1.31289e+8 
           6930      1.29896e+8 
           6950      1.28518e+8 
           6970      1.27154e+8 
           6990       1.2581e+8 
           7010      1.24488e+8 
           7030      1.23186e+8 
           7050      1.21897e+8 
           7070      1.18344e+8 
           7090      1.19363e+8 
           7110      1.18126e+8 
           7130      1.16901e+8 
           7150      1.15696e+8 
           7170      1.14487e+8 
           7190      1.13326e+8 
           7210      1.12162e+8 
           7230      1.10923e+8 
           7250      1.09881e+8 
           7270      1.08764e+8 
           7290      1.06644e+8 
           7310      1.06562e+8 
           7330      1.05498e+8 
           7350      1.04436e+8 
           7370      1.03391e+8 
           7390      1.02357e+8 
           7410      1.01331e+8 
           7430      1.00323e+8 
           7450      9.93367e+7 
           7470      9.83531e+7 
           7490      9.73787e+7 
           7510      9.63865e+7 
           7530      9.54698e+7 
           7550      9.45351e+7 
           7570      9.36089e+7 
           7590      9.26977e+7 
           7610      9.17883e+7 
           7630         9.09e+7 
           7650      9.00198e+7 
           7670      8.91475e+7 
           7690      8.82894e+7 
           7710      8.74391e+7 
           7730      8.66026e+7 
           7750      8.57673e+7 
           7770      8.49332e+7 
           7790      8.41438e+7 
           7810      8.32934e+7 
           7830      8.25489e+7 
           7850      8.18537e+7 
           7870      8.10793e+7 
           7890      8.02634e+7 
           7910       7.9569e+7 
           7930      7.88207e+7 
           7950      7.80669e+7 
           7970      7.72189e+7 
           7990      7.64847e+7 
           8010       7.5745e+7 
           8030      7.50293e+7 
           8050      7.43314e+7 
           8070      7.36511e+7 
           8090      7.29075e+7 
           8110      7.22791e+7 
           8130      7.16902e+7 
           8150      7.09815e+7 
           8170      7.03917e+7 
           8190      6.96889e+7 
           8210      6.89977e+7 
           8230      6.85459e+7 
           8250      6.79428e+7 
           8270      6.70306e+7 
           8290      6.67076e+7 
           8310      6.61469e+7 
           8330      6.55093e+7 
           8350      6.46177e+7 
           8370      6.42662e+7 
           8390      6.37943e+7 
           8410      6.32302e+7 
           8430      6.26284e+7 
           8450      6.16358e+7 
           8470      6.15394e+7 
           8490      6.08474e+7 
           8510       6.0416e+7 
           8530      5.97447e+7 
           8550      5.91203e+7 
           8570      5.90139e+7 
           8590      5.72639e+7 
