# Kurucz ODFNEW /NOVER (2003)
# teff = 24000 K (value for the effective temperature for the model. Temperatures are given in K)
# logg = 4 log(cm/s2) (value for Log(G) for the model.)
# meta = 0.5  (value for the Metallicity for the model.)
# lh = 1.25  (l/Hp where l is the  mixing length of the convective element and Hp is the pressure scale height)
# vtur = 2 km/s (Microturbulence velocity)
# alpha = 0.4  (Alpha)
#
# column 1: WAVELENGTH (ANGSTROM), Wavelength in Angstrom
# column 2: FLUX (ERG/CM2/S/A), Flux in erg/cm2/s/A
          147.2     2.02919e-15 
            151     9.04111e-15 
          155.2     4.34379e-14 
          158.8     1.56608e-13 
            162     4.68041e-13 
            166     1.73805e-12 
          170.3     6.61931e-12 
          173.4     1.68947e-11 
          176.8     4.51992e-11 
          180.2     1.16724e-10 
          181.7     1.75226e-10 
          186.1     5.59592e-10 
            191      1.92728e-9 
          193.9      3.89353e-9 
          198.4      1.11404e-8 
          201.8      2.39397e-8 
            205      4.81093e-8 
          210.5      1.52519e-7 
          216.2      4.75433e-7 
          219.8      9.47281e-7 
            223      1.71732e-6 
          226.8      3.41295e-6 
            230      4.94171e-5 
            234     0.000115332 
            240     0.000293326 
          246.5     0.000764839 
          252.4       0.0017726 
          256.8      0.00313386 
            260      0.00509393 
            264      0.00833717 
          268.5       0.0146386 
          273.5       0.0264649 
          278.5       0.0472244 
            284       0.0944019 
            290        0.177063 
            296        0.326358 
            301        0.531033 
            308         1.10528 
            318         2.77946 
            328         6.22571 
            338         14.2241 
            348         29.9115 
            357         201.236 
            366         454.136 
            375         715.873 
            385         1258.58 
            395          2636.2 
            405          4148.9 
            414          6483.9 
            422         9449.12 
            430         13809.2 
            441         21445.6 
            451         30293.8 
            460         40781.5 
            470         59067.6 
            480         81927.2 
            490          114232 
            500          153359 
            506          646515 
            512      9.15453e+6 
            520      1.01629e+7 
            530      1.21003e+7 
            540       1.2423e+7 
            550      2.01528e+7 
            560      2.43457e+7 
            570       2.9598e+7 
            580       2.7856e+7 
            590      3.91102e+7 
            600      4.31627e+7 
            610      5.20213e+7 
            620      5.53579e+7 
            630       5.6686e+7 
            640      4.73901e+7 
            650      2.94527e+7 
            658      5.20356e+7 
            665      7.13846e+7 
            675      7.83581e+7 
            685      7.98203e+7 
            695      1.13809e+8 
            705      1.13771e+8 
            716      1.31312e+8 
            726      1.32179e+8 
            735       1.4323e+8 
            745      1.66398e+8 
            755      1.77511e+8 
            765      1.92573e+8 
            775      2.06383e+8 
            785      2.21596e+8 
            795      2.26339e+8 
            805        2.354e+8 
            815      2.43146e+8 
            825      2.67658e+8 
            835      2.09825e+8 
            845      2.71721e+8 
            855      2.75895e+8 
            865      2.96384e+8 
            875      3.14861e+8 
            885      3.45953e+8 
            895      3.63243e+8 
            905      3.47537e+8 
            915        5.109e+8 
            925      3.62127e+9 
            935      8.18163e+9 
            945     1.51088e+10 
            955     1.97228e+10 
            965     2.08583e+10 
            975      2.92106e+9 
            985     1.42076e+10 
            995     1.59528e+10 
           1005     2.10859e+10 
           1015     2.22964e+10 
           1025     1.23583e+10 
           1035     1.65691e+10 
           1045     2.87812e+10 
           1055     2.59227e+10 
           1065       1.764e+10 
           1075     2.25355e+10 
           1085     2.04118e+10 
           1095     2.37749e+10 
           1105     1.94226e+10 
           1115     1.63892e+10 
           1125     1.18973e+10 
           1135     2.05864e+10 
           1145     1.80422e+10 
           1155     1.89655e+10 
           1165     1.89899e+10 
           1175      9.42516e+9 
           1185     1.79114e+10 
           1195     1.45922e+10 
           1205      5.75125e+9 
           1215      8.39856e+9 
           1225     1.48417e+10 
           1235     1.87065e+10 
           1245     1.79989e+10 
           1255     1.76374e+10 
           1265     1.80856e+10 
           1275     1.87277e+10 
           1285     1.88246e+10 
           1295      8.95174e+9 
           1305     1.00521e+10 
           1315     1.81421e+10 
           1325     1.66447e+10 
           1335     1.60648e+10 
           1345     1.65003e+10 
           1355     1.63471e+10 
           1365     1.38815e+10 
           1375     1.32979e+10 
           1385      1.2102e+10 
           1395      6.63217e+9 
           1405      8.11676e+9 
           1415     1.06383e+10 
           1425     1.11203e+10 
           1435     1.17803e+10 
           1442     1.23052e+10 
           1447     1.20973e+10 
           1455     1.15402e+10 
           1465     1.02417e+10 
           1475     1.08122e+10 
           1485      1.0608e+10 
           1495     1.03457e+10 
           1505      8.88939e+9 
           1512      7.92038e+9 
           1517      8.30943e+9 
           1525      8.75138e+9 
           1535      7.08107e+9 
           1545      6.71067e+9 
           1555      6.66639e+9 
           1565      7.34639e+9 
           1575      7.95564e+9 
           1585      8.11965e+9 
           1595      7.97314e+9 
           1605      8.38025e+9 
           1615        8.244e+9 
           1625      7.93299e+9 
           1635      8.71239e+9 
           1645      8.77593e+9 
           1655      8.50611e+9 
           1665      8.87077e+9 
           1672       8.3196e+9 
           1677      9.35525e+9 
           1685      9.11509e+9 
           1695      8.43562e+9 
           1705      8.22227e+9 
           1715      7.61394e+9 
           1725       7.4854e+9 
           1735      8.00409e+9 
           1745      7.77726e+9 
           1755      7.82209e+9 
           1765      7.73564e+9 
           1775       7.0505e+9 
           1785       7.2763e+9 
           1795      7.74464e+9 
           1805      7.89044e+9 
           1815      6.68975e+9 
           1825       7.1417e+9 
           1835      6.81402e+9 
           1845      6.11185e+9 
           1855      6.19196e+9 
           1865      6.27033e+9 
           1875      6.76985e+9 
           1885      5.87472e+9 
           1895      5.45462e+9 
           1905      6.12448e+9 
           1915      5.51992e+9 
           1925      5.21548e+9 
           1935      5.70483e+9 
           1945      5.76782e+9 
           1955      5.11055e+9 
           1967      5.79287e+9 
           1976      6.05167e+9 
           1984      5.55984e+9 
           1995      5.46491e+9 
           2005      5.83187e+9 
           2015      5.65248e+9 
           2025      5.85955e+9 
           2035      5.26938e+9 
           2045      5.49092e+9 
           2055      5.20201e+9 
           2065      5.14468e+9 
           2074      5.43898e+9 
           2078      4.80901e+9 
           2085      5.25288e+9 
           2095      4.91943e+9 
           2105      5.13169e+9 
           2115      5.21238e+9 
           2125      5.22034e+9 
           2135      5.11874e+9 
           2145      4.82868e+9 
           2155      5.10934e+9 
           2165      5.11289e+9 
           2175      5.05523e+9 
           2185       4.7972e+9 
           2195      4.92381e+9 
           2205      4.94124e+9 
           2215      4.81694e+9 
           2225      4.65434e+9 
           2235      4.62282e+9 
           2245      4.69332e+9 
           2255       4.4682e+9 
           2265      4.61036e+9 
           2275      4.52457e+9 
           2285       4.5285e+9 
           2295      3.96004e+9 
           2305      4.34219e+9 
           2315      4.17576e+9 
           2325      4.13839e+9 
           2335      3.94838e+9 
           2345      4.02103e+9 
           2355      4.00815e+9 
           2365      3.97069e+9 
           2375      3.89658e+9 
           2385      3.86881e+9 
           2395      3.84714e+9 
           2405      3.73777e+9 
           2415      3.73401e+9 
           2425      3.73787e+9 
           2435      3.59217e+9 
           2445      3.63689e+9 
           2455      3.65427e+9 
           2465       3.5664e+9 
           2475      3.49372e+9 
           2485      3.37934e+9 
           2495      2.64024e+9 
           2505      3.22893e+9 
           2513      3.14583e+9 
           2518       3.3034e+9 
           2525      3.25061e+9 
           2535      3.22565e+9 
           2545      3.02272e+9 
           2555      3.15608e+9 
           2565      3.08966e+9 
           2575      3.15946e+9 
           2585       3.1076e+9 
           2595      3.08661e+9 
           2605      3.05979e+9 
           2615      3.00713e+9 
           2625      2.99284e+9 
           2635       2.9706e+9 
           2645      2.94506e+9 
           2655      2.94162e+9 
           2665      2.75823e+9 
           2675      2.81756e+9 
           2685      2.80607e+9 
           2695        2.683e+9 
           2705      2.59477e+9 
           2715      2.62205e+9 
           2725      2.64018e+9 
           2735       2.6264e+9 
           2745       2.5378e+9 
           2755      2.53525e+9 
           2765      2.51921e+9 
           2775      2.56434e+9 
           2785      2.51089e+9 
           2795      2.38643e+9 
           2805      2.43743e+9 
           2815      2.45457e+9 
           2825      2.42967e+9 
           2835      2.30241e+9 
           2845      2.33819e+9 
           2855      2.29282e+9 
           2865      2.31562e+9 
           2875      2.28468e+9 
           2885      2.25688e+9 
           2895      2.21052e+9 
           2910      2.16025e+9 
           2930      2.15407e+9 
           2950      2.08691e+9 
           2970      2.05954e+9 
           2990      2.00878e+9 
           3010      1.91111e+9 
           3030      1.92384e+9 
           3050      1.90039e+9 
           3070      1.88455e+9 
           3090      1.78483e+9 
           3110      1.79692e+9 
           3130      1.74466e+9 
           3150      1.72527e+9 
           3170      1.67087e+9 
           3190      1.64407e+9 
           3210      1.62415e+9 
           3230      1.58038e+9 
           3250      1.56388e+9 
           3270      1.52571e+9 
           3290      1.49577e+9 
           3310      1.46884e+9 
           3330      1.43423e+9 
           3350      1.41299e+9 
           3370      1.38008e+9 
           3390      1.36578e+9 
           3410      1.34067e+9 
           3430      1.31301e+9 
           3450      1.28292e+9 
           3470      1.25923e+9 
           3490      1.23215e+9 
           3510      1.21247e+9 
           3530      1.20094e+9 
           3550      1.17726e+9 
           3570      1.15979e+9 
           3590      1.12039e+9 
           3610       1.1037e+9 
           3630      1.08994e+9 
           3640      1.09033e+9 
           3650      1.07209e+9 
           3670      1.06192e+9 
           3690      1.03982e+9 
           3710      9.95545e+8 
           3730       9.5809e+8 
           3750      1.00392e+9 
           3770      9.92232e+8 
           3790      1.03836e+9 
           3810      1.07628e+9 
           3830      9.43153e+8 
           3850       1.0734e+9 
           3870      1.05597e+9 
           3890      8.92897e+8 
           3910      1.07045e+9 
           3930      1.02465e+9 
           3950      1.01363e+9 
           3970      8.29355e+8 
           3990      9.82685e+8 
           4010       9.8181e+8 
           4030      9.25627e+8 
           4050      9.41152e+8 
           4070      8.82983e+8 
           4090      8.33245e+8 
           4110      7.51202e+8 
           4130      8.51307e+8 
           4150      8.46665e+8 
           4170      8.49915e+8 
           4190      8.43023e+8 
           4210      8.38943e+8 
           4230      8.16101e+8 
           4250      7.86079e+8 
           4270      7.60819e+8 
           4290      7.49913e+8 
           4310      7.22264e+8 
           4330      6.72908e+8 
           4350      6.22139e+8 
           4370      6.88718e+8 
           4390      6.96277e+8 
           4410      6.87632e+8 
           4430       6.8472e+8 
           4450      6.73557e+8 
           4470      6.46973e+8 
           4490      6.54022e+8 
           4510      6.53698e+8 
           4530      6.42284e+8 
           4550      6.35504e+8 
           4570      6.23749e+8 
           4590      6.12799e+8 
           4610      5.93685e+8 
           4630      5.86493e+8 
           4650      5.65482e+8 
           4670      5.69752e+8 
           4690      5.67506e+8 
           4710      5.38753e+8 
           4730      5.47088e+8 
           4750      5.38266e+8 
           4770      5.42885e+8 
           4790      5.31235e+8 
           4810      5.16291e+8 
           4830      5.07325e+8 
           4850      4.78437e+8 
           4870      4.28435e+8 
           4890      4.88335e+8 
           4910      4.83067e+8 
           4930      4.66384e+8 
           4950       4.6682e+8 
           4970      4.67341e+8 
           4990      4.58458e+8 
           5010      4.33372e+8 
           5030      4.42589e+8 
           5050      4.30331e+8 
           5070      4.33156e+8 
           5090      4.24292e+8 
           5110      4.16086e+8 
           5130      4.05003e+8 
           5150      4.02759e+8 
           5170      4.01227e+8 
           5190      3.96336e+8 
           5210      3.86901e+8 
           5230      3.85408e+8 
           5250      3.80755e+8 
           5270      3.73095e+8 
           5290       3.7067e+8 
           5310       3.6465e+8 
           5330      3.59438e+8 
           5350      3.53452e+8 
           5370      3.50994e+8 
           5390       3.4571e+8 
           5410      3.41485e+8 
           5430      3.35627e+8 
           5450      3.30911e+8 
           5470       3.2609e+8 
           5490      3.23019e+8 
           5510      3.20058e+8 
           5530      3.14137e+8 
           5550      3.11828e+8 
           5570      3.07177e+8 
           5590      3.04102e+8 
           5610      2.99113e+8 
           5630      2.96469e+8 
           5650      2.88402e+8 
           5670      2.83406e+8 
           5690      2.79882e+8 
           5710      2.78849e+8 
           5730       2.7663e+8 
           5750      2.71621e+8 
           5770      2.70669e+8 
           5790      2.66791e+8 
           5810      2.63317e+8 
           5830      2.59153e+8 
           5850      2.56558e+8 
           5870      2.46372e+8 
           5890      2.46885e+8 
           5910        2.454e+8 
           5930       2.4229e+8 
           5950      2.38323e+8 
           5970      2.38822e+8 
           5990      2.33534e+8 
           6010       2.3265e+8 
           6030      2.28798e+8 
           6050      2.26393e+8 
           6070      2.24372e+8 
           6090       2.2158e+8 
           6110      2.19042e+8 
           6130      2.16843e+8 
           6150       2.1148e+8 
           6170      2.10151e+8 
           6190      2.08825e+8 
           6210      2.06691e+8 
           6230      2.04521e+8 
           6250      2.00697e+8 
           6270      1.98892e+8 
           6290       1.9702e+8 
           6310      1.94098e+8 
           6330      1.92704e+8 
           6350      1.88848e+8 
           6370      1.87738e+8 
           6390      1.85698e+8 
           6410       1.8367e+8 
           6430      1.82146e+8 
           6450      1.79733e+8 
           6470      1.76481e+8 
           6490      1.74885e+8 
           6510      1.73137e+8 
           6530       1.7009e+8 
           6550      1.64223e+8 
           6570      1.44557e+8 
           6590      1.62982e+8 
           6610      1.63515e+8 
           6630      1.62204e+8 
           6650      1.60148e+8 
           6670      1.57131e+8 
           6690      1.55612e+8 
           6710      1.55364e+8 
           6730      1.52953e+8 
           6750      1.52221e+8 
           6770      1.50575e+8 
           6790      1.46674e+8 
           6810       1.4674e+8 
           6830      1.44905e+8 
           6850      1.44004e+8 
           6870      1.42392e+8 
           6890      1.40567e+8 
           6910      1.38674e+8 
           6930      1.37811e+8 
           6950      1.36583e+8 
           6970      1.35172e+8 
           6990       1.3359e+8 
           7010      1.32085e+8 
           7030      1.30694e+8 
           7050       1.2937e+8 
           7070      1.25685e+8 
           7090      1.26363e+8 
           7110      1.23216e+8 
           7130      1.22148e+8 
           7150      1.22269e+8 
           7170      1.21493e+8 
           7190      1.20409e+8 
           7210       1.1917e+8 
           7230      1.15449e+8 
           7250      1.16203e+8 
           7270        1.155e+8 
           7290      1.13343e+8 
           7310      1.13112e+8 
           7330      1.11892e+8 
           7350      1.10887e+8 
           7370      1.09821e+8 
           7390       1.0871e+8 
           7410      1.07623e+8 
           7430      1.06253e+8 
           7450      1.05344e+8 
           7470       1.0314e+8 
           7490      1.03067e+8 
           7510      1.02198e+8 
           7530      1.00978e+8 
           7550      1.00298e+8 
           7570      9.93547e+7 
           7590      9.82563e+7 
           7610        9.709e+7 
           7630      9.63876e+7 
           7650      9.54529e+7 
           7670      9.45844e+7 
           7690      9.36407e+7 
           7710      9.27119e+7 
           7730      9.16716e+7 
           7750      9.09921e+7 
           7770      8.89768e+7 
           7790      8.92592e+7 
           7810       8.8358e+7 
           7830      8.75753e+7 
           7850      8.64511e+7 
           7870      8.55195e+7 
           7890      8.42817e+7 
           7910      8.40547e+7 
           7930      8.32478e+7 
           7950      8.20546e+7 
           7970      8.16255e+7 
           7990      8.04207e+7 
           8010      8.01782e+7 
           8030      7.94229e+7 
           8050      7.87032e+7 
           8070      7.80764e+7 
           8090      7.72476e+7 
           8110      7.59105e+7 
           8130      7.59194e+7 
           8150      7.52183e+7 
           8170      7.46698e+7 
           8190      7.32497e+7 
           8210      7.26418e+7 
           8230      7.16106e+7 
           8250      7.18173e+7 
           8270      7.00382e+7 
           8290      7.03804e+7 
           8310      6.98402e+7 
           8330      6.93423e+7 
           8350      6.83081e+7 
           8370       6.7767e+7 
           8390      6.74389e+7 
           8410       6.6735e+7 
           8430      6.61643e+7 
           8450      6.46485e+7 
           8470      6.49107e+7 
           8490      6.41976e+7 
           8510      6.34176e+7 
           8530      6.32655e+7 
           8550      6.16248e+7 
           8570      6.28712e+7 
