# Kurucz ODFNEW /NOVER (2003)
# teff = 3500 K (value for the effective temperature for the model. Temperatures are given in K)
# logg = 4 log(cm/s2) (value for Log(G) for the model.)
# meta = -2  (value for the Metallicity for the model.)
# lh = 1.25  (l/Hp where l is the  mixing length of the convective element and Hp is the pressure scale height)
# vtur = 2 km/s (Microturbulence velocity)
# alpha = 0.4  (Alpha)
#
# column 1: WAVELENGTH (ANGSTROM), Wavelength in Angstrom
# column 2: FLUX (ERG/CM2/S/A), Flux in erg/cm2/s/A
            166     1.36714e-35 
          170.3     1.29897e-35 
          173.4     1.25294e-35 
          176.8     1.20522e-35 
          180.2     1.16017e-35 
          181.7     1.14109e-35 
          186.1     1.08777e-35 
            191     1.03267e-35 
          193.9     1.00201e-35 
          198.4     9.57076e-36 
          201.8     9.25097e-36 
            205     8.96441e-36 
          210.5     8.50208e-36 
          216.2     8.05969e-36 
          219.8     7.79784e-36 
            223     7.57565e-36 
          226.8     7.32392e-36 
            230     7.12154e-36 
            234     6.88015e-36 
            240     6.54044e-36 
          246.5     6.20006e-36 
          252.4     5.91358e-36 
          256.8     5.71267e-36 
            260     5.57292e-36 
            264     5.40532e-36 
          268.5     5.22566e-36 
          273.5     5.03634e-36 
          278.5     4.85712e-36 
            284     4.67082e-36 
            290     4.47954e-36 
            296     4.29978e-36 
            301     4.15812e-36 
            308     3.97126e-36 
            318     3.72542e-36 
            328     3.50172e-36 
            338     3.29759e-36 
            348     3.11079e-36 
            357     2.95592e-36 
            366     2.81234e-36 
            375     2.67896e-36 
            385     2.54161e-36 
            395     2.41455e-36 
            405     2.29678e-36 
            414     2.19801e-36 
            422     2.11546e-36 
            430     2.03748e-36 
            441      1.9371e-36 
            451     1.85215e-36 
            460     1.78038e-36 
            470     1.70543e-36 
            480     1.63511e-36 
            490     1.56905e-36 
            500     1.50692e-36 
            506     1.47139e-36 
            512     1.43711e-36 
            520     1.39323e-36 
            530     1.34115e-36 
            540     1.29194e-36 
            550     1.24539e-36 
            560     1.20131e-36 
            570     1.15952e-36 
            580     1.11989e-36 
            590     1.08224e-36 
            600     1.04647e-36 
            610     1.01244e-36 
            620     9.80045e-37 
            630      9.4918e-37 
            640      9.1975e-37 
            650     8.91667e-37 
            658     8.70117e-37 
            665     8.51895e-37 
            675     8.26841e-37 
            685     8.02876e-37 
            695     7.79938e-37 
            705     7.57969e-37 
            716     7.34858e-37 
            726     7.14754e-37 
            735     6.97357e-37 
            745     6.78761e-37 
            755       6.609e-37 
            765     6.43734e-37 
            775     6.27229e-37 
            785      6.1135e-37 
            795     5.96067e-37 
            805      5.8135e-37 
            815     5.67171e-37 
            825     5.53505e-37 
            835     5.40327e-37 
            845     5.27614e-37 
            855     5.15344e-37 
            865     5.03498e-37 
            875     4.92055e-37 
            885     4.80998e-37 
            895     4.70309e-37 
            905     4.59973e-37 
            915     1.27811e-17 
            925     6.08271e-17 
            935     1.24366e-16 
            945     2.47723e-16 
            955     4.38349e-16 
            965     7.38875e-16 
            975     1.36362e-15 
            985      2.1542e-15 
            995     4.66257e-15 
           1005     8.96407e-15 
           1015     1.50564e-14 
           1025     2.55389e-14 
           1035     3.63779e-14 
           1045     5.70083e-14 
           1055     1.17203e-13 
           1065     1.46221e-13 
           1075     2.46117e-13 
           1085     4.55189e-13 
           1095     5.80101e-13 
           1105     8.20704e-13 
           1115     1.86722e-12 
           1125     2.39428e-12 
           1135     2.94049e-12 
           1145     4.20601e-12 
           1155     7.69542e-12 
           1165     1.23817e-11 
           1175     1.60237e-11 
           1185     2.47585e-11 
           1195     3.42981e-11 
           1205     6.17286e-11 
           1215     2.12317e-10 
           1225     1.43281e-10 
           1235     1.15205e-10 
           1245     1.18653e-10 
           1255     2.09334e-10 
           1265     2.95832e-10 
           1275     4.62654e-10 
           1285     8.77334e-10 
           1295      1.17726e-9 
           1305      2.92597e-9 
           1315       3.9095e-9 
           1325      7.42998e-9 
           1335      8.44194e-9 
           1345      1.54111e-8 
           1355      1.96644e-8 
           1365      2.96636e-8 
           1375      3.25195e-8 
           1385      4.10583e-8 
           1395      6.03088e-8 
           1405      8.27344e-8 
           1415      1.31517e-7 
           1425      1.10175e-7 
           1435       2.2014e-7 
           1442      3.82878e-7 
           1447      2.38239e-7 
           1455      3.19656e-7 
           1465       4.2805e-7 
           1475      4.64621e-7 
           1485      5.26752e-7 
           1495      9.87661e-7 
           1505      1.64297e-6 
           1512      7.76103e-7 
           1517      9.66179e-7 
           1525      1.62882e-6 
           1535      2.56698e-6 
           1545      1.35279e-6 
           1555      1.99549e-6 
           1565      1.63906e-6 
           1575      2.58344e-6 
           1585      2.33665e-6 
           1595      2.02712e-6 
           1605      2.12639e-6 
           1615      2.16081e-6 
           1625      2.50666e-6 
           1635      3.24667e-6 
           1645      5.31607e-6 
           1655      4.05747e-6 
           1665       9.4702e-6 
           1672      8.32028e-6 
           1677      1.49616e-5 
           1685      2.16413e-5 
           1695       4.0994e-5 
           1705      4.36054e-5 
           1715      5.30942e-5 
           1725      7.77837e-5 
           1735      9.71789e-5 
           1745     0.000134199 
           1755     0.000124393 
           1765     0.000197578 
           1775     0.000158482 
           1785     0.000444512 
           1795     0.000271309 
           1805     0.000774544 
           1815     0.000379666 
           1825     0.000771347 
           1835     0.000554014 
           1845      0.00133415 
           1855     0.000625294 
           1865      0.00184302 
           1875      0.00141621 
           1885      0.00208285 
           1895      0.00249955 
           1905      0.00285197 
           1915      0.00461108 
           1925      0.00301821 
           1935      0.00136214 
           1945      0.00515179 
           1955      0.00932434 
           1967      0.00894792 
           1976       0.0115009 
           1984       0.0173346 
           1995       0.0128049 
           2005       0.0165638 
           2015       0.0182045 
           2025       0.0160867 
           2035       0.0206139 
           2045       0.0196048 
           2055       0.0254422 
           2065       0.0218375 
           2074       0.0140332 
           2078       0.0296448 
           2085       0.0499359 
           2095        0.104838 
           2105        0.121248 
           2115        0.103042 
           2125         0.14826 
           2135        0.220282 
           2145        0.107884 
           2155        0.194829 
           2165        0.170272 
           2175        0.187137 
           2185        0.153226 
           2195        0.416081 
           2205        0.253404 
           2215        0.424957 
           2225        0.245399 
           2235        0.680194 
           2245        0.749269 
           2255         1.33496 
           2265        0.282212 
           2275         1.12714 
           2285        0.881715 
           2295         2.41894 
           2305        0.276033 
           2315         3.81107 
           2325         1.93089 
           2335          4.5594 
           2345         2.40814 
           2355         1.12672 
           2365         2.33916 
           2375         1.68761 
           2385         5.58528 
           2395         4.31122 
           2405         14.5122 
           2415         5.29888 
           2425         6.84447 
           2435         14.7643 
           2445         24.8093 
           2455         33.2611 
           2465         13.9011 
           2475         38.6463 
           2485         6.79613 
           2495         7.75908 
           2505         22.1438 
           2513          12.129 
           2518         14.4089 
           2525         23.7934 
           2535         83.3688 
           2545         122.272 
           2555         137.845 
           2565         43.2958 
           2575         92.1394 
           2585         52.1303 
           2595         71.8323 
           2605          117.46 
           2615         90.3228 
           2625          196.57 
           2635         393.271 
           2645         286.375 
           2655         392.708 
           2665         351.564 
           2675         222.359 
           2685         392.531 
           2695         219.149 
           2705         485.087 
           2715          458.66 
           2725         349.109 
           2735         347.638 
           2745         592.266 
           2755         530.646 
           2765         778.518 
           2775         1004.66 
           2785         523.404 
           2795         713.189 
           2805         714.529 
           2815         583.001 
           2825         556.978 
           2835         366.768 
           2845         159.372 
           2855         45.1824 
           2865         343.389 
           2875         552.039 
           2885          1002.7 
           2895         1373.05 
           2910         1856.67 
           2930          2478.9 
           2950         2515.92 
           2970         2478.64 
           2990         3074.27 
           3010          3308.4 
           3030         3972.38 
           3050         4956.91 
           3070         3741.75 
           3090         2990.21 
           3110         4828.26 
           3130          5138.6 
           3150          6643.5 
           3170         10593.8 
           3190         10119.7 
           3210         12380.7 
           3230           13721 
           3250         20540.1 
           3270         26816.6 
           3290         30240.1 
           3310         26372.2 
           3330           25562 
           3350         22254.6 
           3370           15264 
           3390           22420 
           3410         27837.8 
           3430         33635.4 
           3450         28738.4 
           3470         30565.1 
           3490         38736.6 
           3510         49209.9 
           3530         50543.4 
           3550           70282 
           3570         41143.5 
           3590         36719.7 
           3610         50455.7 
           3630         61288.7 
           3640         63380.6 
           3650         65250.8 
           3670         88861.7 
           3690         76330.3 
           3710         61963.9 
           3730         30126.7 
           3750         39600.5 
           3770         83364.5 
           3790         92031.1 
           3810         91171.2 
           3830         43205.1 
           3850         73076.2 
           3870         69143.4 
           3890         70799.4 
           3910         81461.5 
           3930         31067.9 
           3950         60675.1 
           3970         42245.8 
           3990          111863 
           4010          148308 
           4030          125928 
           4050          147763 
           4070          141659 
           4090          151601 
           4110         80972.3 
           4130          106793 
           4150         91051.6 
           4170         94641.1 
           4190          107982 
           4210           96352 
           4230         55990.7 
           4250          119467 
           4270          123729 
           4290          127673 
           4310          147533 
           4330          192232 
           4350          203491 
           4370          209523 
           4390          198196 
           4410          206844 
           4430          212985 
           4450          222356 
           4470          251877 
           4490          261130 
           4510          277675 
           4530          240953 
           4550          271376 
           4570          283491 
           4590          287928 
           4610          299173 
           4630          308035 
           4650          293909 
           4670          314285 
           4690          307312 
           4710          297847 
           4730          292285 
           4750          284386 
           4770          238808 
           4790          246735 
           4810          304512 
           4830          304046 
           4850          337275 
           4870          346169 
           4890          351284 
           4910          350584 
           4930          333486 
           4950          319296 
           4970          296507 
           4990          271320 
           5010          238644 
           5030          246012 
           5050          231201 
           5070          217186 
           5090          211135 
           5110          202272 
           5130          193555 
           5150          177097 
           5170          180395 
           5190          223819 
           5210          254788 
           5230          417113 
           5250          429222 
           5270          390472 
           5290          443218 
           5310          467303 
           5330          435583 
           5350          456353 
           5370          457572 
           5390          454480 
           5410          456623 
           5430          453214 
           5450          444871 
           5470          460158 
           5490          466323 
           5510          453017 
           5530          487874 
           5550          494026 
           5570          493763 
           5590          465232 
           5610          485394 
           5630          516039 
           5650          538308 
           5670          535373 
           5690          543798 
           5710          540435 
           5730          556668 
           5750          565633 
           5770          564841 
           5790          568576 
           5810          570059 
           5830          578635 
           5850          567387 
           5870          559011 
           5890          360602 
           5910          540317 
           5930          565819 
           5950          571694 
           5970          582415 
           5990          589651 
           6010          596257 
           6030          605042 
           6050          609138 
           6070          611133 
           6090          611462 
           6110          608758 
           6130          588961 
           6150          618803 
           6170          544923 
           6190          601019 
           6210          598317 
           6230          589648 
           6250          588850 
           6270          605914 
           6290          620549 
           6310          629158 
           6330          636640 
           6350          646006 
           6370          644073 
           6390          648388 
           6410          647484 
           6430          641622 
           6450          625016 
           6470          633749 
           6490          635886 
           6510          654901 
           6530          669909 
           6550          662557 
           6570          661602 
           6590          672296 
           6610          673054 
           6630          676327 
           6650          670663 
           6670          663819 
           6690          655378 
           6710          652941 
           6730          646720 
           6750          647119 
           6770          664524 
           6790          657420 
           6810          667447 
           6830          676393 
           6850          682171 
           6870          682268 
           6890          690510 
           6910          697573 
           6930          697710 
           6950          701086 
           6970          708406 
           6990          708375 
           7010          712917 
           7030          714462 
           7050          706791 
           7070          679448 
           7090          665421 
           7110          667257 
           7130          643732 
           7150          638183 
           7170          665677 
           7190          683200 
           7210          672602 
           7230          700244 
           7250          698859 
           7270          715782 
           7290          722848 
           7310          724820 
           7330          719748 
           7350          721276 
           7370          730406 
           7390          733149 
           7410          733999 
           7430          734557 
           7450          735709 
           7470          737649 
           7490          739288 
           7510          741167 
           7530          743016 
           7550          742521 
           7570          744454 
           7590          741124 
           7610          739641 
           7630          738486 
           7650          737140 
           7670          712553 
           7690          728855 
           7710          717980 
           7730          735264 
           7750          731474 
           7770          734765 
           7790          736895 
           7810          740722 
           7830          739585 
           7850          739428 
           7870          743278 
           7890          745143 
           7910          744209 
           7930          745612 
           7950          743594 
           7970          748763 
           7990          747438 
           8010          748643 
           8030          748657 
           8050          748198 
           8070          747791 
           8090          749624 
           8110          749826 
           8130          750473 
           8150          750935 
           8170          750424 
           8190          729071 
           8210          744806 
           8230          746697 
           8250          746678 
           8270          746927 
           8290          745520 
           8310          743463 
           8330          734794 
           8350          742571 
           8370          737252 
           8390          708374 
           8410          735316 
           8430          707498 
           8450          737868 
           8470          732812 
           8490          731715 
           8510          712258 
           8530          731237 
           8550          664845 
           8570          738995 
           8590          739540 
           8610          738903 
           8630          739630 
           8650          736768 
           8670          671828 
           8690          718028 
