# Kurucz ODFNEW /NOVER (2003)
# teff = 19000 K (value for the effective temperature for the model. Temperatures are given in K)
# logg = 4 log(cm/s2) (value for Log(G) for the model.)
# meta = -1.5  (value for the Metallicity for the model.)
# lh = 1.25  (l/Hp where l is the  mixing length of the convective element and Hp is the pressure scale height)
# vtur = 2 km/s (Microturbulence velocity)
# alpha = 0.4  (Alpha)
#
# column 1: WAVELENGTH (ANGSTROM), Wavelength in Angstrom
# column 2: FLUX (ERG/CM2/S/A), Flux in erg/cm2/s/A
          147.2     7.52473e-22 
            151     5.41541e-21 
          155.2     4.18629e-20 
          158.8     2.21818e-19 
            162     9.20248e-19 
            166     5.05965e-18 
          170.3     2.90152e-17 
          173.4     9.70329e-17 
          176.8      3.4797e-16 
          180.2     1.19137e-15 
          181.7     2.02133e-15 
          186.1     9.09473e-15 
            191     4.48366e-14 
          193.9     1.10963e-13 
          198.4     4.30339e-13 
          201.8     1.15332e-12 
            205     2.83428e-12 
          210.5     1.24607e-11 
          216.2     5.34712e-11 
          219.8     1.29085e-10 
            223     2.75738e-10 
          226.8     6.60808e-10 
            230      2.06838e-9 
            234        5.249e-9 
            240      1.79038e-8 
          246.5      6.28004e-8 
          252.4      1.85716e-7 
          256.8      3.99613e-7 
            260      6.95946e-7 
            264      1.35225e-6 
          268.5      2.78334e-6 
          273.5      6.03152e-6 
          278.5      1.27203e-5 
            284      2.80034e-5 
            290      6.39007e-5 
            296     0.000140715 
            301     0.000265292 
            308     0.000618285 
            318      0.00195987 
            328      0.00574178 
            338        0.015742 
            348       0.0406021 
            357       0.0907853 
            366        0.194805 
            375        0.401657 
            385        0.860689 
            395         1.76914 
            405         3.50098 
            414         6.27882 
            422         10.3139 
            430         16.6003 
            441         31.0227 
            451         53.1975 
            460         84.5523 
            470         138.326 
            480         221.214 
            490         346.494 
            500         531.957 
            506         4989.64 
            512         13905.9 
            520         18247.1 
            530         27399.7 
            540         32412.2 
            550         48936.2 
            560         63270.4 
            570         82225.3 
            580         88688.2 
            590          124393 
            600          164013 
            610          205657 
            620          250637 
            630          307942 
            640          366778 
            650          445192 
            658          518459 
            665          581325 
            675          680399 
            685          801254 
            695          953864 
            705      1.10618e+6 
            716      1.30004e+6 
            726      1.49405e+6 
            735      1.70092e+6 
            745      1.95429e+6 
            755      2.23173e+6 
            765      2.52119e+6 
            775      2.86587e+6 
            785      3.22921e+6 
            795      3.61127e+6 
            805       4.0437e+6 
            815      4.49359e+6 
            825      5.00728e+6 
            835      5.46811e+6 
            845      6.09499e+6 
            855      6.68917e+6 
            865       7.3853e+6 
            875      8.08348e+6 
            885      8.88162e+6 
            895       9.6799e+6 
            905      1.03568e+7 
            915      1.77708e+7 
            925       7.6647e+7 
            935      2.94209e+8 
            945      1.71924e+9 
            955      3.91247e+9 
            965      5.51081e+9 
            975      1.47605e+9 
            985      8.14945e+9 
            995      8.31486e+9 
           1005      8.70335e+9 
           1015      6.92921e+9 
           1025      9.42841e+8 
           1035      5.34942e+9 
           1045      9.09201e+9 
           1055      9.02946e+9 
           1065      8.11634e+9 
           1075      8.81429e+9 
           1085       8.2103e+9 
           1095      8.73403e+9 
           1105       8.0176e+9 
           1115      7.95079e+9 
           1125      7.55617e+9 
           1135      7.98948e+9 
           1145      7.42008e+9 
           1155      7.68779e+9 
           1165      7.71432e+9 
           1175      6.73467e+9 
           1185      7.43841e+9 
           1195      6.10407e+9 
           1205      3.96908e+9 
           1215      6.80791e+8 
           1225      3.96054e+9 
           1235      6.25081e+9 
           1245      6.61721e+9 
           1255       6.4342e+9 
           1265      6.24459e+9 
           1275      6.43879e+9 
           1285      6.35447e+9 
           1295      5.44059e+9 
           1305      5.24383e+9 
           1315      6.04366e+9 
           1325      5.82424e+9 
           1335      5.56187e+9 
           1345      5.66919e+9 
           1355      5.62337e+9 
           1365      5.42299e+9 
           1375      5.36154e+9 
           1385      5.34547e+9 
           1395      5.03293e+9 
           1405      5.07586e+9 
           1415      5.05216e+9 
           1425      4.98484e+9 
           1435      4.95256e+9 
           1442      4.95623e+9 
           1447      4.90171e+9 
           1455      4.80685e+9 
           1465      4.70459e+9 
           1475      4.62647e+9 
           1485      4.51448e+9 
           1495      4.45732e+9 
           1505      4.31246e+9 
           1512      4.21413e+9 
           1517      4.25433e+9 
           1525      4.18438e+9 
           1535      4.01236e+9 
           1545      4.05939e+9 
           1555      3.90888e+9 
           1565      3.88862e+9 
           1575      3.91138e+9 
           1585      3.85498e+9 
           1595      3.83908e+9 
           1605       3.7149e+9 
           1615      3.66413e+9 
           1625      3.61575e+9 
           1635      3.59589e+9 
           1645      3.54061e+9 
           1655      3.44252e+9 
           1665      3.48664e+9 
           1672      3.36304e+9 
           1677      3.41803e+9 
           1685       3.3903e+9 
           1695      3.31107e+9 
           1705       3.2231e+9 
           1715      3.13618e+9 
           1725      3.09955e+9 
           1735      3.10084e+9 
           1745      3.03967e+9 
           1755      3.04072e+9 
           1765       2.8812e+9 
           1775      2.92009e+9 
           1785      2.88132e+9 
           1795      2.88379e+9 
           1805      2.83643e+9 
           1815       2.7673e+9 
           1825      2.76386e+9 
           1835      2.71525e+9 
           1845      2.60754e+9 
           1855       2.5449e+9 
           1865      2.53458e+9 
           1875      2.56109e+9 
           1885      2.44981e+9 
           1895       2.3701e+9 
           1905       2.4304e+9 
           1915      2.35054e+9 
           1925      2.31134e+9 
           1935      2.31991e+9 
           1945       2.3241e+9 
           1955      2.22754e+9 
           1967      2.26354e+9 
           1976      2.27326e+9 
           1984      2.20175e+9 
           1995      2.13987e+9 
           2005      2.15718e+9 
           2015      2.14149e+9 
           2025      2.14189e+9 
           2035      2.08586e+9 
           2045       2.0629e+9 
           2055      1.99274e+9 
           2065      2.00078e+9 
           2074      2.00886e+9 
           2078      1.97112e+9 
           2085      1.97324e+9 
           2095      1.92389e+9 
           2105      1.92793e+9 
           2115      1.91025e+9 
           2125      1.90616e+9 
           2135      1.87554e+9 
           2145      1.84245e+9 
           2155      1.83472e+9 
           2165      1.80495e+9 
           2175      1.78353e+9 
           2185      1.76559e+9 
           2195      1.75415e+9 
           2205      1.72611e+9 
           2215      1.70112e+9 
           2225       1.6733e+9 
           2235      1.66802e+9 
           2245      1.64975e+9 
           2255        1.623e+9 
           2265      1.61326e+9 
           2275      1.59241e+9 
           2285      1.58139e+9 
           2295      1.54854e+9 
           2305      1.53917e+9 
           2315      1.51761e+9 
           2325      1.50521e+9 
           2335      1.47141e+9 
           2345      1.44005e+9 
           2355      1.44795e+9 
           2365       1.4164e+9 
           2375      1.41118e+9 
           2385      1.38288e+9 
           2395       1.3795e+9 
           2405      1.36193e+9 
           2415      1.34421e+9 
           2425      1.34532e+9 
           2435      1.32203e+9 
           2445      1.31048e+9 
           2455      1.30395e+9 
           2465      1.28155e+9 
           2475      1.27171e+9 
           2485       1.2604e+9 
           2495      1.23155e+9 
           2505      1.23531e+9 
           2513      1.21284e+9 
           2518      1.21617e+9 
           2525      1.20033e+9 
           2535      1.18068e+9 
           2545      1.16991e+9 
           2555      1.17295e+9 
           2565      1.15357e+9 
           2575      1.15088e+9 
           2585      1.13872e+9 
           2595      1.12616e+9 
           2605      1.11847e+9 
           2615      1.10811e+9 
           2625      1.09734e+9 
           2635      1.08414e+9 
           2645       1.0856e+9 
           2655      1.07332e+9 
           2665       1.0569e+9 
           2675      1.05006e+9 
           2685      1.04477e+9 
           2695      1.02681e+9 
           2705       1.0233e+9 
           2715      1.01092e+9 
           2725      9.93721e+8 
           2735      9.92813e+8 
           2745      9.68144e+8 
           2755       9.6222e+8 
           2765      9.55076e+8 
           2775      9.56375e+8 
           2785       9.4539e+8 
           2795      9.12886e+8 
           2805      9.20513e+8 
           2815      9.20783e+8 
           2825      9.03985e+8 
           2835      8.93588e+8 
           2845      8.92158e+8 
           2855      8.85041e+8 
           2865      8.78093e+8 
           2875      8.69033e+8 
           2885      8.61389e+8 
           2895      8.53651e+8 
           2910      8.41848e+8 
           2930      8.23417e+8 
           2950      8.05796e+8 
           2970      7.96347e+8 
           2990      7.81052e+8 
           3010      7.68004e+8 
           3030      7.54575e+8 
           3050      7.41067e+8 
           3070      7.27885e+8 
           3090      7.14824e+8 
           3110      7.02348e+8 
           3130      6.90864e+8 
           3150      6.78739e+8 
           3170       6.6694e+8 
           3190      6.50903e+8 
           3210      6.43988e+8 
           3230      6.33112e+8 
           3250      6.22455e+8 
           3270      6.12539e+8 
           3290      6.01738e+8 
           3310      5.92357e+8 
           3330      5.82511e+8 
           3350      5.72219e+8 
           3370       5.6349e+8 
           3390      5.54337e+8 
           3410      5.45359e+8 
           3430      5.35335e+8 
           3450      5.25665e+8 
           3470      5.18183e+8 
           3490       5.0988e+8 
           3510      5.02985e+8 
           3530      4.95276e+8 
           3550      4.87559e+8 
           3570      4.81372e+8 
           3590      4.72107e+8 
           3610      4.65473e+8 
           3630      4.57614e+8 
           3640      4.55927e+8 
           3650      4.50746e+8 
           3670      4.45511e+8 
           3690      4.34359e+8 
           3710      4.22846e+8 
           3730      4.11148e+8 
           3750      4.56201e+8 
           3770      4.66164e+8 
           3790      5.05686e+8 
           3810      5.37581e+8 
           3830      4.57657e+8 
           3850      5.61593e+8 
           3870      5.75298e+8 
           3890      4.29507e+8 
           3910      5.68023e+8 
           3930      5.62598e+8 
           3950      5.51265e+8 
           3970      4.01376e+8 
           3990       5.2808e+8 
           4010       5.3037e+8 
           4030      4.99023e+8 
           4050      5.19578e+8 
           4070      5.07888e+8 
           4090      4.55685e+8 
           4110      3.86406e+8 
           4130      4.75216e+8 
           4150      4.74037e+8 
           4170      4.70931e+8 
           4190       4.6518e+8 
           4210      4.57986e+8 
           4230      4.50655e+8 
           4250       4.4342e+8 
           4270      4.34957e+8 
           4290      4.28537e+8 
           4310      4.18769e+8 
           4330      3.67368e+8 
           4350      3.30311e+8 
           4370      3.98214e+8 
           4390      3.85192e+8 
           4410      3.91023e+8 
           4430      3.83642e+8 
           4450      3.79669e+8 
           4470      3.56953e+8 
           4490      3.66506e+8 
           4510      3.62948e+8 
           4530      3.57363e+8 
           4550      3.52008e+8 
           4570      3.46824e+8 
           4590      3.41805e+8 
           4610      3.36807e+8 
           4630       3.3183e+8 
           4650      3.26751e+8 
           4670      3.22249e+8 
           4690      3.17691e+8 
           4710      3.08936e+8 
           4730      3.08215e+8 
           4750      3.03588e+8 
           4770      2.99872e+8 
           4790      2.95534e+8 
           4810       2.9028e+8 
           4830      2.84119e+8 
           4850      2.55194e+8 
           4870      2.23653e+8 
           4890      2.70919e+8 
           4910      2.70138e+8 
           4930      2.61022e+8 
           4950      2.64068e+8 
           4970      2.60513e+8 
           4990      2.56901e+8 
           5010      2.50126e+8 
           5030      2.49883e+8 
           5050      2.44318e+8 
           5070      2.43259e+8 
           5090       2.3997e+8 
           5110       2.3671e+8 
           5130      2.33565e+8 
           5150      2.30434e+8 
           5170      2.27414e+8 
           5190      2.24406e+8 
           5210      2.21118e+8 
           5230      2.18549e+8 
           5250      2.15684e+8 
           5270      2.12856e+8 
           5290      2.10119e+8 
           5310      2.07377e+8 
           5330       2.0467e+8 
           5350      2.01945e+8 
           5370      1.99476e+8 
           5390      1.96923e+8 
           5410      1.94401e+8 
           5430      1.91796e+8 
           5450      1.89452e+8 
           5470       1.8705e+8 
           5490      1.84764e+8 
           5510       1.8242e+8 
           5530      1.80142e+8 
           5550      1.77917e+8 
           5570      1.75694e+8 
           5590      1.73523e+8 
           5610       1.7133e+8 
           5630      1.69295e+8 
           5650      1.67001e+8 
           5670      1.65052e+8 
           5690      1.63114e+8 
           5710      1.61164e+8 
           5730      1.59227e+8 
           5750      1.57289e+8 
           5770      1.55409e+8 
           5790       1.5355e+8 
           5810      1.51702e+8 
           5830      1.49899e+8 
           5850      1.48116e+8 
           5870      1.42298e+8 
           5890      1.44439e+8 
           5910      1.42934e+8 
           5930      1.41265e+8 
           5950       1.3955e+8 
           5970      1.37983e+8 
           5990      1.36338e+8 
           6010      1.34796e+8 
           6030       1.3323e+8 
           6050      1.31702e+8 
           6070      1.30181e+8 
           6090      1.28688e+8 
           6110      1.27221e+8 
           6130      1.25771e+8 
           6150      1.24307e+8 
           6170      1.22938e+8 
           6190      1.21555e+8 
           6210      1.20187e+8 
           6230      1.18834e+8 
           6250      1.17477e+8 
           6270      1.16192e+8 
           6290      1.14892e+8 
           6310      1.13607e+8 
           6330      1.12364e+8 
           6350        1.109e+8 
           6370      1.09778e+8 
           6390      1.08695e+8 
           6410      1.07495e+8 
           6430      1.06345e+8 
           6450      1.05179e+8 
           6470      1.04035e+8 
           6490      1.02912e+8 
           6510      1.01578e+8 
           6530      9.99496e+7 
           6550      9.40978e+7 
           6570      8.23369e+7 
           6590      9.58824e+7 
           6610      9.61049e+7 
           6630      9.53974e+7 
           6650      9.44922e+7 
           6670      9.26901e+7 
           6690      9.17327e+7 
           6710      9.15381e+7 
           6730      9.05873e+7 
           6750      8.96378e+7 
           6770      8.87062e+7 
           6790      8.77759e+7 
           6810      8.68793e+7 
           6830      8.59755e+7 
           6850      8.50968e+7 
           6870      8.42189e+7 
           6890      8.33577e+7 
           6910      8.25051e+7 
           6930      8.16608e+7 
           6950      8.08327e+7 
           6970      8.00206e+7 
           6990      7.92009e+7 
           7010      7.84046e+7 
           7030      7.76161e+7 
           7050      7.68353e+7 
           7070      7.50476e+7 
           7090      7.53113e+7 
           7110      7.45677e+7 
           7130      7.38239e+7 
           7150      7.30894e+7 
           7170      7.23642e+7 
           7190      7.16583e+7 
           7210      7.09548e+7 
           7230        7.017e+7 
           7250      6.95684e+7 
           7270      6.88932e+7 
           7290      6.78032e+7 
           7310      6.75547e+7 
           7330      6.69068e+7 
           7350      6.62614e+7 
           7370      6.56235e+7 
           7390      6.49928e+7 
           7410      6.43701e+7 
           7430      6.37497e+7 
           7450      6.31513e+7 
           7470      6.25476e+7 
           7490      6.19561e+7 
           7510       6.1356e+7 
           7530      6.07907e+7 
           7550      6.02185e+7 
           7570      5.96529e+7 
           7590      5.90931e+7 
           7610      5.85409e+7 
           7630       5.7995e+7 
           7650      5.74552e+7 
           7670      5.69216e+7 
           7690      5.63946e+7 
           7710       5.5873e+7 
           7730      5.53579e+7 
           7750      5.48487e+7 
           7770      5.42472e+7 
           7790      5.38486e+7 
           7810      5.33384e+7 
           7830      5.28709e+7 
           7850      5.24043e+7 
           7870      5.19297e+7 
           7890      5.14271e+7 
           7910      5.10139e+7 
           7930      5.05544e+7 
           7950      5.00834e+7 
           7970      4.96289e+7 
           7990      4.91724e+7 
           8010      4.87669e+7 
           8030      4.83245e+7 
           8050      4.78852e+7 
           8070        4.747e+7 
           8090      4.70065e+7 
           8110      4.66037e+7 
           8130      4.62156e+7 
           8150      4.57685e+7 
           8170      4.54171e+7 
           8190      4.49889e+7 
           8210      4.45045e+7 
           8230      4.41967e+7 
           8250      4.38476e+7 
           8270      4.33427e+7 
           8290      4.30845e+7 
           8310       4.2729e+7 
           8330       4.2359e+7 
           8350      4.18672e+7 
           8370      4.15835e+7 
           8390      4.12672e+7 
           8410       4.0873e+7 
           8430      4.04699e+7 
           8450      3.99541e+7 
           8470      3.95792e+7 
           8490       3.9429e+7 
           8510      3.86857e+7 
           8530      3.89146e+7 
           8550      3.73521e+7 
           8570      3.88015e+7 
