# Kurucz ODFNEW /NOVER (2003)
# teff = 34000 K (value for the effective temperature for the model. Temperatures are given in K)
# logg = 4.5 log(cm/s2) (value for Log(G) for the model.)
# meta = 0  (value for the Metallicity for the model.)
# lh = 1.25  (l/Hp where l is the  mixing length of the convective element and Hp is the pressure scale height)
# vtur = 2 km/s (Microturbulence velocity)
# alpha = 0.4  (Alpha)
#
# column 1: WAVELENGTH (ANGSTROM), Wavelength in Angstrom
# column 2: FLUX (ERG/CM2/S/A), Flux in erg/cm2/s/A
          147.2      1.91896e-5 
            151      4.98236e-5 
          155.2     0.000135366 
          158.8      0.00030606 
            162     0.000613441 
            166      0.00141308 
          170.3      0.00330199 
          173.4      0.00597078 
          176.8       0.0112104 
          180.2       0.0204108 
          181.7       0.0266627 
          186.1       0.0554751 
            191        0.120895 
          193.9        0.188008 
          198.4        0.365995 
          201.8        0.591192 
            205        0.915446 
          210.5         1.88568 
          216.2         3.80812 
          219.8         5.90335 
            223         8.56124 
          226.8          13.457 
            230         5935.66 
            234         13100.5 
            240         20057.6 
          246.5         32422.6 
          252.4         52898.2 
          256.8         70557.2 
            260          112762 
            264          168792 
          268.5          252958 
          273.5          339636 
          278.5          410762 
            284          856721 
            290      1.20352e+6 
            296      1.53506e+6 
            301       2.2668e+6 
            308      4.94858e+6 
            318      1.02278e+7 
            328      1.42608e+7 
            338      2.44707e+7 
            348      3.62563e+7 
            357      6.98751e+7 
            366      1.41731e+8 
            375      1.62975e+8 
            385      2.31634e+8 
            395      4.21797e+8 
            405      5.08025e+8 
            414      6.67007e+8 
            422      7.21816e+8 
            430      7.87098e+8 
            441      9.39746e+8 
            451       1.0485e+9 
            460      1.06608e+9 
            470      1.22936e+9 
            480      1.40348e+9 
            490      1.43421e+9 
            500      1.75767e+9 
            506      2.45178e+9 
            512     1.57852e+10 
            520     1.45983e+10 
            530     1.31409e+10 
            540     1.24297e+10 
            550      1.3566e+10 
            560     1.75186e+10 
            570     1.87889e+10 
            580     1.72933e+10 
            590     1.81969e+10 
            600     1.34545e+10 
            610     1.69017e+10 
            620     2.03457e+10 
            630     1.96528e+10 
            640     1.96495e+10 
            650     1.89738e+10 
            658     1.46841e+10 
            665     1.81897e+10 
            675     2.06669e+10 
            685     1.64084e+10 
            695     2.09515e+10 
            705     1.57817e+10 
            716     2.21604e+10 
            726     2.15684e+10 
            735     2.16299e+10 
            745     1.98701e+10 
            755     1.99123e+10 
            765     2.05821e+10 
            775     2.11985e+10 
            785     2.12383e+10 
            795     2.14936e+10 
            805     2.03467e+10 
            815     2.02503e+10 
            825     2.14184e+10 
            835     1.69841e+10 
            845     2.04588e+10 
            855     2.01608e+10 
            865     2.07164e+10 
            875     2.06899e+10 
            885      2.0844e+10 
            895     2.08751e+10 
            905     2.01873e+10 
            915     2.03784e+10 
            925      5.1506e+10 
            935     7.88558e+10 
            945     1.03933e+11 
            955      1.1535e+11 
            965     1.31241e+11 
            975     6.24484e+10 
            985     1.09591e+11 
            995     9.73117e+10 
           1005     9.96033e+10 
           1015     1.04467e+11 
           1025     8.12749e+10 
           1035     1.01175e+11 
           1045     1.14124e+11 
           1055     1.08762e+11 
           1065     9.36156e+10 
           1075      9.7173e+10 
           1085     8.94185e+10 
           1095     9.54812e+10 
           1105     9.06631e+10 
           1115     8.87866e+10 
           1125     7.08437e+10 
           1135     8.46821e+10 
           1145     8.07582e+10 
           1155     7.58641e+10 
           1165     7.48338e+10 
           1175     5.28247e+10 
           1185     6.83558e+10 
           1195     6.54569e+10 
           1205     6.23539e+10 
           1215     4.87453e+10 
           1225      6.0706e+10 
           1235     6.43532e+10 
           1245     6.21083e+10 
           1255     6.17874e+10 
           1265      6.2606e+10 
           1275     6.38479e+10 
           1285     6.33942e+10 
           1295     5.86809e+10 
           1305      5.8526e+10 
           1315     6.11556e+10 
           1325     5.88669e+10 
           1335     5.71681e+10 
           1345     5.62691e+10 
           1355     5.53083e+10 
           1365     5.28874e+10 
           1375     5.13956e+10 
           1385     4.96584e+10 
           1395     3.81196e+10 
           1405     3.94683e+10 
           1415     4.72138e+10 
           1425      4.2561e+10 
           1435     4.49812e+10 
           1442     4.45202e+10 
           1447     4.42203e+10 
           1455     4.21213e+10 
           1465     4.11779e+10 
           1475     4.11357e+10 
           1485     4.10021e+10 
           1495     3.96699e+10 
           1505     3.84709e+10 
           1512     3.79589e+10 
           1517     3.79923e+10 
           1525     3.67314e+10 
           1535     3.24506e+10 
           1545     2.79269e+10 
           1555     2.79553e+10 
           1565     3.06247e+10 
           1575     3.18484e+10 
           1585     3.16067e+10 
           1595     3.16115e+10 
           1605     2.98368e+10 
           1615     2.85007e+10 
           1625     2.89528e+10 
           1635     2.89873e+10 
           1645     2.86331e+10 
           1655     2.89305e+10 
           1665     2.81586e+10 
           1672     2.63305e+10 
           1677     3.00076e+10 
           1685     2.87388e+10 
           1695     2.77673e+10 
           1705     2.72793e+10 
           1715     2.62269e+10 
           1725     2.51223e+10 
           1735     2.59123e+10 
           1745     2.56397e+10 
           1755     2.51367e+10 
           1765     2.46894e+10 
           1775     2.39206e+10 
           1785     2.40979e+10 
           1795     2.35249e+10 
           1805     2.34223e+10 
           1815     2.28024e+10 
           1825     2.24095e+10 
           1835     2.23181e+10 
           1845     2.12412e+10 
           1855     2.13259e+10 
           1865     2.12657e+10 
           1875     2.06945e+10 
           1885     1.98457e+10 
           1895     1.94857e+10 
           1905     1.98236e+10 
           1915     1.92113e+10 
           1925     1.81318e+10 
           1935     1.89601e+10 
           1945     1.90435e+10 
           1955      1.7555e+10 
           1967      1.8096e+10 
           1976     1.83464e+10 
           1984      1.7749e+10 
           1995     1.72755e+10 
           2005     1.74766e+10 
           2015     1.73592e+10 
           2025      1.7202e+10 
           2035     1.66139e+10 
           2045     1.63591e+10 
           2055     1.32689e+10 
           2065     1.27678e+10 
           2074      1.3125e+10 
           2078       1.305e+10 
           2085     1.36732e+10 
           2095     1.44511e+10 
           2105     1.49229e+10 
           2115     1.50112e+10 
           2125     1.46316e+10 
           2135     1.45494e+10 
           2145     1.42994e+10 
           2155     1.42595e+10 
           2165     1.36225e+10 
           2175     1.38758e+10 
           2185     1.34185e+10 
           2195     1.36233e+10 
           2205     1.34086e+10 
           2215     1.28555e+10 
           2225     1.29814e+10 
           2235     1.27894e+10 
           2245     1.25875e+10 
           2255     1.21346e+10 
           2265     1.22443e+10 
           2275     1.21034e+10 
           2285     1.17415e+10 
           2295     1.08326e+10 
           2305     1.12309e+10 
           2315     1.12178e+10 
           2325     1.11654e+10 
           2335     1.10091e+10 
           2345     1.08675e+10 
           2355      1.0664e+10 
           2365     1.04918e+10 
           2375     1.02728e+10 
           2385      9.83114e+9 
           2395      9.89304e+9 
           2405      9.88585e+9 
           2415      9.70596e+9 
           2425      9.64017e+9 
           2435      9.46077e+9 
           2445      9.35896e+9 
           2455      9.21286e+9 
           2465      9.10974e+9 
           2475      8.97293e+9 
           2485      8.70137e+9 
           2495      6.52813e+9 
           2505      8.27601e+9 
           2513      8.02594e+9 
           2518      8.15512e+9 
           2525      8.37173e+9 
           2535      8.30874e+9 
           2545      8.11096e+9 
           2555      8.03779e+9 
           2565      7.92656e+9 
           2575      7.85944e+9 
           2585      7.76605e+9 
           2595      7.61009e+9 
           2605      7.57842e+9 
           2615      7.43132e+9 
           2625      7.37262e+9 
           2635      7.28421e+9 
           2645      7.17108e+9 
           2655      7.08991e+9 
           2665      6.93814e+9 
           2675      6.78054e+9 
           2685      6.79649e+9 
           2695      6.66367e+9 
           2705      6.60986e+9 
           2715       6.5168e+9 
           2725      6.42339e+9 
           2735      6.26218e+9 
           2745      6.30963e+9 
           2755      6.21974e+9 
           2765      6.12013e+9 
           2775      6.09714e+9 
           2785      5.98398e+9 
           2795       5.7874e+9 
           2805      5.82377e+9 
           2815      5.79055e+9 
           2825      5.70384e+9 
           2835      5.60414e+9 
           2845      5.59414e+9 
           2855      5.50187e+9 
           2865      5.42268e+9 
           2875      5.35585e+9 
           2885      5.30068e+9 
           2895      5.22952e+9 
           2910      5.09922e+9 
           2930      5.02809e+9 
           2950      4.88569e+9 
           2970      4.77996e+9 
           2990      4.63743e+9 
           3010      4.49783e+9 
           3030      4.37956e+9 
           3050      4.32393e+9 
           3070      4.25139e+9 
           3090      4.11328e+9 
           3110        4.066e+9 
           3130       3.9523e+9 
           3150      3.88366e+9 
           3170       3.7902e+9 
           3190      3.71024e+9 
           3210      3.60606e+9 
           3230      3.54504e+9 
           3250      3.48713e+9 
           3270      3.37957e+9 
           3290       3.3258e+9 
           3310      3.25134e+9 
           3330      3.17242e+9 
           3350      3.09648e+9 
           3370      3.03761e+9 
           3390      2.99548e+9 
           3410      2.93006e+9 
           3430      2.87943e+9 
           3450      2.79981e+9 
           3470      2.75424e+9 
           3490      2.69907e+9 
           3510      2.64718e+9 
           3530      2.60215e+9 
           3550      2.54556e+9 
           3570      2.49888e+9 
           3590      2.43969e+9 
           3610      2.39559e+9 
           3630      2.34488e+9 
           3640      2.31686e+9 
           3650      2.21089e+9 
           3670      2.17637e+9 
           3690      2.13458e+9 
           3710      2.06179e+9 
           3730      2.02842e+9 
           3750       2.0205e+9 
           3770      1.97588e+9 
           3790      2.03447e+9 
           3810      2.07254e+9 
           3830      1.88405e+9 
           3850      2.06109e+9 
           3870      2.00553e+9 
           3890      1.76931e+9 
           3910      2.00364e+9 
           3930      1.94757e+9 
           3950      1.89349e+9 
           3970      1.62799e+9 
           3990      1.85432e+9 
           4010      1.82478e+9 
           4030      1.75234e+9 
           4050      1.77148e+9 
           4070      1.69558e+9 
           4090      1.59789e+9 
           4110      1.47156e+9 
           4130      1.61857e+9 
           4150      1.59997e+9 
           4170      1.59233e+9 
           4190      1.55867e+9 
           4210      1.52772e+9 
           4230      1.51267e+9 
           4250      1.47048e+9 
           4270      1.43913e+9 
           4290      1.41097e+9 
           4310      1.37476e+9 
           4330      1.29556e+9 
           4350       1.2079e+9 
           4370      1.31557e+9 
           4390      1.28739e+9 
           4410      1.27516e+9 
           4430      1.26528e+9 
           4450      1.24134e+9 
           4470      1.19711e+9 
           4490      1.20403e+9 
           4510      1.18093e+9 
           4530      1.16821e+9 
           4550      1.13979e+9 
           4570      1.13202e+9 
           4590      1.10973e+9 
           4610      1.08814e+9 
           4630      1.06478e+9 
           4650      1.01601e+9 
           4670      1.03349e+9 
           4690       1.0087e+9 
           4710      9.93852e+8 
           4730      1.00134e+9 
           4750      9.83529e+8 
           4770      9.72616e+8 
           4790      9.57188e+8 
           4810       9.3967e+8 
           4830      9.19777e+8 
           4850      8.73128e+8 
           4870      7.98113e+8 
           4890      8.77666e+8 
           4910      8.67109e+8 
           4930      8.43115e+8 
           4950      8.38714e+8 
           4970      8.33457e+8 
           4990      8.20813e+8 
           5010      7.94896e+8 
           5030      7.92027e+8 
           5050      7.80049e+8 
           5070      7.73115e+8 
           5090      7.60828e+8 
           5110      7.49474e+8 
           5130      7.38102e+8 
           5150      7.27508e+8 
           5170      7.16182e+8 
           5190      7.06869e+8 
           5210      6.97066e+8 
           5230      6.87324e+8 
           5250      6.76124e+8 
           5270      6.65861e+8 
           5290      6.58413e+8 
           5310      6.48812e+8 
           5330      6.39802e+8 
           5350      6.30921e+8 
           5370       6.2201e+8 
           5390      6.12721e+8 
           5410      5.98674e+8 
           5430       5.9647e+8 
           5450      5.88042e+8 
           5470      5.79834e+8 
           5490      5.71979e+8 
           5510      5.63951e+8 
           5530      5.56454e+8 
           5550      5.49173e+8 
           5570      5.41569e+8 
           5590      5.32915e+8 
           5610       5.2723e+8 
           5630      5.20223e+8 
           5650      5.13041e+8 
           5670      5.05585e+8 
           5690      4.93577e+8 
           5710      4.81818e+8 
           5730      4.76039e+8 
           5750      4.68962e+8 
           5770       4.6411e+8 
           5790      4.57987e+8 
           5810      4.51547e+8 
           5830      4.45584e+8 
           5850      4.41386e+8 
           5870      4.27286e+8 
           5890      4.30362e+8 
           5910      4.26311e+8 
           5930       4.2179e+8 
           5950      4.17321e+8 
           5970      4.13589e+8 
           5990      4.08899e+8 
           6010      4.04774e+8 
           6030      3.99949e+8 
           6050      3.95405e+8 
           6070      3.90636e+8 
           6090       3.8587e+8 
           6110      3.80906e+8 
           6130      3.76309e+8 
           6150      3.71047e+8 
           6170      3.66538e+8 
           6190       3.6259e+8 
           6210      3.58304e+8 
           6230      3.53746e+8 
           6250      3.49277e+8 
           6270      3.45279e+8 
           6290      3.41135e+8 
           6310      3.36544e+8 
           6330      3.33039e+8 
           6350       3.2874e+8 
           6370      3.25165e+8 
           6390      3.21269e+8 
           6410      3.17159e+8 
           6430       3.1374e+8 
           6450      3.09923e+8 
           6470      3.05751e+8 
           6490      3.02224e+8 
           6510      2.98129e+8 
           6530      2.93832e+8 
           6550      2.85077e+8 
           6570      2.58374e+8 
           6590      2.83197e+8 
           6610        2.819e+8 
           6630      2.78985e+8 
           6650       2.7558e+8 
           6670      2.69755e+8 
           6690      2.66469e+8 
           6710      2.65787e+8 
           6730      2.62646e+8 
           6750       2.6024e+8 
           6770      2.57587e+8 
           6790      2.54274e+8 
           6810       2.5184e+8 
           6830       2.4889e+8 
           6850      2.46218e+8 
           6870      2.43382e+8 
           6890      2.39749e+8 
           6910      2.37369e+8 
           6930      2.35601e+8 
           6950      2.32999e+8 
           6970      2.30461e+8 
           6990      2.27895e+8 
           7010      2.25186e+8 
           7030      2.22588e+8 
           7050      2.20251e+8 
           7070      2.15306e+8 
           7090      2.15816e+8 
           7110      2.13337e+8 
           7130      2.11112e+8 
           7150      2.08967e+8 
           7170      2.06315e+8 
           7190      2.04309e+8 
           7210      2.02366e+8 
           7230      1.99194e+8 
           7250      1.97795e+8 
           7270      1.96024e+8 
           7290      1.92767e+8 
           7310       1.9184e+8 
           7330      1.89904e+8 
           7350      1.87917e+8 
           7370      1.85969e+8 
           7390      1.84067e+8 
           7410      1.82134e+8 
           7430      1.80282e+8 
           7450      1.78338e+8 
           7470      1.76128e+8 
           7490      1.74376e+8 
           7510      1.72928e+8 
           7530       1.7114e+8 
           7550      1.69501e+8 
           7570      1.67758e+8 
           7590      1.65404e+8 
           7610      1.64094e+8 
           7630      1.62665e+8 
           7650      1.60998e+8 
           7670      1.59513e+8 
           7690      1.57563e+8 
           7710      1.56214e+8 
           7730      1.54278e+8 
           7750      1.53213e+8 
           7770      1.51733e+8 
           7790      1.50259e+8 
           7810      1.48744e+8 
           7830      1.47321e+8 
           7850      1.45874e+8 
           7870      1.44209e+8 
           7890      1.42795e+8 
           7910      1.41677e+8 
           7930      1.40286e+8 
           7950      1.39003e+8 
           7970      1.37517e+8 
           7990      1.36263e+8 
           8010      1.34979e+8 
           8030      1.33624e+8 
           8050       1.3242e+8 
           8070      1.31151e+8 
           8090      1.29819e+8 
           8110      1.28011e+8 
           8130       1.2745e+8 
           8150      1.26145e+8 
           8170      1.25031e+8 
           8190      1.23332e+8 
           8210      1.21368e+8 
           8230      1.19966e+8 
           8250       1.1928e+8 
           8270      1.17597e+8 
           8290      1.17096e+8 
           8310      1.16151e+8 
           8330      1.14888e+8 
           8350      1.13512e+8 
           8370      1.12755e+8 
           8390      1.11956e+8 
           8410       1.1087e+8 
           8430       1.0992e+8 
           8450      1.08514e+8 
           8470      1.07955e+8 
           8490      1.06867e+8 
           8510      1.05653e+8 
           8530      1.04961e+8 
           8550      1.03785e+8 
           8570      1.03537e+8 
