# Kurucz ODFNEW /NOVER (2003)
# teff = 7250 K (value for the effective temperature for the model. Temperatures are given in K)
# logg = 2.5 log(cm/s2) (value for Log(G) for the model.)
# meta = -4  (value for the Metallicity for the model.)
# lh = 1.25  (l/Hp where l is the  mixing length of the convective element and Hp is the pressure scale height)
# vtur = 2 km/s (Microturbulence velocity)
# alpha = 0.4  (Alpha)
#
# column 1: WAVELENGTH (ANGSTROM), Wavelength in Angstrom
# column 2: FLUX (ERG/CM2/S/A), Flux in erg/cm2/s/A
          147.2     1.73866e-35 
            151     1.65225e-35 
          155.2     1.56403e-35 
          158.8     1.49392e-35 
            162     1.43549e-35 
            166     1.36714e-35 
          170.3     1.29897e-35 
          173.4     1.25294e-35 
          176.8     1.20522e-35 
          180.2     1.16017e-35 
          181.7     1.14109e-35 
          186.1     1.08777e-35 
            191     1.03267e-35 
          193.9     1.00201e-35 
          198.4     9.57076e-36 
          201.8     9.25097e-36 
            205     8.96441e-36 
          210.5     8.50208e-36 
          216.2     8.05969e-36 
          219.8     7.79784e-36 
            223     7.57565e-36 
          226.8     7.32392e-36 
            230     7.12154e-36 
            234     6.88015e-36 
            240     6.54044e-36 
          246.5     6.20006e-36 
          252.4     5.91358e-36 
          256.8     5.71267e-36 
            260     5.57292e-36 
            264     5.40532e-36 
          268.5     5.22566e-36 
          273.5     5.03634e-36 
          278.5     4.85712e-36 
            284     4.67082e-36 
            290     4.47954e-36 
            296     4.29978e-36 
            301     4.15812e-36 
            308     3.97126e-36 
            318     6.36041e-23 
            328     8.06447e-22 
            338     8.13053e-21 
            348     7.12683e-20 
            357     4.51517e-19 
            366     2.60448e-18 
            375     1.37715e-17 
            385     7.97174e-17 
            395     4.20831e-16 
            405     2.04009e-15 
            414      7.8926e-15 
            422     2.49836e-14 
            430      7.5625e-14 
            441     3.23903e-13 
            451      1.1398e-12 
            460     3.36831e-12 
            470     1.06704e-11 
            480     3.21463e-11 
            490     9.23858e-11 
            500     2.54021e-10 
            506     4.56911e-10 
            512     8.09739e-10 
            520      1.69946e-9 
            530      4.15355e-9 
            540      9.80349e-9 
            550      2.23908e-8 
            560      4.95719e-8 
            570      1.06564e-7 
            580      2.22779e-7 
            590      4.53569e-7 
            600      9.00561e-7 
            610      1.74596e-6 
            620      3.30893e-6 
            630       6.1373e-6 
            640       1.1152e-5 
            650      1.98708e-5 
            658      3.11206e-5 
            665      4.56488e-5 
            675      7.77528e-5 
            685     0.000130251 
            695     0.000214756 
            705     0.000348734 
            716     0.000584543 
            726     0.000921317 
            735      0.00137177 
            745      0.00210918 
            755      0.00320332 
            765      0.00480799 
            775      0.00713536 
            785       0.0104743 
            795       0.0152164 
            805       0.0218838 
            815       0.0311695 
            825       0.0439837 
            835       0.0615108 
            845       0.0852835 
            855        0.117261 
            865        0.159936 
            875         0.21646 
            885        0.290773 
            895        0.387789 
            905         0.51356 
            915         1.01555 
            925         3.55791 
            935         6.08214 
            945         10.7974 
            955         16.3625 
            965         17.9298 
            975         10.9061 
            985         38.2563 
            995         45.4651 
           1005         46.0568 
           1015         29.3573 
           1025         36.5497 
           1035         61.1503 
           1045         111.743 
           1055         153.958 
           1065         204.164 
           1075         246.394 
           1085          296.58 
           1095         325.099 
           1105         358.703 
           1115         388.328 
           1125         412.352 
           1135         429.771 
           1145         437.038 
           1155          437.41 
           1165         236.115 
           1175         165.637 
           1185         849.813 
           1195         463.332 
           1205         394.729 
           1215         326.704 
           1225         497.678 
           1235         752.903 
           1245         236.991 
           1255         344.481 
           1265         530.996 
           1275         837.292 
           1285         1560.76 
           1295         2275.62 
           1305         2719.14 
           1315         3438.05 
           1325         4191.69 
           1335         5193.01 
           1345         6608.19 
           1355         8776.28 
           1365           11379 
           1375         13644.3 
           1385         15340.8 
           1395         18415.8 
           1405         28382.2 
           1415         50487.7 
           1425         61777.6 
           1435         81768.2 
           1442          106850 
           1447         93201.4 
           1455          113984 
           1465          113569 
           1475          133637 
           1485          157778 
           1495          187672 
           1505          214725 
           1512          238860 
           1517          203254 
           1525          217116 
           1535          218709 
           1545          181229 
           1555          166348 
           1565          129699 
           1575          117885 
           1585          113478 
           1595          110368 
           1605          119324 
           1615          192682 
           1625          435533 
           1635          895436 
           1645       1.8207e+6 
           1655       2.3587e+6 
           1665      3.71807e+6 
           1672      4.13885e+6 
           1677       4.5375e+6 
           1685      5.02315e+6 
           1695       5.4483e+6 
           1705       5.7985e+6 
           1715      6.27083e+6 
           1725      6.46636e+6 
           1735      6.77812e+6 
           1745      6.82586e+6 
           1755      7.05065e+6 
           1765      7.11623e+6 
           1775      7.29646e+6 
           1785      7.39903e+6 
           1795      7.66934e+6 
           1805      7.65201e+6 
           1815      7.77297e+6 
           1825      7.84502e+6 
           1835      8.02726e+6 
           1845      7.93782e+6 
           1855      8.20237e+6 
           1865      8.40135e+6 
           1875      8.49821e+6 
           1885      8.60814e+6 
           1895      8.71025e+6 
           1905      8.67686e+6 
           1915      8.88326e+6 
           1925      9.01843e+6 
           1935      8.94669e+6 
           1945      9.19919e+6 
           1955      9.27446e+6 
           1967        9.378e+6 
           1976      9.35461e+6 
           1984       9.3714e+6 
           1995      9.56016e+6 
           2005      9.56531e+6 
           2015      9.58009e+6 
           2025      9.58217e+6 
           2035       9.8048e+6 
           2045      9.85688e+6 
           2055       9.7594e+6 
           2065      9.84887e+6 
           2074      1.00745e+7 
           2078      1.00951e+7 
           2085      1.01115e+7 
           2095      1.01645e+7 
           2105      1.02178e+7 
           2115      1.02688e+7 
           2125      1.02316e+7 
           2135      1.03112e+7 
           2145      1.04257e+7 
           2155      1.04509e+7 
           2165      1.03449e+7 
           2175      1.04411e+7 
           2185       1.0562e+7 
           2195      1.06794e+7 
           2205       1.0582e+7 
           2215      1.03953e+7 
           2225      1.05851e+7 
           2235      1.08277e+7 
           2245      1.08033e+7 
           2255      1.06765e+7 
           2265      1.05994e+7 
           2275      1.08434e+7 
           2285      1.09038e+7 
           2295      1.08791e+7 
           2305      1.09877e+7 
           2315      1.09837e+7 
           2325      1.10044e+7 
           2335      1.09497e+7 
           2345      1.06537e+7 
           2355      1.10607e+7 
           2365      1.07552e+7 
           2375      1.10475e+7 
           2385      1.06213e+7 
           2395      1.10174e+7 
           2405      1.10595e+7 
           2415      1.10876e+7 
           2425      1.14089e+7 
           2435      1.13231e+7 
           2445      1.13957e+7 
           2455      1.14694e+7 
           2465      1.13963e+7 
           2475      1.13893e+7 
           2485      1.13686e+7 
           2495      1.13406e+7 
           2505        1.156e+7 
           2513      1.13481e+7 
           2518      1.13643e+7 
           2525      1.12996e+7 
           2535      1.13285e+7 
           2545      1.15025e+7 
           2555      1.17202e+7 
           2565      1.16176e+7 
           2575      1.17179e+7 
           2585      1.17615e+7 
           2595      1.17393e+7 
           2605      1.16904e+7 
           2615      1.16535e+7 
           2625      1.16885e+7 
           2635      1.18072e+7 
           2645       1.2116e+7 
           2655      1.21265e+7 
           2665      1.20431e+7 
           2675       1.2089e+7 
           2685      1.21925e+7 
           2695      1.21784e+7 
           2705      1.22204e+7 
           2715      1.20845e+7 
           2725       1.2102e+7 
           2735      1.21597e+7 
           2745      1.18218e+7 
           2755      1.19332e+7 
           2765      1.21599e+7 
           2775      1.23552e+7 
           2785      1.23473e+7 
           2795      1.17166e+7 
           2805      1.20914e+7 
           2815      1.24811e+7 
           2825      1.24944e+7 
           2835      1.24364e+7 
           2845      1.24803e+7 
           2855       1.2339e+7 
           2865      1.24508e+7 
           2875      1.25275e+7 
           2885      1.24988e+7 
           2895      1.26139e+7 
           2910      1.26564e+7 
           2930      1.26093e+7 
           2950      1.26168e+7 
           2970      1.27118e+7 
           2990      1.27244e+7 
           3010      1.27966e+7 
           3030      1.28281e+7 
           3050      1.28588e+7 
           3070      1.28313e+7 
           3090       1.2906e+7 
           3110      1.29314e+7 
           3130       1.2949e+7 
           3150      1.29597e+7 
           3170      1.29894e+7 
           3190      1.29574e+7 
           3210      1.30201e+7 
           3230      1.29612e+7 
           3250      1.30419e+7 
           3270      1.30963e+7 
           3290      1.31207e+7 
           3310      1.31366e+7 
           3330      1.31209e+7 
           3350       1.3094e+7 
           3370      1.31238e+7 
           3390      1.31389e+7 
           3410      1.31896e+7 
           3430       1.3197e+7 
           3450      1.31995e+7 
           3470      1.32061e+7 
           3490      1.32157e+7 
           3510      1.32233e+7 
           3530      1.32296e+7 
           3550      1.32328e+7 
           3570      1.32266e+7 
           3590      1.32287e+7 
           3610      1.32294e+7 
           3630      1.32292e+7 
           3640      1.32266e+7 
           3650      1.32925e+7 
           3670      1.31335e+7 
           3690      1.32776e+7 
           3710      1.62569e+7 
           3730      1.92815e+7 
           3750      2.57505e+7 
           3770      2.71025e+7 
           3790      3.14332e+7 
           3810      3.57548e+7 
           3830      2.95525e+7 
           3850      3.86273e+7 
           3870      4.18412e+7 
           3890      2.67483e+7 
           3910      4.15021e+7 
           3930      4.26589e+7 
           3950      4.11245e+7 
           3970      2.59632e+7 
           3990      3.97457e+7 
           4010      4.21475e+7 
           4030      4.20828e+7 
           4050      4.16452e+7 
           4070      4.06388e+7 
           4090      3.43532e+7 
           4110      2.74115e+7 
           4130      3.91176e+7 
           4150      3.97937e+7 
           4170      3.96317e+7 
           4190      3.93358e+7 
           4210      3.90182e+7 
           4230      3.86648e+7 
           4250      3.82851e+7 
           4270      3.78901e+7 
           4290      3.73984e+7 
           4310      3.63829e+7 
           4330      2.99392e+7 
           4350      2.59475e+7 
           4370      3.51993e+7 
           4390      3.57238e+7 
           4410      3.55884e+7 
           4430       3.5358e+7 
           4450      3.50904e+7 
           4470      3.47865e+7 
           4490      3.44792e+7 
           4510      3.41777e+7 
           4530      3.38785e+7 
           4550      3.35776e+7 
           4570      3.32916e+7 
           4590      3.30057e+7 
           4610      3.27235e+7 
           4630      3.24379e+7 
           4650      3.21612e+7 
           4670      3.18846e+7 
           4690      3.16115e+7 
           4710      3.13368e+7 
           4730      3.10724e+7 
           4750      3.08079e+7 
           4770      3.04872e+7 
           4790      3.01674e+7 
           4810      2.97803e+7 
           4830       2.9011e+7 
           4850      2.48035e+7 
           4870      2.06926e+7 
           4890      2.79426e+7 
           4910      2.84874e+7 
           4930      2.84102e+7 
           4950      2.82364e+7 
           4970        2.806e+7 
           4990      2.78264e+7 
           5010      2.75912e+7 
           5030      2.73648e+7 
           5050      2.71381e+7 
           5070      2.69127e+7 
           5090      2.66914e+7 
           5110      2.64714e+7 
           5130      2.62539e+7 
           5150       2.6039e+7 
           5170      2.58055e+7 
           5190      2.56056e+7 
           5210      2.54053e+7 
           5230      2.51976e+7 
           5250       2.4995e+7 
           5270      2.47894e+7 
           5290      2.45915e+7 
           5310      2.43906e+7 
           5330      2.41933e+7 
           5350      2.39996e+7 
           5370      2.38068e+7 
           5390      2.36149e+7 
           5410      2.34264e+7 
           5430      2.32389e+7 
           5450      2.30534e+7 
           5470      2.28713e+7 
           5490      2.26899e+7 
           5510      2.25106e+7 
           5530      2.23321e+7 
           5550      2.21567e+7 
           5570      2.19821e+7 
           5590      2.18094e+7 
           5610      2.16398e+7 
           5630      2.14709e+7 
           5650      2.13027e+7 
           5670      2.11374e+7 
           5690      2.09728e+7 
           5710      2.08088e+7 
           5730      2.06477e+7 
           5750      2.04884e+7 
           5770      2.03296e+7 
           5790      2.01726e+7 
           5810      2.00172e+7 
           5830      1.98634e+7 
           5850      1.97114e+7 
           5870      1.95598e+7 
           5890      1.94087e+7 
           5910      1.92635e+7 
           5930      1.91167e+7 
           5950      1.89724e+7 
           5970      1.88286e+7 
           5990      1.86863e+7 
           6010      1.85454e+7 
           6030       1.8406e+7 
           6050      1.82681e+7 
           6070      1.81315e+7 
           6090      1.79954e+7 
           6110      1.78616e+7 
           6130      1.77282e+7 
           6150      1.75961e+7 
           6170      1.74654e+7 
           6190       1.7336e+7 
           6210      1.72079e+7 
           6230      1.70811e+7 
           6250      1.69546e+7 
           6270      1.68304e+7 
           6290      1.67064e+7 
           6310      1.65836e+7 
           6330       1.6462e+7 
           6350      1.63417e+7 
           6370      1.62225e+7 
           6390      1.61045e+7 
           6410      1.59877e+7 
           6430       1.5872e+7 
           6450      1.57556e+7 
           6470      1.56295e+7 
           6490      1.54806e+7 
           6510       1.5318e+7 
           6530      1.50282e+7 
           6550      1.37459e+7 
           6570      1.13032e+7 
           6590      1.44652e+7 
           6610      1.47305e+7 
           6630      1.47069e+7 
           6650      1.46356e+7 
           6670      1.45589e+7 
           6690      1.44552e+7 
           6710      1.43532e+7 
           6730      1.42514e+7 
           6750      1.41514e+7 
           6770      1.40515e+7 
           6790      1.39525e+7 
           6810      1.38552e+7 
           6830       1.3758e+7 
           6850      1.36617e+7 
           6870      1.35663e+7 
           6890      1.34718e+7 
           6910      1.33782e+7 
           6930      1.32854e+7 
           6950      1.31934e+7 
           6970      1.31015e+7 
           6990      1.30112e+7 
           7010      1.29218e+7 
           7030      1.28324e+7 
           7050      1.27445e+7 
           7070      1.26567e+7 
           7090      1.25704e+7 
           7110      1.24841e+7 
           7130      1.23986e+7 
           7150      1.23139e+7 
           7170      1.22306e+7 
           7190      1.21473e+7 
           7210      1.20648e+7 
           7230       1.1983e+7 
           7250       1.1902e+7 
           7270      1.18216e+7 
           7290      1.17412e+7 
           7310      1.16623e+7 
           7330       1.1584e+7 
           7350      1.15064e+7 
           7370      1.14288e+7 
           7390      1.13525e+7 
           7410      1.12769e+7 
           7430      1.12012e+7 
           7450      1.11269e+7 
           7470      1.10526e+7 
           7490      1.09795e+7 
           7510      1.09064e+7 
           7530      1.08346e+7 
           7550      1.07628e+7 
           7570      1.06915e+7 
           7590      1.06215e+7 
           7610      1.05514e+7 
           7630      1.04819e+7 
           7650       1.0413e+7 
           7670      1.03447e+7 
           7690      1.02776e+7 
           7710      1.02104e+7 
           7730      1.01438e+7 
           7750      1.00777e+7 
           7770      1.00109e+7 
           7790      9.94715e+6 
           7810      9.88268e+6 
           7830      9.81874e+6 
           7850      9.75532e+6 
           7870      9.69242e+6 
           7890      9.63003e+6 
           7910      9.56815e+6 
           7930      9.50676e+6 
           7950      9.44528e+6 
           7970      9.38489e+6 
           7990      9.32498e+6 
           8010      9.26556e+6 
           8030      9.20661e+6 
           8050      9.14813e+6 
           8070      9.08953e+6 
           8090      9.03198e+6 
           8110      8.97489e+6 
           8130      8.91768e+6 
           8150      8.86149e+6 
           8170      8.80574e+6 
           8190      8.74986e+6 
           8210      8.70617e+6 
           8230      8.65501e+6 
           8250      8.60479e+6 
           8270      8.55441e+6 
           8290      8.50222e+6 
           8310      8.44498e+6 
           8330       8.3833e+6 
           8350      8.33022e+6 
           8370      8.23238e+6 
           8390       8.1814e+6 
           8410      8.10099e+6 
           8430      8.11826e+6 
           8450      8.07777e+6 
           8470      7.79758e+6 
           8490       8.1581e+6 
           8510      7.61469e+6 
           8530      8.17186e+6 
           8550      7.34829e+6 
           8570      8.21168e+6 
