# Kurucz ODFNEW /NOVER (2003)
# teff = 6750 K (value for the effective temperature for the model. Temperatures are given in K)
# logg = 2 log(cm/s2) (value for Log(G) for the model.)
# meta = -4  (value for the Metallicity for the model.)
# lh = 1.25  (l/Hp where l is the  mixing length of the convective element and Hp is the pressure scale height)
# vtur = 2 km/s (Microturbulence velocity)
# alpha = 0.4  (Alpha)
#
# column 1: WAVELENGTH (ANGSTROM), Wavelength in Angstrom
# column 2: FLUX (ERG/CM2/S/A), Flux in erg/cm2/s/A
          147.2     1.73866e-35 
            151     1.65225e-35 
          155.2     1.56403e-35 
          158.8     1.49392e-35 
            162     1.43549e-35 
            166     1.36714e-35 
          170.3     1.29897e-35 
          173.4     1.25294e-35 
          176.8     1.20522e-35 
          180.2     1.16017e-35 
          181.7     1.14109e-35 
          186.1     1.08777e-35 
            191     1.03267e-35 
          193.9     1.00201e-35 
          198.4     9.57076e-36 
          201.8     9.25097e-36 
            205     8.96441e-36 
          210.5     8.50208e-36 
          216.2     8.05969e-36 
          219.8     7.79784e-36 
            223     7.57565e-36 
          226.8     7.32392e-36 
            230     7.12154e-36 
            234     6.88015e-36 
            240     6.54044e-36 
          246.5     6.20006e-36 
          252.4     5.91358e-36 
          256.8     5.71267e-36 
            260     5.57292e-36 
            264     5.40532e-36 
          268.5     5.22566e-36 
          273.5     5.03634e-36 
          278.5     4.85712e-36 
            284     4.67082e-36 
            290     4.47954e-36 
            296     4.29978e-36 
            301     4.15812e-36 
            308     3.97126e-36 
            318     3.72542e-36 
            328     3.50172e-36 
            338     3.64416e-23 
            348     4.19864e-22 
            357     3.04933e-21 
            366     1.99083e-20 
            375      1.1837e-19 
            385     7.75469e-19 
            395     4.60405e-18 
            405     2.49545e-17 
            414     1.06252e-16 
            422     3.64959e-16 
            430      1.1952e-15 
            441     5.67706e-15 
            451     2.18535e-14 
            460     6.97733e-14 
            470     2.40056e-13 
            480     7.82678e-13 
            490     2.42654e-12 
            500     7.17579e-12 
            506     1.32366e-11 
            512      2.4862e-11 
            520     5.50577e-11 
            530     1.43557e-10 
            540     3.60645e-10 
            550     8.74685e-10 
            560      2.05195e-9 
            570      4.66477e-9 
            580      1.02925e-8 
            590      2.20767e-8 
            600      4.60981e-8 
            610      9.38341e-8 
            620      1.86424e-7 
            630      3.61932e-7 
            640      6.87384e-7 
            650      1.27847e-6 
            658      2.07018e-6 
            665       3.1245e-6 
            675       5.5376e-6 
            685      9.64093e-6 
            695      1.65027e-5 
            705      2.77924e-5 
            716      4.84308e-5 
            726      7.89946e-5 
            735     0.000121215 
            745     0.000192544 
            755     0.000301846 
            765     0.000467255 
            775     0.000714602 
            785      0.00108026 
            795      0.00161475 
            805      0.00238795 
            815      0.00349491 
            825      0.00506424 
            835      0.00726794 
            845       0.0103349 
            855       0.0145652 
            865       0.0203509 
            875       0.0281997 
            885       0.0387636 
            895       0.0528722 
            905       0.0715856 
            915        0.145688 
            925        0.526464 
            935        0.845958 
            945         1.43837 
            955         2.24218 
            965         2.17192 
            975         1.42401 
            985         5.29629 
            995         6.23985 
           1005         6.16926 
           1015         4.03963 
           1025          6.0309 
           1035         8.08937 
           1045         16.5336 
           1055         23.9622 
           1065         32.2578 
           1075         39.4847 
           1085         47.2662 
           1095         53.0741 
           1105         59.6615 
           1115         65.8597 
           1125         69.6977 
           1135         50.6449 
           1145         38.3647 
           1155         31.7164 
           1165         27.8406 
           1175         25.5012 
           1185          168.94 
           1195         83.9422 
           1205         78.5203 
           1215         69.4878 
           1225         102.671 
           1235         146.643 
           1245         51.6913 
           1255         66.1718 
           1265         84.1825 
           1275         108.878 
           1285         147.961 
           1295         201.151 
           1305         274.259 
           1315         392.606 
           1325         577.511 
           1335         850.176 
           1345         1342.69 
           1355         1340.39 
           1365         1562.06 
           1375         1847.42 
           1385         2161.72 
           1395         2529.05 
           1405         2951.77 
           1415         3381.72 
           1425         3927.73 
           1435         4516.23 
           1442         5019.64 
           1447         5336.95 
           1455         5903.92 
           1465         6681.95 
           1475         7591.47 
           1485         8625.28 
           1495         9878.97 
           1505         11143.1 
           1512         12187.6 
           1517         12457.8 
           1525         13513.1 
           1535         14800.2 
           1545         15845.5 
           1555         17130.3 
           1565         17933.4 
           1575         19762.7 
           1585         21403.6 
           1595         23207.7 
           1605         25121.9 
           1615           28453 
           1625         35593.9 
           1635         58099.9 
           1645          145734 
           1655          255112 
           1665          549352 
           1672          694493 
           1677          849002 
           1685      1.05281e+6 
           1695      1.27732e+6 
           1705      1.48267e+6 
           1715      1.71212e+6 
           1725      1.83767e+6 
           1735      2.00077e+6 
           1745      2.06315e+6 
           1755      2.20104e+6 
           1765       2.2278e+6 
           1775       2.3514e+6 
           1785      2.43024e+6 
           1795       2.5847e+6 
           1805      2.61049e+6 
           1815      2.70211e+6 
           1825      2.75029e+6 
           1835       2.8721e+6 
           1845       2.8446e+6 
           1855      3.01546e+6 
           1865      3.13733e+6 
           1875      3.21186e+6 
           1885      3.30002e+6 
           1895      3.37963e+6 
           1905      3.38037e+6 
           1915      3.52853e+6 
           1925      3.64476e+6 
           1935      3.64854e+6 
           1945       3.8081e+6 
           1955      3.87816e+6 
           1967      3.97986e+6 
           1976      3.97563e+6 
           1984      4.02096e+6 
           1995      4.15876e+6 
           2005      4.18017e+6 
           2015      4.21876e+6 
           2025      4.24757e+6 
           2035      4.41826e+6 
           2045      4.47929e+6 
           2055      4.45846e+6 
           2065      4.54375e+6 
           2074      4.70409e+6 
           2078      4.72586e+6 
           2085      4.74627e+6 
           2095      4.80355e+6 
           2105      4.86294e+6 
           2115      4.93143e+6 
           2125      4.94586e+6 
           2135       4.9846e+6 
           2145      5.10379e+6 
           2155      5.14561e+6 
           2165      5.11506e+6 
           2175      5.20232e+6 
           2185      5.29487e+6 
           2195       5.4161e+6 
           2205      5.38351e+6 
           2215      5.27643e+6 
           2225         5.43e+6 
           2235      5.62173e+6 
           2245      5.61339e+6 
           2255      5.54919e+6 
           2265      5.51315e+6 
           2275      5.72916e+6 
           2285      5.79371e+6 
           2295      5.78689e+6 
           2305      5.88328e+6 
           2315      5.90011e+6 
           2325      5.94934e+6 
           2335      5.93511e+6 
           2345      5.78094e+6 
           2355      6.06636e+6 
           2365       5.9035e+6 
           2375      6.08765e+6 
           2385      5.81265e+6 
           2395      6.11683e+6 
           2405        6.157e+6 
           2415      6.20708e+6 
           2425      6.45561e+6 
           2435      6.40015e+6 
           2445      6.49474e+6 
           2455       6.5482e+6 
           2465      6.50262e+6 
           2475      6.50922e+6 
           2485      6.52832e+6 
           2495      6.52995e+6 
           2505      6.72407e+6 
           2513      6.56619e+6 
           2518       6.5752e+6 
           2525      6.51988e+6 
           2535      6.57407e+6 
           2545       6.7034e+6 
           2555      6.91591e+6 
           2565      6.88557e+6 
           2575      6.99639e+6 
           2585      7.05343e+6 
           2595      7.04057e+6 
           2605      7.00106e+6 
           2615       7.0005e+6 
           2625       7.0506e+6 
           2635      7.15942e+6 
           2645      7.42902e+6 
           2655      7.44798e+6 
           2665      7.37044e+6 
           2675      7.43706e+6 
           2685      7.54689e+6 
           2695      7.53767e+6 
           2705      7.59583e+6 
           2715      7.49143e+6 
           2725      7.53294e+6 
           2735      7.60084e+6 
           2745      7.35357e+6 
           2755      7.43579e+6 
           2765      7.62257e+6 
           2775      7.80256e+6 
           2785      7.80394e+6 
           2795      7.22834e+6 
           2805      7.55659e+6 
           2815      7.98174e+6 
           2825      8.00417e+6 
           2835      7.95249e+6 
           2845      7.99954e+6 
           2855      7.89738e+6 
           2865      7.97866e+6 
           2875      8.06865e+6 
           2885      8.07074e+6 
           2895      8.19039e+6 
           2910      8.25432e+6 
           2930      8.22846e+6 
           2950      8.25233e+6 
           2970      8.35126e+6 
           2990      8.38867e+6 
           3010      8.48089e+6 
           3030      8.53098e+6 
           3050       8.5851e+6 
           3070      8.56474e+6 
           3090      8.66926e+6 
           3110      8.71392e+6 
           3130      8.75058e+6 
           3150      8.77725e+6 
           3170      8.82318e+6 
           3190      8.80878e+6 
           3210      8.88874e+6 
           3230      8.84472e+6 
           3250      8.93914e+6 
           3270      9.02884e+6 
           3290      9.07637e+6 
           3310      9.11143e+6 
           3330      9.09472e+6 
           3350      9.08011e+6 
           3370       9.1342e+6 
           3390      9.16147e+6 
           3410      9.25001e+6 
           3430      9.27598e+6 
           3450      9.28807e+6 
           3470      9.31303e+6 
           3490      9.34485e+6 
           3510      9.37443e+6 
           3530      9.39972e+6 
           3550      9.42235e+6 
           3570      9.42466e+6 
           3590      9.44564e+6 
           3610      9.46499e+6 
           3630      9.48449e+6 
           3640      9.49102e+6 
           3650        9.544e+6 
           3670      9.44586e+6 
           3690      9.86058e+6 
           3710      1.23651e+7 
           3730      1.49407e+7 
           3750      1.94836e+7 
           3770      2.02263e+7 
           3790      2.27549e+7 
           3810      2.53317e+7 
           3830      2.14423e+7 
           3850      2.68902e+7 
           3870       2.8419e+7 
           3890      2.00184e+7 
           3910      2.81781e+7 
           3930      2.83482e+7 
           3950       2.7987e+7 
           3970      1.94848e+7 
           3990      2.73174e+7 
           4010      2.82241e+7 
           4030      2.81325e+7 
           4050      2.79174e+7 
           4070      2.74595e+7 
           4090      2.45364e+7 
           4110      2.02728e+7 
           4130      2.67602e+7 
           4150      2.69491e+7 
           4170      2.68342e+7 
           4190      2.66859e+7 
           4210      2.64946e+7 
           4230      2.62931e+7 
           4250      2.61213e+7 
           4270      2.58978e+7 
           4290      2.56487e+7 
           4310      2.51983e+7 
           4330      2.19721e+7 
           4350      1.93877e+7 
           4370      2.46019e+7 
           4390      2.47281e+7 
           4410      2.46322e+7 
           4430      2.45082e+7 
           4450      2.43283e+7 
           4470      2.41582e+7 
           4490      2.39884e+7 
           4510       2.3815e+7 
           4530        2.364e+7 
           4550      2.34636e+7 
           4570      2.33056e+7 
           4590      2.31422e+7 
           4610      2.29809e+7 
           4630      2.28144e+7 
           4650      2.26552e+7 
           4670      2.24944e+7 
           4690      2.23337e+7 
           4710      2.21733e+7 
           4730      2.20182e+7 
           4750      2.18632e+7 
           4770      2.17068e+7 
           4790      2.15177e+7 
           4810      2.13065e+7 
           4830      2.09544e+7 
           4850      1.87896e+7 
           4870      1.60655e+7 
           4890      2.03725e+7 
           4910      2.05475e+7 
           4930      2.04617e+7 
           4950       2.0369e+7 
           4970      2.02283e+7 
           4990      2.00876e+7 
           5010      1.99441e+7 
           5030      1.98081e+7 
           5050      1.96693e+7 
           5070       1.9532e+7 
           5090      1.93962e+7 
           5110      1.92606e+7 
           5130      1.91264e+7 
           5150      1.89924e+7 
           5170       1.8833e+7 
           5190      1.87161e+7 
           5210      1.85991e+7 
           5230      1.84667e+7 
           5250      1.83441e+7 
           5270      1.82132e+7 
           5290      1.80906e+7 
           5310      1.79653e+7 
           5330        1.784e+7 
           5350        1.772e+7 
           5370      1.75974e+7 
           5390      1.74774e+7 
           5410      1.73575e+7 
           5430      1.72388e+7 
           5450      1.71214e+7 
           5470      1.70052e+7 
           5490       1.6889e+7 
           5510      1.67753e+7 
           5530      1.66604e+7 
           5550      1.65478e+7 
           5570      1.64353e+7 
           5590      1.63239e+7 
           5610      1.62137e+7 
           5630      1.61035e+7 
           5650      1.59944e+7 
           5670      1.58865e+7 
           5690      1.57796e+7 
           5710      1.56727e+7 
           5730      1.55681e+7 
           5750      1.54634e+7 
           5770      1.53598e+7 
           5790      1.52572e+7 
           5810      1.51546e+7 
           5830      1.50541e+7 
           5850      1.49536e+7 
           5870      1.48541e+7 
           5890      1.47512e+7 
           5910      1.46569e+7 
           5930      1.45603e+7 
           5950      1.44637e+7 
           5970       1.4368e+7 
           5990      1.42733e+7 
           6010      1.41795e+7 
           6030      1.40856e+7 
           6050      1.39936e+7 
           6070      1.39016e+7 
           6090      1.38104e+7 
           6110      1.37201e+7 
           6130      1.36297e+7 
           6150      1.35412e+7 
           6170      1.34516e+7 
           6190      1.33648e+7 
           6210      1.32779e+7 
           6230      1.31918e+7 
           6250      1.31056e+7 
           6270      1.30212e+7 
           6290      1.29366e+7 
           6310      1.28528e+7 
           6330      1.27699e+7 
           6350      1.26877e+7 
           6370      1.26063e+7 
           6390      1.25247e+7 
           6410      1.24448e+7 
           6430      1.23648e+7 
           6450      1.22846e+7 
           6470      1.22061e+7 
           6490      1.21158e+7 
           6510       1.2005e+7 
           6530      1.18432e+7 
           6550      1.11072e+7 
           6570       9.3168e+6 
           6590      1.14967e+7 
           6610      1.16066e+7 
           6630      1.15726e+7 
           6650      1.15261e+7 
           6670      1.14529e+7 
           6690      1.13811e+7 
           6710      1.13092e+7 
           6730      1.12379e+7 
           6750      1.11673e+7 
           6770      1.10973e+7 
           6790      1.10271e+7 
           6810      1.09584e+7 
           6830      1.08895e+7 
           6850       1.0822e+7 
           6870      1.07543e+7 
           6890      1.06872e+7 
           6910      1.06206e+7 
           6930      1.05547e+7 
           6950      1.04894e+7 
           6970      1.04246e+7 
           6990      1.03597e+7 
           7010       1.0296e+7 
           7030      1.02322e+7 
           7050      1.01689e+7 
           7070      1.01062e+7 
           7090       1.0044e+7 
           7110      9.98236e+6 
           7130      9.92125e+6 
           7150      9.86066e+6 
           7170      9.79986e+6 
           7190      9.74032e+6 
           7210      9.68056e+6 
           7230      9.62131e+6 
           7250      9.56257e+6 
           7270      9.50432e+6 
           7290      9.44657e+6 
           7310      9.38931e+6 
           7330      9.33183e+6 
           7350      9.27554e+6 
           7370      9.21902e+6 
           7390      9.16367e+6 
           7410       9.1081e+6 
           7430      9.05299e+6 
           7450      8.99834e+6 
           7470      8.94414e+6 
           7490       8.8904e+6 
           7510      8.83709e+6 
           7530      8.78423e+6 
           7550      8.73115e+6 
           7570      8.67916e+6 
           7590      8.62759e+6 
           7610       8.5758e+6 
           7630      8.52443e+6 
           7650      8.47412e+6 
           7670      8.42358e+6 
           7690      8.37345e+6 
           7710      8.32373e+6 
           7730       8.2744e+6 
           7750      8.22548e+6 
           7770       8.1757e+6 
           7790      8.12881e+6 
           7810      8.08044e+6 
           7830      8.03306e+6 
           7850      7.98607e+6 
           7870      7.93884e+6 
           7890      7.89199e+6 
           7910      7.84611e+6 
           7930      7.79999e+6 
           7950      7.75424e+6 
           7970      7.70885e+6 
           7990      7.66381e+6 
           8010      7.61913e+6 
           8030       7.5748e+6 
           8050      7.53081e+6 
           8070      7.48717e+6 
           8090      7.44386e+6 
           8110      7.40032e+6 
           8130      7.35768e+6 
           8150      7.31481e+6 
           8170      7.27283e+6 
           8190      7.23062e+6 
           8210      7.19599e+6 
           8230      7.15661e+6 
           8250      7.11808e+6 
           8270      7.07873e+6 
           8290      7.03749e+6 
           8310      6.99111e+6 
           8330      6.94292e+6 
           8350        6.907e+6 
           8370      6.82294e+6 
           8390      6.79366e+6 
           8410      6.73423e+6 
           8430      6.76274e+6 
           8450      6.72391e+6 
           8470      6.52573e+6 
           8490      6.79659e+6 
           8510      6.39326e+6 
           8530      6.79668e+6 
           8550      6.22793e+6 
           8570      6.80725e+6 
           8590      6.52695e+6 
