# Kurucz ODFNEW /NOVER (2003)
# teff = 22000 K (value for the effective temperature for the model. Temperatures are given in K)
# logg = 4.5 log(cm/s2) (value for Log(G) for the model.)
# meta = -1.5  (value for the Metallicity for the model.)
# lh = 1.25  (l/Hp where l is the  mixing length of the convective element and Hp is the pressure scale height)
# vtur = 2 km/s (Microturbulence velocity)
# alpha = 0.4  (Alpha)
#
# column 1: WAVELENGTH (ANGSTROM), Wavelength in Angstrom
# column 2: FLUX (ERG/CM2/S/A), Flux in erg/cm2/s/A
          147.2     1.02398e-17 
            151     5.64475e-17 
          155.2     3.39474e-16 
          158.8     1.46995e-15 
            162      5.1389e-15 
            166     2.30336e-14 
          170.3     1.07219e-13 
          173.4     3.10705e-13 
          176.8     9.57978e-13 
          180.2     2.83684e-12 
          181.7     4.52328e-12 
          186.1     1.70627e-11 
            191     6.98459e-11 
          193.9     1.55663e-10 
          198.4     5.16189e-10 
          201.8      1.23408e-9 
            205      2.73164e-9 
          210.5      1.01243e-8 
          216.2      3.67159e-8 
          219.8      8.00682e-8 
            223      1.56748e-7 
          226.8      3.39617e-7 
            230      1.83743e-6 
            234      4.38506e-6 
            240      1.25145e-5 
          246.5      3.66101e-5 
          252.4      9.29497e-5 
          256.8     0.000177499 
            260     0.000287423 
            264     0.000506949 
          268.5     0.000938737 
          273.5       0.0018157 
          278.5      0.00343437 
            284      0.00673765 
            290       0.0136227 
            296       0.0267033 
            301       0.0458765 
            308       0.0937455 
            318        0.252733 
            328        0.631466 
            338         1.49414 
            348         3.35281 
            357         6.66383 
            366         12.7975 
            375         23.6965 
            385         45.3905 
            395         83.8258 
            405         149.952 
            414          246.77 
            422          376.34 
            430         563.627 
            441         961.054 
            451         1521.49 
            460          2256.1 
            470         3429.28 
            480         5111.35 
            490         7485.95 
            500         10775.7 
            506         80917.8 
            512          252931 
            520          323355 
            530          458419 
            540          514127 
            550          734367 
            560          895814 
            570       1.1108e+6 
            580      1.15012e+6 
            590      1.53625e+6 
            600      1.91787e+6 
            610      2.30351e+6 
            620      2.68689e+6 
            630       3.1714e+6 
            640      3.61213e+6 
            650      4.21322e+6 
            658      4.79174e+6 
            665      5.24444e+6 
            675      5.89248e+6 
            685      6.68988e+6 
            695      7.76756e+6 
            705      8.70224e+6 
            716      9.90883e+6 
            726      1.10365e+7 
            735      1.22602e+7 
            745      1.37171e+7 
            755      1.52377e+7 
            765      1.67783e+7 
            775      1.85898e+7 
            785      2.04387e+7 
            795      2.22715e+7 
            805      2.43644e+7 
            815      2.64637e+7 
            825      2.88581e+7 
            835      3.07808e+7 
            845      3.36211e+7 
            855      3.61287e+7 
            865      3.91142e+7 
            875      4.20574e+7 
            885      4.53013e+7 
            895       4.8456e+7 
            905       5.0919e+7 
            915      7.73685e+7 
            925      3.52423e+8 
            935      1.12977e+9 
            945      5.00956e+9 
            955      9.91903e+9 
            965     1.39166e+10 
            975      3.99507e+9 
            985      1.9192e+10 
            995     1.93238e+10 
           1005     2.00605e+10 
           1015       1.619e+10 
           1025      2.81185e+9 
           1035     1.30955e+10 
           1045     2.02763e+10 
           1055     2.00366e+10 
           1065     1.79525e+10 
           1075     1.91396e+10 
           1085     1.76866e+10 
           1095     1.87905e+10 
           1105     1.73665e+10 
           1115     1.71691e+10 
           1125     1.60297e+10 
           1135     1.68873e+10 
           1145     1.55353e+10 
           1155     1.60881e+10 
           1165     1.59557e+10 
           1175      1.3587e+10 
           1185     1.51829e+10 
           1195      1.3271e+10 
           1205      9.26655e+9 
           1215      2.16359e+9 
           1225      9.15649e+9 
           1235     1.28551e+10 
           1245     1.32108e+10 
           1255     1.28557e+10 
           1265     1.26363e+10 
           1275     1.27833e+10 
           1285     1.25054e+10 
           1295     1.08372e+10 
           1305     1.06797e+10 
           1315     1.17547e+10 
           1325     1.13011e+10 
           1335     1.08145e+10 
           1345     1.08744e+10 
           1355     1.08411e+10 
           1365     1.03905e+10 
           1375     1.02546e+10 
           1385     1.01615e+10 
           1395      9.38675e+9 
           1405       9.4498e+9 
           1415      9.51031e+9 
           1425       9.3543e+9 
           1435      9.24286e+9 
           1442      9.23269e+9 
           1447      9.11826e+9 
           1455      8.94975e+9 
           1465      8.72566e+9 
           1475      8.57553e+9 
           1485      8.36151e+9 
           1495       8.2298e+9 
           1505      7.89659e+9 
           1512        7.734e+9 
           1517      7.76839e+9 
           1525      7.64741e+9 
           1535      7.28956e+9 
           1545      7.31971e+9 
           1555      7.05589e+9 
           1565      7.09029e+9 
           1575      7.07769e+9 
           1585      6.94713e+9 
           1595      6.87939e+9 
           1605      6.66187e+9 
           1615       6.5519e+9 
           1625      6.49904e+9 
           1635      6.45572e+9 
           1645        6.308e+9 
           1655      6.20133e+9 
           1665      6.18142e+9 
           1672      6.00728e+9 
           1677      6.08497e+9 
           1685      6.00039e+9 
           1695       5.8565e+9 
           1705      5.71297e+9 
           1715       5.5547e+9 
           1725       5.4796e+9 
           1735      5.44502e+9 
           1745      5.34531e+9 
           1755      5.31808e+9 
           1765       5.0801e+9 
           1775      5.07826e+9 
           1785      5.01809e+9 
           1795      5.00232e+9 
           1805      4.93503e+9 
           1815      4.79983e+9 
           1825      4.77158e+9 
           1835      4.68391e+9 
           1845      4.47855e+9 
           1855      4.37938e+9 
           1865      4.36893e+9 
           1875      4.39211e+9 
           1885      4.18394e+9 
           1895      4.03332e+9 
           1905       4.1306e+9 
           1915      3.99019e+9 
           1925      3.91204e+9 
           1935      3.93258e+9 
           1945      3.93487e+9 
           1955      3.75426e+9 
           1967      3.81034e+9 
           1976      3.83206e+9 
           1984      3.70092e+9 
           1995      3.59566e+9 
           2005      3.62258e+9 
           2015      3.60221e+9 
           2025      3.59235e+9 
           2035      3.48699e+9 
           2045      3.44324e+9 
           2055      3.33524e+9 
           2065      3.33676e+9 
           2074      3.35805e+9 
           2078      3.27926e+9 
           2085      3.27678e+9 
           2095      3.18918e+9 
           2105      3.19729e+9 
           2115       3.1673e+9 
           2125      3.15408e+9 
           2135      3.10212e+9 
           2145      3.04133e+9 
           2155      3.02501e+9 
           2165       2.9854e+9 
           2175       2.9424e+9 
           2185      2.90882e+9 
           2195       2.8798e+9 
           2205      2.83847e+9 
           2215      2.80154e+9 
           2225      2.75777e+9 
           2235      2.72771e+9 
           2245      2.69981e+9 
           2255      2.65843e+9 
           2265      2.63427e+9 
           2275      2.59974e+9 
           2285      2.57299e+9 
           2295      2.51536e+9 
           2305      2.50563e+9 
           2315      2.46864e+9 
           2325      2.44187e+9 
           2335      2.39675e+9 
           2345      2.36032e+9 
           2355      2.35173e+9 
           2365      2.31336e+9 
           2375      2.29058e+9 
           2385      2.25347e+9 
           2395      2.23278e+9 
           2405      2.20618e+9 
           2415      2.17632e+9 
           2425      2.16539e+9 
           2435       2.1329e+9 
           2445         2.11e+9 
           2455      2.09097e+9 
           2465      2.06201e+9 
           2475       2.0401e+9 
           2485      2.01676e+9 
           2495       1.9654e+9 
           2505      1.96901e+9 
           2513      1.93186e+9 
           2518      1.93762e+9 
           2525      1.92039e+9 
           2535       1.8949e+9 
           2545       1.8659e+9 
           2555      1.86044e+9 
           2565      1.83422e+9 
           2575      1.82228e+9 
           2585      1.80172e+9 
           2595      1.78081e+9 
           2605      1.77078e+9 
           2615      1.75373e+9 
           2625      1.73641e+9 
           2635      1.71425e+9 
           2645      1.70201e+9 
           2655      1.68087e+9 
           2665      1.65534e+9 
           2675      1.63846e+9 
           2685      1.63244e+9 
           2695      1.59945e+9 
           2705      1.59665e+9 
           2715      1.57858e+9 
           2725      1.54682e+9 
           2735       1.5459e+9 
           2745      1.51671e+9 
           2755      1.50379e+9 
           2765       1.4812e+9 
           2775      1.48238e+9 
           2785      1.46554e+9 
           2795      1.41852e+9 
           2805      1.42384e+9 
           2815      1.42144e+9 
           2825      1.38959e+9 
           2835      1.37376e+9 
           2845      1.37645e+9 
           2855      1.36285e+9 
           2865      1.34977e+9 
           2875      1.33561e+9 
           2885      1.32225e+9 
           2895      1.30886e+9 
           2910      1.28873e+9 
           2930      1.26075e+9 
           2950      1.22744e+9 
           2970      1.21344e+9 
           2990      1.18854e+9 
           3010      1.16594e+9 
           3030      1.14378e+9 
           3050      1.12162e+9 
           3070      1.10002e+9 
           3090      1.07774e+9 
           3110       1.0582e+9 
           3130      1.03945e+9 
           3150      1.01976e+9 
           3170      1.00037e+9 
           3190      9.72727e+8 
           3210      9.63166e+8 
           3230      9.45209e+8 
           3250      9.27869e+8 
           3270      9.12044e+8 
           3290      8.94202e+8 
           3310       8.7944e+8 
           3330      8.63642e+8 
           3350      8.46647e+8 
           3370      8.33111e+8 
           3390      8.18425e+8 
           3410      8.04058e+8 
           3430      7.86832e+8 
           3450      7.70487e+8 
           3470      7.59285e+8 
           3490      7.46153e+8 
           3510      7.34892e+8 
           3530      7.23897e+8 
           3550      7.11728e+8 
           3570      7.03598e+8 
           3590      6.87187e+8 
           3610      6.77657e+8 
           3630      6.64578e+8 
           3640      6.63632e+8 
           3650      6.53808e+8 
           3670       6.4603e+8 
           3690      6.33955e+8 
           3710      6.12003e+8 
           3730      5.85393e+8 
           3750       6.0992e+8 
           3770      6.11285e+8 
           3790      6.56964e+8 
           3810        6.941e+8 
           3830      5.93515e+8 
           3850      7.26162e+8 
           3870      7.46043e+8 
           3890      5.57398e+8 
           3910      7.37683e+8 
           3930      7.34243e+8 
           3950      7.15864e+8 
           3970      5.20125e+8 
           3990      6.83764e+8 
           4010      6.90268e+8 
           4030      6.41402e+8 
           4050      6.77872e+8 
           4070      6.60582e+8 
           4090       5.8581e+8 
           4110      4.99879e+8 
           4130      6.16239e+8 
           4150      6.16001e+8 
           4170      6.12966e+8 
           4190      6.05583e+8 
           4210      5.96145e+8 
           4230      5.86247e+8 
           4250      5.76362e+8 
           4270      5.64384e+8 
           4290      5.55695e+8 
           4310      5.41383e+8 
           4330      4.70387e+8 
           4350      4.24541e+8 
           4370      5.13382e+8 
           4390      4.93878e+8 
           4410      5.05409e+8 
           4430      4.95942e+8 
           4450      4.90771e+8 
           4470      4.54676e+8 
           4490      4.73638e+8 
           4510      4.68872e+8 
           4530      4.61492e+8 
           4550      4.54259e+8 
           4570      4.47279e+8 
           4590      4.40654e+8 
           4610      4.34038e+8 
           4630      4.27467e+8 
           4650      4.20348e+8 
           4670      4.14682e+8 
           4690      4.08738e+8 
           4710      3.96121e+8 
           4730      3.96163e+8 
           4750      3.90012e+8 
           4770      3.85159e+8 
           4790      3.79092e+8 
           4810      3.72136e+8 
           4830      3.63118e+8 
           4850      3.23501e+8 
           4870      2.84998e+8 
           4890      3.45297e+8 
           4910      3.45178e+8 
           4930      3.31254e+8 
           4950      3.37807e+8 
           4970      3.33264e+8 
           4990      3.28525e+8 
           5010      3.18838e+8 
           5030      3.19315e+8 
           5050      3.11975e+8 
           5070      3.10589e+8 
           5090      3.06291e+8 
           5110      3.02037e+8 
           5130      2.97869e+8 
           5150       2.9377e+8 
           5170      2.89838e+8 
           5190      2.85889e+8 
           5210      2.81699e+8 
           5230      2.78241e+8 
           5250      2.74485e+8 
           5270      2.70791e+8 
           5290      2.67199e+8 
           5310       2.6364e+8 
           5330      2.60101e+8 
           5350      2.56567e+8 
           5370      2.53327e+8 
           5390      2.49985e+8 
           5410      2.46711e+8 
           5430      2.43377e+8 
           5450      2.40275e+8 
           5470      2.37174e+8 
           5490      2.34161e+8 
           5510      2.31137e+8 
           5530      2.28162e+8 
           5550      2.25261e+8 
           5570      2.22383e+8 
           5590      2.19577e+8 
           5610      2.16746e+8 
           5630      2.14067e+8 
           5650      2.11174e+8 
           5670      2.08585e+8 
           5690      2.06039e+8 
           5710      2.03535e+8 
           5730      2.01016e+8 
           5750      1.98503e+8 
           5770      1.96088e+8 
           5790       1.9368e+8 
           5810      1.91299e+8 
           5830      1.88958e+8 
           5850      1.86667e+8 
           5870      1.77831e+8 
           5890      1.81631e+8 
           5910      1.79962e+8 
           5930      1.77807e+8 
           5950      1.75624e+8 
           5970      1.73583e+8 
           5990      1.71481e+8 
           6010      1.69476e+8 
           6030      1.67462e+8 
           6050      1.65492e+8 
           6070      1.63545e+8 
           6090      1.61619e+8 
           6110      1.59735e+8 
           6130      1.57872e+8 
           6150      1.55991e+8 
           6170      1.54219e+8 
           6190      1.52447e+8 
           6210      1.50686e+8 
           6230      1.48953e+8 
           6250      1.47229e+8 
           6270      1.45563e+8 
           6290      1.43906e+8 
           6310      1.42257e+8 
           6330      1.40664e+8 
           6350      1.38901e+8 
           6370      1.37427e+8 
           6390      1.35959e+8 
           6410      1.34433e+8 
           6430      1.32951e+8 
           6450      1.31467e+8 
           6470       1.2999e+8 
           6490      1.28519e+8 
           6510      1.26735e+8 
           6530      1.24555e+8 
           6550      1.16718e+8 
           6570      1.02393e+8 
           6590      1.19157e+8 
           6610      1.19756e+8 
           6630       1.1888e+8 
           6650      1.17834e+8 
           6670      1.15139e+8 
           6690      1.13955e+8 
           6710      1.14071e+8 
           6730      1.12854e+8 
           6750      1.11657e+8 
           6770      1.10464e+8 
           6790      1.09266e+8 
           6810      1.08138e+8 
           6830      1.06997e+8 
           6850      1.05867e+8 
           6870      1.04757e+8 
           6890      1.03665e+8 
           6910      1.02577e+8 
           6930      1.01507e+8 
           6950      1.00456e+8 
           6970       9.9415e+7 
           6990       9.8392e+7 
           7010      9.73791e+7 
           7030       9.6376e+7 
           7050      9.53828e+7 
           7070       9.2824e+7 
           7090      9.34477e+7 
           7110      9.24979e+7 
           7130      9.15648e+7 
           7150      9.06332e+7 
           7170      8.97032e+7 
           7190      8.88187e+7 
           7210       8.7928e+7 
           7230      8.68729e+7 
           7250       8.6172e+7 
           7270      8.53208e+7 
           7290      8.37616e+7 
           7310      8.36211e+7 
           7330      8.28078e+7 
           7350      8.19882e+7 
           7370      8.11832e+7 
           7390      8.03856e+7 
           7410      7.96024e+7 
           7430      7.88195e+7 
           7450      7.80711e+7 
           7470      7.73093e+7 
           7490      7.65612e+7 
           7510      7.57933e+7 
           7530      7.50922e+7 
           7550      7.43711e+7 
           7570      7.36565e+7 
           7590      7.29484e+7 
           7610      7.22532e+7 
           7630      7.15643e+7 
           7650       7.0888e+7 
           7670      7.02178e+7 
           7690      6.95537e+7 
           7710      6.88954e+7 
           7730      6.82493e+7 
           7750      6.76027e+7 
           7770      6.68932e+7 
           7790      6.63515e+7 
           7810       6.5691e+7 
           7830      6.51223e+7 
           7850      6.45647e+7 
           7870      6.39694e+7 
           7890      6.33247e+7 
           7910      6.28122e+7 
           7930      6.22322e+7 
           7950      6.16334e+7 
           7970       6.1016e+7 
           7990      6.04395e+7 
           8010      5.98738e+7 
           8030      5.93072e+7 
           8050      5.87803e+7 
           8070      5.82926e+7 
           8090      5.76652e+7 
           8110      5.72293e+7 
           8130      5.67418e+7 
           8150      5.61817e+7 
           8170      5.57473e+7 
           8190      5.51816e+7 
           8210      5.45788e+7 
           8230      5.42305e+7 
           8250      5.37824e+7 
           8270      5.30698e+7 
           8290      5.28141e+7 
           8310      5.23758e+7 
           8330      5.18954e+7 
           8350      5.12041e+7 
           8370      5.09183e+7 
           8390      5.05543e+7 
           8410      5.01069e+7 
           8430      4.96246e+7 
           8450      4.88591e+7 
           8470      4.87153e+7 
           8490      4.82075e+7 
           8510       4.7744e+7 
           8530      4.73842e+7 
           8550      4.64639e+7 
           8570      4.70352e+7 
