# Kurucz ODFNEW /NOVER (2003)
# teff = 8750 K (value for the effective temperature for the model. Temperatures are given in K)
# logg = 5 log(cm/s2) (value for Log(G) for the model.)
# meta = -2  (value for the Metallicity for the model.)
# lh = 1.25  (l/Hp where l is the  mixing length of the convective element and Hp is the pressure scale height)
# vtur = 2 km/s (Microturbulence velocity)
# alpha = 0.4  (Alpha)
#
# column 1: WAVELENGTH (ANGSTROM), Wavelength in Angstrom
# column 2: FLUX (ERG/CM2/S/A), Flux in erg/cm2/s/A
          268.5     1.64608e-23 
          273.5     1.17674e-22 
          278.5     5.31175e-22 
            284     2.47306e-21 
            290     1.23152e-20 
            296     5.72903e-20 
            301     1.96587e-19 
            308     1.03062e-18 
            318     9.64511e-18 
            328     7.84141e-17 
            338     5.60755e-16 
            348     3.56683e-15 
            357     1.72005e-14 
            366     7.65406e-14 
            375     3.16145e-13 
            385     1.40975e-12 
            395      5.8094e-12 
            405     2.22549e-11 
            414     7.03406e-11 
            422     1.87377e-10 
            430     4.80437e-10 
            441      1.65388e-9 
            451      4.81615e-9 
            460       1.2087e-8 
            470      3.21695e-8 
            480      8.20171e-8 
            490      2.00839e-7 
            500      4.73549e-7 
            506      7.79088e-7 
            512      1.26537e-6 
            520       2.3717e-6 
            530      5.05601e-6 
            540      1.04625e-5 
            550      2.10495e-5 
            560      4.12408e-5 
            570      7.87897e-5 
            580     0.000146985 
            590     0.000268072 
            600     0.000478551 
            610     0.000837056 
            620      0.00143606 
            630      0.00241879 
            640       0.0040033 
            650      0.00651595 
            658      0.00951125 
            665       0.0131354 
            675       0.0205735 
            685       0.0317682 
            695       0.0483959 
            705       0.0727756 
            716        0.112375 
            726        0.164744 
            735        0.230204 
            745        0.330421 
            755        0.469338 
            765        0.659956 
            775        0.919204 
            785         1.26837 
            795         1.73467 
            805         2.35226 
            815         3.16346 
            825         4.22092 
            835         5.58914 
            845         7.34597 
            855         9.58798 
            865         12.4278 
            875         16.0041 
            885          20.478 
            895         26.0424 
            905         32.9235 
            915          51.882 
            925         179.263 
            935         322.598 
            945         631.563 
            955         978.107 
            965         1357.56 
            975         976.594 
            985         2370.79 
            995         3052.34 
           1005          3551.5 
           1015          3268.6 
           1025         1848.17 
           1035         4296.84 
           1045         6542.25 
           1055         7873.23 
           1065         9525.64 
           1075         11283.7 
           1085         13434.5 
           1095         14935.3 
           1105         20322.6 
           1115           39760 
           1125         40827.4 
           1135         44243.4 
           1145         38959.6 
           1155         35653.1 
           1165         36098.4 
           1175         35265.6 
           1185         37315.5 
           1195         27249.1 
           1205         20481.1 
           1215         8833.67 
           1225         22855.7 
           1235         41355.1 
           1245         52704.8 
           1255         71156.5 
           1265         88431.9 
           1275          117779 
           1285          236433 
           1295          367266 
           1305          648173 
           1315          996493 
           1325      1.47119e+6 
           1335      2.09287e+6 
           1345      2.82449e+6 
           1355      3.30147e+6 
           1365      3.91161e+6 
           1375      3.46277e+6 
           1385      2.72851e+6 
           1395      2.58422e+6 
           1405      4.87528e+6 
           1415      9.60966e+6 
           1425      1.05994e+7 
           1435      1.09243e+7 
           1442      1.30068e+7 
           1447       1.1544e+7 
           1455      1.35516e+7 
           1465      1.22149e+7 
           1475       1.2917e+7 
           1485      1.35566e+7 
           1495      1.40622e+7 
           1505      1.50632e+7 
           1512      1.52131e+7 
           1517       1.3296e+7 
           1525       1.3241e+7 
           1535      1.29428e+7 
           1545      1.15232e+7 
           1555      9.49401e+6 
           1565      6.59793e+6 
           1575      7.03578e+6 
           1585      6.54224e+6 
           1595      5.89893e+6 
           1605      6.12574e+6 
           1615      9.74833e+6 
           1625      1.51369e+7 
           1635      2.22538e+7 
           1645       3.3386e+7 
           1655      3.28201e+7 
           1665       4.4417e+7 
           1672      4.32643e+7 
           1677       4.7304e+7 
           1685      5.05738e+7 
           1695      4.82493e+7 
           1705      5.05295e+7 
           1715      5.44391e+7 
           1725      5.42782e+7 
           1735      5.66203e+7 
           1745      5.53819e+7 
           1755        5.743e+7 
           1765       5.3788e+7 
           1775      5.70757e+7 
           1785      5.70907e+7 
           1795      5.92146e+7 
           1805      5.73693e+7 
           1815      5.76091e+7 
           1825      5.67375e+7 
           1835       5.7818e+7 
           1845      5.50072e+7 
           1855      5.73411e+7 
           1865      5.84575e+7 
           1875      5.85214e+7 
           1885      5.86868e+7 
           1895      5.88086e+7 
           1905      5.74122e+7 
           1915      5.88441e+7 
           1925       5.9681e+7 
           1935      5.80143e+7 
           1945      6.01379e+7 
           1955      6.00486e+7 
           1967       6.0361e+7 
           1976       5.8807e+7 
           1984      5.85644e+7 
           1995      5.92664e+7 
           2005      5.81509e+7 
           2015      5.77505e+7 
           2025       5.7041e+7 
           2035      5.88588e+7 
           2045      5.89368e+7 
           2055      5.72816e+7 
           2065       5.7745e+7 
           2074      5.90159e+7 
           2078      5.92207e+7 
           2085      5.87484e+7 
           2095      5.83434e+7 
           2105        5.798e+7 
           2115      5.80073e+7 
           2125      5.78198e+7 
           2135      5.64372e+7 
           2145      5.80886e+7 
           2155      5.73974e+7 
           2165      5.59674e+7 
           2175      5.62312e+7 
           2185      5.65596e+7 
           2195      5.76538e+7 
           2205       5.6265e+7 
           2215      5.40143e+7 
           2225      5.49134e+7 
           2235      5.70868e+7 
           2245       5.5808e+7 
           2255      5.42673e+7 
           2265      5.34565e+7 
           2275      5.51727e+7 
           2285      5.55942e+7 
           2295      5.41774e+7 
           2305       5.4628e+7 
           2315      5.41247e+7 
           2325      5.41543e+7 
           2335      5.36396e+7 
           2345      5.09579e+7 
           2355       5.3487e+7 
           2365      5.12966e+7 
           2375      5.25793e+7 
           2385      4.95444e+7 
           2395      5.19932e+7 
           2405      5.14262e+7 
           2415      5.15406e+7 
           2425      5.25879e+7 
           2435      5.11053e+7 
           2445      5.18685e+7 
           2455      5.17712e+7 
           2465      5.05894e+7 
           2475      4.99446e+7 
           2485      5.04805e+7 
           2495      4.96052e+7 
           2505      5.13713e+7 
           2513      4.96554e+7 
           2518      4.90181e+7 
           2525      4.78402e+7 
           2535      4.77356e+7 
           2545      4.79428e+7 
           2555      4.97277e+7 
           2565      4.94702e+7 
           2575      5.04264e+7 
           2585      5.06989e+7 
           2595      5.03067e+7 
           2605      4.94088e+7 
           2615      4.91093e+7 
           2625      4.92612e+7 
           2635       4.9422e+7 
           2645      5.15481e+7 
           2655      5.12706e+7 
           2665      4.99286e+7 
           2675      5.03199e+7 
           2685      5.07479e+7 
           2695      4.99327e+7 
           2705      4.98607e+7 
           2715      4.87152e+7 
           2725      4.86348e+7 
           2735      4.91244e+7 
           2745      4.67733e+7 
           2755      4.69242e+7 
           2765      4.79543e+7 
           2775      4.86969e+7 
           2785      4.79121e+7 
           2795      4.21504e+7 
           2805      4.49354e+7 
           2815      4.89392e+7 
           2825      4.87161e+7 
           2835      4.79043e+7 
           2845      4.74564e+7 
           2855       4.6288e+7 
           2865      4.71633e+7 
           2875       4.7091e+7 
           2885      4.71589e+7 
           2895      4.75619e+7 
           2910      4.78558e+7 
           2930      4.68186e+7 
           2950      4.65062e+7 
           2970      4.64201e+7 
           2990      4.61341e+7 
           3010      4.61426e+7 
           3030       4.5913e+7 
           3050      4.56611e+7 
           3070       4.5156e+7 
           3090      4.50469e+7 
           3110      4.48783e+7 
           3130      4.45758e+7 
           3150      4.42697e+7 
           3170      4.41178e+7 
           3190      4.33331e+7 
           3210        4.342e+7 
           3230      4.28262e+7 
           3250      4.29177e+7 
           3270      4.29545e+7 
           3290      4.28132e+7 
           3310      4.26069e+7 
           3330       4.2083e+7 
           3350      4.16223e+7 
           3370       4.1498e+7 
           3390      4.12491e+7 
           3410      4.13012e+7 
           3430      4.10643e+7 
           3450      4.07732e+7 
           3470      4.05486e+7 
           3490      4.03635e+7 
           3510      4.01831e+7 
           3530        3.998e+7 
           3550      3.97729e+7 
           3570      3.94113e+7 
           3590      3.92043e+7 
           3610      3.89937e+7 
           3630      3.88054e+7 
           3640       3.8692e+7 
           3650      3.87828e+7 
           3670      3.87501e+7 
           3690      3.78912e+7 
           3710      3.71937e+7 
           3730      3.55368e+7 
           3750      4.07524e+7 
           3770      4.20149e+7 
           3790      4.95982e+7 
           3810       5.7843e+7 
           3830       4.6965e+7 
           3850      6.46483e+7 
           3870      7.36586e+7 
           3890      4.15664e+7 
           3910      7.42784e+7 
           3930      8.19053e+7 
           3950      7.43873e+7 
           3970      4.04029e+7 
           3990      7.06174e+7 
           4010      8.41451e+7 
           4030      8.63298e+7 
           4050      8.47925e+7 
           4070      7.85781e+7 
           4090      5.71689e+7 
           4110      4.41693e+7 
           4130      7.35065e+7 
           4150      8.03398e+7 
           4170      8.17461e+7 
           4190      8.16393e+7 
           4210      8.10057e+7 
           4230      7.98731e+7 
           4250      7.90063e+7 
           4270      7.73753e+7 
           4290      7.48337e+7 
           4310      6.84867e+7 
           4330       4.8616e+7 
           4350      4.17334e+7 
           4370      6.51374e+7 
           4390      7.05817e+7 
           4410      7.18742e+7 
           4430      7.19619e+7 
           4450      7.15581e+7 
           4470      7.10286e+7 
           4490      7.01263e+7 
           4510      6.97316e+7 
           4530      6.90053e+7 
           4550      6.82526e+7 
           4570      6.76421e+7 
           4590      6.69412e+7 
           4610      6.63049e+7 
           4630      6.55804e+7 
           4650       6.4913e+7 
           4670      6.42217e+7 
           4690      6.34713e+7 
           4710       6.2553e+7 
           4730      6.20454e+7 
           4750      6.12401e+7 
           4770      6.02905e+7 
           4790      5.90312e+7 
           4810      5.69651e+7 
           4830      5.24329e+7 
           4850      3.94179e+7 
           4870      3.24598e+7 
           4890      4.89942e+7 
           4910      5.36104e+7 
           4930      5.47403e+7 
           4950      5.49631e+7 
           4970      5.47732e+7 
           4990       5.4385e+7 
           5010      5.38916e+7 
           5030      5.34803e+7 
           5050      5.29718e+7 
           5070      5.25694e+7 
           5090      5.20655e+7 
           5110      5.15678e+7 
           5130      5.10549e+7 
           5150      5.05454e+7 
           5170      4.97182e+7 
           5190      4.93805e+7 
           5210      4.90812e+7 
           5230      4.85743e+7 
           5250      4.81585e+7 
           5270        4.762e+7 
           5290       4.7231e+7 
           5310      4.67663e+7 
           5330      4.62808e+7 
           5350      4.58867e+7 
           5370      4.54319e+7 
           5390      4.50059e+7 
           5410      4.45592e+7 
           5430      4.41523e+7 
           5450      4.37363e+7 
           5470      4.33264e+7 
           5490      4.29213e+7 
           5510      4.25209e+7 
           5530      4.21092e+7 
           5550      4.17292e+7 
           5570      4.13317e+7 
           5590      4.09304e+7 
           5610      4.05589e+7 
           5630      4.01916e+7 
           5650      3.98178e+7 
           5670      3.94472e+7 
           5690      3.90843e+7 
           5710      3.87231e+7 
           5730      3.83707e+7 
           5750      3.80153e+7 
           5770      3.76697e+7 
           5790      3.73256e+7 
           5810      3.69865e+7 
           5830        3.665e+7 
           5850      3.63151e+7 
           5870      3.59817e+7 
           5890       3.5602e+7 
           5910       3.5342e+7 
           5930      3.50237e+7 
           5950      3.47088e+7 
           5970      3.43995e+7 
           5990      3.40903e+7 
           6010      3.37867e+7 
           6030      3.34852e+7 
           6050       3.3189e+7 
           6070       3.2896e+7 
           6090      3.26052e+7 
           6110      3.23154e+7 
           6130      3.20236e+7 
           6150       3.1734e+7 
           6170      3.14554e+7 
           6190      3.11954e+7 
           6210      3.09225e+7 
           6230      3.06496e+7 
           6250      3.03746e+7 
           6270      3.01227e+7 
           6290       2.9861e+7 
           6310      2.96001e+7 
           6330      2.93419e+7 
           6350      2.90621e+7 
           6370      2.87712e+7 
           6390      2.85139e+7 
           6410        2.824e+7 
           6430      2.79598e+7 
           6450      2.76409e+7 
           6470      2.72956e+7 
           6490      2.68388e+7 
           6510       2.6131e+7 
           6530      2.46919e+7 
           6550      2.08541e+7 
           6570      1.70757e+7 
           6590      2.29786e+7 
           6610      2.46824e+7 
           6630      2.51619e+7 
           6650        2.524e+7 
           6670      2.51684e+7 
           6690       2.5035e+7 
           6710      2.48709e+7 
           6730      2.46925e+7 
           6750      2.45034e+7 
           6770      2.43556e+7 
           6790      2.41592e+7 
           6810      2.39606e+7 
           6830      2.37624e+7 
           6850      2.35692e+7 
           6870      2.33771e+7 
           6890      2.31868e+7 
           6910      2.29976e+7 
           6930      2.28109e+7 
           6950       2.2626e+7 
           6970      2.24436e+7 
           6990      2.22621e+7 
           7010      2.20816e+7 
           7030      2.19043e+7 
           7050      2.17294e+7 
           7070      2.15554e+7 
           7090      2.13838e+7 
           7110      2.12048e+7 
           7130       2.1043e+7 
           7150      2.08746e+7 
           7170      2.07099e+7 
           7190      2.05461e+7 
           7210      2.03837e+7 
           7230      2.02235e+7 
           7250      2.00633e+7 
           7270       1.9906e+7 
           7290      1.97481e+7 
           7310       1.9595e+7 
           7330      1.94406e+7 
           7350      1.92903e+7 
           7370      1.91399e+7 
           7390       1.8991e+7 
           7410      1.88406e+7 
           7430      1.86956e+7 
           7450      1.85526e+7 
           7470      1.84075e+7 
           7490      1.82656e+7 
           7510      1.81271e+7 
           7530      1.79884e+7 
           7550      1.78509e+7 
           7570      1.77146e+7 
           7590      1.75795e+7 
           7610       1.7445e+7 
           7630      1.73129e+7 
           7650      1.71806e+7 
           7670      1.70502e+7 
           7690      1.69208e+7 
           7710      1.67938e+7 
           7730       1.6668e+7 
           7750      1.65425e+7 
           7770      1.63452e+7 
           7790      1.62955e+7 
           7810      1.61738e+7 
           7830      1.60526e+7 
           7850      1.59324e+7 
           7870      1.58108e+7 
           7890      1.56908e+7 
           7910      1.55808e+7 
           7930      1.54634e+7 
           7950      1.53481e+7 
           7970       1.5238e+7 
           7990      1.51199e+7 
           8010      1.50145e+7 
           8030      1.49048e+7 
           8050      1.47954e+7 
           8070      1.46874e+7 
           8090      1.45803e+7 
           8110      1.44742e+7 
           8130      1.43688e+7 
           8150      1.42649e+7 
           8170      1.41613e+7 
           8190      1.40524e+7 
           8210      1.39717e+7 
           8230      1.38749e+7 
           8250       1.3779e+7 
           8270      1.36959e+7 
           8290      1.36046e+7 
           8310      1.35136e+7 
           8330      1.34162e+7 
           8350      1.33336e+7 
           8370      1.32426e+7 
           8390      1.31479e+7 
           8410      1.30546e+7 
           8430      1.29567e+7 
           8450      1.28442e+7 
           8470      1.27254e+7 
           8490      1.26859e+7 
           8510      1.24146e+7 
           8530      1.25237e+7 
           8550      1.20209e+7 
           8570      1.24245e+7 
           8590      1.19781e+7 
           8610      1.18153e+7 
           8630      1.22822e+7 
           8650      1.18992e+7 
           8670      1.07903e+7 
           8690      1.19505e+7 
           8710      1.21484e+7 
           8730      1.17107e+7 
           8750      9.96608e+6 
           8770      1.12138e+7 
           8790      1.19264e+7 
           8810      1.19931e+7 
           8830      1.16867e+7 
           8850      1.04992e+7 
           8870       9.2151e+6 
           8890      1.10599e+7 
           8910      1.16258e+7 
           8930      1.17623e+7 
           8950      1.17065e+7 
           8970      1.14183e+7 
           8990       1.0722e+7 
           9010      8.79452e+6 
           9030      9.44447e+6 
           9050      1.07418e+7 
           9070      1.11418e+7 
           9090      1.12534e+7 
           9110      1.13007e+7 
           9130       1.1249e+7 
           9150      1.11193e+7 
           9170      1.08921e+7 
           9190      1.04763e+7 
