# Kurucz ODFNEW /NOVER (2003)
# teff = 8000 K (value for the effective temperature for the model. Temperatures are given in K)
# logg = 2.5 log(cm/s2) (value for Log(G) for the model.)
# meta = 0.2  (value for the Metallicity for the model.)
# lh = 1.25  (l/Hp where l is the  mixing length of the convective element and Hp is the pressure scale height)
# vtur = 2 km/s (Microturbulence velocity)
# alpha = 0  (Alpha)
#
# column 1: WAVELENGTH (ANGSTROM), Wavelength in Angstrom
# column 2: FLUX (ERG/CM2/S/A), Flux in erg/cm2/s/A
            357     3.27368e-23 
            366     2.68651e-22 
            375     1.78226e-21 
            385     1.30341e-20 
            395     8.58298e-20 
            405     5.13307e-19 
            414     2.37824e-18 
            422     8.77894e-18 
            430     3.08148e-17 
            441     1.60355e-16 
            451     6.68052e-16 
            460     1.43175e-16 
            470     4.90379e-16 
            480     1.58941e-15 
            490     4.89482e-15 
            500     1.43487e-14 
            506     4.27969e-13 
            512     1.13267e-12 
            520     2.63014e-12 
            530     7.38089e-12 
            540     1.01863e-12 
            550     2.44382e-12 
            560     5.62908e-12 
            570     1.25484e-11 
            580     2.68089e-11 
            590     5.69834e-11 
            600     1.16462e-10 
            610     2.32365e-10 
            620     4.51673e-10 
            630     8.57888e-10 
            640      1.59347e-9 
            650       2.9014e-9 
            658      4.61615e-9 
            665      6.84677e-9 
            675      1.18759e-8 
            685       2.0226e-8 
            695      3.38704e-8 
            705      5.54651e-8 
            716      9.47453e-8 
            726      1.51056e-7 
            735      2.27045e-7 
            745      3.52216e-7 
            755      5.39671e-7 
            765      8.16706e-7 
            775      1.22109e-6 
            785      1.80654e-6 
            795      2.61036e-6 
            805      3.79401e-6 
            815      5.45313e-6 
            825      7.72748e-6 
            835      1.08422e-5 
            845      1.50808e-5 
            855      2.07838e-5 
            865      2.84003e-5 
            875      3.83158e-5 
            885      5.17169e-5 
            895      6.90085e-5 
            905      9.07205e-5 
            915       0.0454114 
            925        0.138993 
            935        0.181529 
            945         0.23929 
            955        0.333942 
            965        0.437402 
            975        0.549782 
            985         0.70234 
            995        0.861471 
           1005         1.16063 
           1015          1.4671 
           1025         1.76979 
           1035         2.25913 
           1045         2.83269 
           1055         3.50692 
           1065         4.21893 
           1075         5.25343 
           1085          6.4403 
           1095         7.66168 
           1105         22.5447 
           1115         71.4687 
           1125         104.114 
           1135         144.109 
           1145         179.603 
           1155         197.884 
           1165         266.795 
           1175          310.77 
           1185         326.795 
           1195         163.568 
           1205         164.004 
           1215         38.8896 
           1225         190.742 
           1235         458.134 
           1245         1092.72 
           1255          2732.5 
           1265         2537.39 
           1275         4620.75 
           1285         6837.93 
           1295         8457.98 
           1305         6082.44 
           1315           10761 
           1325         13134.5 
           1335         13835.8 
           1345           18280 
           1355         18598.4 
           1365         19944.8 
           1375         21890.9 
           1385         24191.9 
           1395         28000.7 
           1405         31370.8 
           1415         31301.5 
           1425         36019.5 
           1435         35881.4 
           1442         41655.8 
           1447         45693.9 
           1455         51741.4 
           1465         51765.9 
           1475         56657.7 
           1485         63272.1 
           1495         72155.9 
           1505         79220.4 
           1512         78814.9 
           1517           86136 
           1525           97588 
           1535          355908 
           1545       1.5683e+6 
           1555      1.31293e+6 
           1565      1.06787e+6 
           1575      2.12237e+6 
           1585      2.79328e+6 
           1595      3.76459e+6 
           1605      3.11413e+6 
           1615      2.76456e+6 
           1625      2.20406e+6 
           1635      2.59334e+6 
           1645      3.93432e+6 
           1655      1.94016e+6 
           1665      3.38703e+6 
           1672          924917 
           1677      4.67869e+6 
           1685      7.09387e+6 
           1695      6.89043e+6 
           1705      6.69658e+6 
           1715      9.21309e+6 
           1725      9.68289e+6 
           1735      1.21661e+7 
           1745      1.08231e+7 
           1755      1.41529e+7 
           1765       9.8072e+6 
           1775       1.3373e+7 
           1785      1.15572e+7 
           1795      1.67387e+7 
           1805      1.36954e+7 
           1815      1.54924e+7 
           1825       1.2915e+7 
           1835      1.15361e+7 
           1845      1.05102e+7 
           1855      1.23495e+7 
           1865      1.39223e+7 
           1875      1.30283e+7 
           1885      1.34927e+7 
           1895      1.50502e+7 
           1905      1.32898e+7 
           1915      1.42002e+7 
           1925      1.39951e+7 
           1935      9.71559e+6 
           1945      1.54634e+7 
           1955      1.57226e+7 
           1967      1.75323e+7 
           1976       1.7151e+7 
           1984      1.63134e+7 
           1995      1.58878e+7 
           2005      1.47214e+7 
           2015      1.34195e+7 
           2025      1.28372e+7 
           2035      1.49219e+7 
           2045      1.67158e+7 
           2055      1.48157e+7 
           2065      1.40285e+7 
           2074      1.76932e+7 
           2078      1.89094e+7 
           2085      1.78857e+7 
           2095      1.65703e+7 
           2105      1.51269e+7 
           2115       1.5471e+7 
           2125      1.60774e+7 
           2135      1.19261e+7 
           2145      1.49062e+7 
           2155      1.54033e+7 
           2165      1.35687e+7 
           2175      1.36497e+7 
           2185      1.43354e+7 
           2195      1.59597e+7 
           2205      1.49916e+7 
           2215      1.23856e+7 
           2225      1.18316e+7 
           2235      1.52163e+7 
           2245      1.34987e+7 
           2255      1.15441e+7 
           2265      1.18044e+7 
           2275      1.35046e+7 
           2285      1.43434e+7 
           2295      1.27953e+7 
           2305      1.33886e+7 
           2315      1.23776e+7 
           2325      1.17348e+7 
           2335      8.58938e+6 
           2345      6.67765e+6 
           2355      1.09337e+7 
           2365      6.69808e+6 
           2375      8.97839e+6 
           2385      5.32103e+6 
           2395       7.0735e+6 
           2405      6.71649e+6 
           2415      8.09756e+6 
           2425      1.19112e+7 
           2435      1.14215e+7 
           2445      1.24752e+7 
           2455      1.23826e+7 
           2465       1.1914e+7 
           2475      1.11039e+7 
           2485      1.15065e+7 
           2495      1.08764e+7 
           2505      1.42568e+7 
           2513       1.0822e+7 
           2518      1.16649e+7 
           2525      9.58128e+6 
           2535      9.10603e+6 
           2545      9.22539e+6 
           2555      1.11882e+7 
           2565      9.88487e+6 
           2575      1.15929e+7 
           2585      1.09959e+7 
           2595      9.99722e+6 
           2605      8.90801e+6 
           2615      8.27367e+6 
           2625      1.07798e+7 
           2635      1.23823e+7 
           2645      1.70825e+7 
           2655      1.74666e+7 
           2665      1.38704e+7 
           2675      1.54927e+7 
           2685      1.49726e+7 
           2695       1.4121e+7 
           2705       1.5081e+7 
           2715      1.31711e+7 
           2725      1.34033e+7 
           2735      1.47434e+7 
           2745      8.99648e+6 
           2755      1.04397e+7 
           2765      1.17761e+7 
           2775        1.441e+7 
           2785      1.20384e+7 
           2795      4.71822e+6 
           2805      6.23028e+6 
           2815      1.43067e+7 
           2825       1.7027e+7 
           2835       1.5957e+7 
           2845      1.51897e+7 
           2855      1.36696e+7 
           2865      1.63998e+7 
           2875      1.57143e+7 
           2885      1.61668e+7 
           2895      1.50174e+7 
           2910      1.83175e+7 
           2930      1.71573e+7 
           2950      1.69938e+7 
           2970      1.82204e+7 
           2990      1.84444e+7 
           3010      1.91714e+7 
           3030      1.88621e+7 
           3050      1.87476e+7 
           3070      1.89538e+7 
           3090      1.96696e+7 
           3110      1.88335e+7 
           3130      1.86655e+7 
           3150        1.964e+7 
           3170      1.94856e+7 
           3190      1.80633e+7 
           3210      1.90319e+7 
           3230      1.80823e+7 
           3250      1.90906e+7 
           3270      1.95078e+7 
           3290      1.97155e+7 
           3310      2.02317e+7 
           3330      1.96608e+7 
           3350      1.94097e+7 
           3370      1.90891e+7 
           3390      1.94083e+7 
           3410       1.9841e+7 
           3430      2.01028e+7 
           3450      1.99555e+7 
           3470      1.96135e+7 
           3490      1.94283e+7 
           3510       2.0138e+7 
           3530      2.02004e+7 
           3550      2.08239e+7 
           3570      1.97556e+7 
           3590      1.97378e+7 
           3610      1.98545e+7 
           3630       2.0126e+7 
           3640      1.97296e+7 
           3650      2.07193e+7 
           3670      2.03523e+7 
           3690      2.01721e+7 
           3710      2.40901e+7 
           3730       2.8039e+7 
           3750      3.92522e+7 
           3770      4.29797e+7 
           3790      5.51216e+7 
           3810      6.42533e+7 
           3830      4.96026e+7 
           3850      6.92409e+7 
           3870      7.70091e+7 
           3890       4.4783e+7 
           3910      7.40344e+7 
           3930      5.76233e+7 
           3950      7.23857e+7 
           3970      3.87177e+7 
           3990      7.32464e+7 
           4010       7.7639e+7 
           4030      7.62348e+7 
           4050      7.54837e+7 
           4070      7.32063e+7 
           4090      6.28419e+7 
           4110      4.76261e+7 
           4130      7.04166e+7 
           4150      7.28347e+7 
           4170      7.10393e+7 
           4190      7.04507e+7 
           4210      6.99126e+7 
           4230      6.81688e+7 
           4250       6.8121e+7 
           4270      6.53066e+7 
           4290      6.63776e+7 
           4310      6.16968e+7 
           4330       5.1192e+7 
           4350      4.33998e+7 
           4370      6.27702e+7 
           4390       6.2309e+7 
           4410      6.07901e+7 
           4430      6.03999e+7 
           4450      6.10586e+7 
           4470      6.04908e+7 
           4490      5.98242e+7 
           4510       6.0995e+7 
           4530      5.84033e+7 
           4550      5.71177e+7 
           4570      5.90035e+7 
           4590      5.63911e+7 
           4610      5.79645e+7 
           4630      5.58269e+7 
           4650      5.63914e+7 
           4670      5.59336e+7 
           4690      5.39367e+7 
           4710      5.20174e+7 
           4730      5.39628e+7 
           4750      5.38917e+7 
           4770      5.27089e+7 
           4790      5.22647e+7 
           4810      5.12774e+7 
           4830      4.98798e+7 
           4850      4.04589e+7 
           4870      3.19722e+7 
           4890      4.71493e+7 
           4910      4.82036e+7 
           4930      4.71018e+7 
           4950      4.77844e+7 
           4970      4.79481e+7 
           4990      4.60062e+7 
           5010      4.41237e+7 
           5030      4.51449e+7 
           5050      4.43685e+7 
           5070      4.49219e+7 
           5090      4.42642e+7 
           5110      4.39949e+7 
           5130      4.29053e+7 
           5150      4.19179e+7 
           5170      4.10938e+7 
           5190      4.06644e+7 
           5210       4.0604e+7 
           5230      4.00586e+7 
           5250      4.06164e+7 
           5270      3.82062e+7 
           5290      3.96585e+7 
           5310      3.87217e+7 
           5330      3.76877e+7 
           5350      3.86844e+7 
           5370      3.81512e+7 
           5390      3.75963e+7 
           5410      3.67963e+7 
           5430      3.67186e+7 
           5450       3.6976e+7 
           5470      3.64455e+7 
           5490      3.62367e+7 
           5510      3.57842e+7 
           5530      3.54113e+7 
           5550      3.53669e+7 
           5570      3.48061e+7 
           5590      3.44478e+7 
           5610      3.43152e+7 
           5630      3.41443e+7 
           5650      3.35914e+7 
           5670        3.311e+7 
           5690      3.31034e+7 
           5710      3.28048e+7 
           5730      3.28092e+7 
           5750       3.2276e+7 
           5770       3.2056e+7 
           5790      3.16506e+7 
           5810      3.14208e+7 
           5830      3.11635e+7 
           5850      3.08396e+7 
           5870      3.05817e+7 
           5890      2.98336e+7 
           5910      2.99879e+7 
           5930       2.9711e+7 
           5950       2.9369e+7 
           5970      2.91821e+7 
           5990      2.87418e+7 
           6010      2.83641e+7 
           6030      2.82944e+7 
           6050      2.80181e+7 
           6070        2.789e+7 
           6090      2.75426e+7 
           6110      2.72001e+7 
           6130      2.67562e+7 
           6150      2.61293e+7 
           6170      2.62283e+7 
           6190      2.63433e+7 
           6210      2.61338e+7 
           6230      2.57372e+7 
           6250       2.4943e+7 
           6270       2.5475e+7 
           6290      2.52476e+7 
           6310      2.47462e+7 
           6330      2.46794e+7 
           6350      2.42561e+7 
           6370      2.41021e+7 
           6390      2.40271e+7 
           6410      2.36336e+7 
           6430      2.35642e+7 
           6450      2.30344e+7 
           6470      2.31694e+7 
           6490      2.26288e+7 
           6510      2.25753e+7 
           6530      2.22004e+7 
           6550      1.97144e+7 
           6570      1.55187e+7 
           6590      2.11196e+7 
           6610      2.16361e+7 
           6630      2.16412e+7 
           6650      2.14857e+7 
           6670      2.12723e+7 
           6690      2.11706e+7 
           6710      2.09944e+7 
           6730      2.07874e+7 
           6750      2.05478e+7 
           6770      2.05187e+7 
           6790      2.03162e+7 
           6810       2.0163e+7 
           6830      1.99191e+7 
           6850      1.97788e+7 
           6870      1.96654e+7 
           6890      1.95094e+7 
           6910      1.93367e+7 
           6930      1.91577e+7 
           6950      1.90157e+7 
           6970      1.88377e+7 
           6990      1.87169e+7 
           7010      1.83918e+7 
           7030      1.83513e+7 
           7050      1.82322e+7 
           7070      1.81081e+7 
           7090      1.79663e+7 
           7110      1.74294e+7 
           7130      1.75437e+7 
           7150      1.74457e+7 
           7170      1.73192e+7 
           7190      1.71414e+7 
           7210      1.70356e+7 
           7230      1.68715e+7 
           7250      1.67212e+7 
           7270      1.66814e+7 
           7290      1.64567e+7 
           7310      1.63259e+7 
           7330      1.62334e+7 
           7350      1.61494e+7 
           7370      1.60612e+7 
           7390      1.58633e+7 
           7410      1.56652e+7 
           7430      1.54814e+7 
           7450      1.54255e+7 
           7470      1.52046e+7 
           7490      1.51732e+7 
           7510      1.50992e+7 
           7530      1.50304e+7 
           7550      1.49793e+7 
           7570       1.4822e+7 
           7590      1.47375e+7 
           7610      1.46263e+7 
           7630      1.45161e+7 
           7650      1.43566e+7 
           7670      1.41941e+7 
           7690      1.41343e+7 
           7710      1.39946e+7 
           7730      1.39632e+7 
           7750       1.3836e+7 
           7770      1.34317e+7 
           7790       1.3672e+7 
           7810      1.35545e+7 
           7830       1.3387e+7 
           7850      1.32308e+7 
           7870        1.316e+7 
           7890       1.3025e+7 
           7910       1.2943e+7 
           7930      1.28598e+7 
           7950      1.27105e+7 
           7970      1.27761e+7 
           7990      1.25063e+7 
           8010      1.25531e+7 
           8030      1.24328e+7 
           8050      1.23758e+7 
           8070        1.227e+7 
           8090      1.21794e+7 
           8110      1.21269e+7 
           8130      1.20553e+7 
           8150      1.19639e+7 
           8170        1.188e+7 
           8190      1.16013e+7 
           8210      1.15572e+7 
           8230      1.14744e+7 
           8250      1.14321e+7 
           8270      1.15058e+7 
           8290      1.14048e+7 
           8310      1.13102e+7 
           8330      1.10958e+7 
           8350      1.11345e+7 
           8370      1.09996e+7 
           8390       1.0868e+7 
           8410      1.07674e+7 
           8430      1.07784e+7 
           8450      1.05496e+7 
           8470      1.02231e+7 
           8490      1.08942e+7 
           8510      9.74283e+6 
           8530      1.10128e+7 
           8550      8.97781e+6 
           8570      1.12432e+7 
           8590      1.02938e+7 
           8610      9.93352e+6 
           8630      1.14121e+7 
           8650      1.10009e+7 
           8670      8.53755e+6 
           8690      1.10271e+7 
           8710      1.15943e+7 
           8730      1.11813e+7 
           8750      8.64589e+6 
           8770      1.07147e+7 
           8790      1.14646e+7 
           8810      1.14243e+7 
           8830       1.1029e+7 
           8850      1.00692e+7 
           8870       8.3872e+6 
           8890      1.07272e+7 
           8910      1.10051e+7 
           8930      1.09615e+7 
           8950      1.10099e+7 
           8970      1.08364e+7 
           8990      1.04647e+7 
           9010      8.29286e+6 
           9030      9.23102e+6 
           9050      1.04018e+7 
           9070      1.02347e+7 
           9090      1.00921e+7 
           9110      1.03066e+7 
           9130      1.03216e+7 
           9150      1.03139e+7 
           9170      1.01726e+7 
           9190      9.94324e+6 
           9210      9.36626e+6 
           9230      7.24336e+6 
           9250      8.98075e+6 
           9270      9.42208e+6 
           9290      9.76875e+6 
           9310       9.7542e+6 
           9330      9.67088e+6 
           9350      9.64722e+6 
           9370      9.59879e+6 
           9390      9.43788e+6 
           9410      9.11275e+6 
           9430      9.28808e+6 
