# Kurucz ODFNEW /NOVER (2003)
# teff = 6500 K (value for the effective temperature for the model. Temperatures are given in K)
# logg = 4 log(cm/s2) (value for Log(G) for the model.)
# meta = -4  (value for the Metallicity for the model.)
# lh = 1.25  (l/Hp where l is the  mixing length of the convective element and Hp is the pressure scale height)
# vtur = 2 km/s (Microturbulence velocity)
# alpha = 0.4  (Alpha)
#
# column 1: WAVELENGTH (ANGSTROM), Wavelength in Angstrom
# column 2: FLUX (ERG/CM2/S/A), Flux in erg/cm2/s/A
          147.2     1.73866e-35 
            151     1.65225e-35 
          155.2     1.56403e-35 
          158.8     1.49392e-35 
            162     1.43549e-35 
            166     1.36714e-35 
          170.3     1.29897e-35 
          173.4     1.25294e-35 
          176.8     1.20522e-35 
          180.2     1.16017e-35 
          181.7     1.14109e-35 
          186.1     1.08777e-35 
            191     1.03267e-35 
          193.9     1.00201e-35 
          198.4     9.57076e-36 
          201.8     9.25097e-36 
            205     8.96441e-36 
          210.5     8.50208e-36 
          216.2     8.05969e-36 
          219.8     7.79784e-36 
            223     7.57565e-36 
          226.8     7.32392e-36 
            230     7.12154e-36 
            234     6.88015e-36 
            240     6.54044e-36 
          246.5     6.20006e-36 
          252.4     5.91358e-36 
          256.8     5.71267e-36 
            260     5.57292e-36 
            264     5.40532e-36 
          268.5     5.22566e-36 
          273.5     5.03634e-36 
          278.5     4.85712e-36 
            284     4.67082e-36 
            290     4.47954e-36 
            296     4.29978e-36 
            301     4.15812e-36 
            308     3.97126e-36 
            318     8.24659e-26 
            328     9.88431e-25 
            338     1.01424e-23 
            348     9.04463e-23 
            357     5.79627e-22 
            366     3.37846e-21 
            375     1.79871e-20 
            385     1.04661e-19 
            395     5.53607e-19 
            405     2.68356e-18 
            414     1.03682e-17 
            422     3.27219e-17 
            430     9.86648e-17 
            441     4.19654e-16 
            451     1.46453e-15 
            460      4.2918e-15 
            470     1.34608e-14 
            480      4.0088e-14 
            490     1.13843e-13 
            500     3.08737e-13 
            506     7.29634e-13 
            512     1.44386e-12 
            520     2.98541e-12 
            530      7.2111e-12 
            540     1.65317e-11 
            550     3.71362e-11 
            560     8.03313e-11 
            570     1.68664e-10 
            580     3.40344e-10 
            590     6.84152e-10 
            600      1.32556e-9 
            610      2.50711e-9 
            620      4.63463e-9 
            630      8.38316e-9 
            640      1.48613e-8 
            650      2.58325e-8 
            658      3.96617e-8 
            665      5.71698e-8 
            675       9.4971e-8 
            685      1.55148e-7 
            695       2.4944e-7 
            705      3.94978e-7 
            716      6.43912e-7 
            726      9.89576e-7 
            735       1.4406e-6 
            745      2.16063e-6 
            755        3.201e-6 
            765      4.68671e-6 
            775      6.78474e-6 
            785      9.71619e-6 
            795      1.37698e-5 
            805      1.93194e-5 
            815      2.68465e-5 
            825      3.69664e-5 
            835      5.04584e-5 
            845      6.82838e-5 
            855      9.16488e-5 
            865     0.000122028 
            875     0.000161232 
            885     0.000211475 
            895     0.000275413 
            905     0.000356208 
            915        0.103921 
            925        0.339641 
            935        0.479582 
            945          0.6759 
            955        0.923334 
            965         1.14343 
            975        0.789898 
            985         2.01523 
            995         2.52756 
           1005         3.01757 
           1015         2.09701 
           1025         4.09889 
           1035         5.63569 
           1045         7.53373 
           1055          9.2691 
           1065         11.6687 
           1075         14.1476 
           1085         17.3195 
           1095         20.5833 
           1105         24.4422 
           1115         28.8863 
           1125         34.0318 
           1135         39.6433 
           1145         45.4279 
           1155         49.2704 
           1165         23.6948 
           1175         16.3115 
           1185         90.4274 
           1195         93.6636 
           1205         97.0087 
           1215         82.8832 
           1225         127.304 
           1235         167.727 
           1245         26.2272 
           1255         39.4902 
           1265         65.0991 
           1275         106.139 
           1285         206.488 
           1295         378.162 
           1305         435.013 
           1315         515.457 
           1325         598.883 
           1335         693.987 
           1345         800.617 
           1355         918.029 
           1365          1049.8 
           1375         1195.67 
           1385         1355.58 
           1395         1530.77 
           1405         1721.75 
           1415         1941.39 
           1425         2165.81 
           1435         2420.57 
           1442         2622.33 
           1447         2747.64 
           1455         3005.26 
           1465          3304.2 
           1475         3669.76 
           1485         4046.22 
           1495          4475.7 
           1505         4930.69 
           1512         5275.03 
           1517         5459.03 
           1525         5898.73 
           1535         6436.89 
           1545         6970.92 
           1555         7594.03 
           1565          8142.7 
           1575         8869.89 
           1585         9582.05 
           1595         10359.1 
           1605         11181.4 
           1615         12256.1 
           1625           13513 
           1635         14984.8 
           1645         17175.4 
           1655         19354.8 
           1665         25185.3 
           1672         32664.2 
           1677         49172.7 
           1685          106511 
           1695          286078 
           1705          614490 
           1715      1.07866e+6 
           1725      1.58446e+6 
           1735       2.0447e+6 
           1745      2.33657e+6 
           1755      2.66632e+6 
           1765      2.81456e+6 
           1775      3.05007e+6 
           1785      3.23378e+6 
           1795      3.45543e+6 
           1805      3.50143e+6 
           1815      3.63838e+6 
           1825      3.71218e+6 
           1835      3.88407e+6 
           1845      3.81353e+6 
           1855       4.0471e+6 
           1865      4.23766e+6 
           1875      4.31999e+6 
           1885      4.43437e+6 
           1895       4.5566e+6 
           1905      4.58114e+6 
           1915      4.79178e+6 
           1925       4.9237e+6 
           1935      4.91973e+6 
           1945      5.11992e+6 
           1955      5.21898e+6 
           1967      5.36445e+6 
           1976        5.343e+6 
           1984      5.39704e+6 
           1995      5.60538e+6 
           2005      5.64219e+6 
           2015       5.7668e+6 
           2025      5.73598e+6 
           2035      6.00378e+6 
           2045      6.11015e+6 
           2055       6.1131e+6 
           2065      6.19945e+6 
           2074      6.41587e+6 
           2078      6.44458e+6 
           2085      6.45199e+6 
           2095      6.54728e+6 
           2105      6.60646e+6 
           2115      6.75401e+6 
           2125      6.75466e+6 
           2135      6.87766e+6 
           2145      7.01519e+6 
           2155      7.07954e+6 
           2165       7.0388e+6 
           2175      7.17053e+6 
           2185      7.32852e+6 
           2195       7.4426e+6 
           2205      7.42065e+6 
           2215      7.27785e+6 
           2225      7.59307e+6 
           2235       7.8133e+6 
           2245      7.83952e+6 
           2255      7.75903e+6 
           2265      7.71417e+6 
           2275       7.9362e+6 
           2285      8.05738e+6 
           2295      8.04811e+6 
           2305       8.2188e+6 
           2315      8.24285e+6 
           2325      8.28848e+6 
           2335      8.33925e+6 
           2345      8.13674e+6 
           2355      8.53445e+6 
           2365      8.30145e+6 
           2375      8.57298e+6 
           2385      8.25553e+6 
           2395        8.634e+6 
           2405      8.72062e+6 
           2415      8.78808e+6 
           2425      9.11998e+6 
           2435       9.0465e+6 
           2445      9.16108e+6 
           2455      9.24662e+6 
           2465      9.21018e+6 
           2475      9.23062e+6 
           2485      9.14916e+6 
           2495      9.18429e+6 
           2505      9.45572e+6 
           2513      9.19696e+6 
           2518      9.14681e+6 
           2525      9.14757e+6 
           2535       9.3458e+6 
           2545      9.52202e+6 
           2555      9.78292e+6 
           2565      9.73943e+6 
           2575      9.84518e+6 
           2585      9.90897e+6 
           2595      9.92058e+6 
           2605      9.84345e+6 
           2615      9.86913e+6 
           2625      9.94497e+6 
           2635      1.00726e+7 
           2645      1.04063e+7 
           2655      1.04467e+7 
           2665      1.03876e+7 
           2675      1.04427e+7 
           2685      1.05788e+7 
           2695      1.05731e+7 
           2705      1.06377e+7 
           2715      1.04721e+7 
           2725      1.05014e+7 
           2735      1.05552e+7 
           2745      1.02484e+7 
           2755      1.03841e+7 
           2765      1.06674e+7 
           2775      1.08401e+7 
           2785      1.07872e+7 
           2795      9.94771e+6 
           2805      1.04127e+7 
           2815      1.10838e+7 
           2825      1.11079e+7 
           2835      1.10508e+7 
           2845      1.11115e+7 
           2855      1.07995e+7 
           2865      1.11184e+7 
           2875      1.12108e+7 
           2885      1.11337e+7 
           2895      1.13275e+7 
           2910      1.13818e+7 
           2930      1.13512e+7 
           2950      1.13493e+7 
           2970        1.144e+7 
           2990      1.14674e+7 
           3010      1.15367e+7 
           3030      1.15613e+7 
           3050      1.16508e+7 
           3070      1.16717e+7 
           3090      1.17393e+7 
           3110      1.17976e+7 
           3130      1.18492e+7 
           3150      1.18693e+7 
           3170      1.19026e+7 
           3190      1.18726e+7 
           3210      1.19361e+7 
           3230      1.18494e+7 
           3250      1.19605e+7 
           3270      1.20475e+7 
           3290      1.20776e+7 
           3310      1.20944e+7 
           3330      1.20664e+7 
           3350      1.20325e+7 
           3370       1.2055e+7 
           3390      1.20669e+7 
           3410      1.21409e+7 
           3430      1.21505e+7 
           3450      1.21117e+7 
           3470      1.21364e+7 
           3490       1.2161e+7 
           3510      1.21754e+7 
           3530      1.21818e+7 
           3550      1.21926e+7 
           3570      1.21417e+7 
           3590       1.2148e+7 
           3610       1.2154e+7 
           3630      1.21682e+7 
           3640      1.21783e+7 
           3650      1.21987e+7 
           3670      1.21967e+7 
           3690      1.18532e+7 
           3710      1.21708e+7 
           3730      1.21148e+7 
           3750      1.37785e+7 
           3770      1.40398e+7 
           3790      1.50662e+7 
           3810      1.63127e+7 
           3830      1.44141e+7 
           3850      1.69774e+7 
           3870       1.7516e+7 
           3890      1.40354e+7 
           3910      1.74921e+7 
           3930      1.74097e+7 
           3950      1.74704e+7 
           3970      1.38251e+7 
           3990      1.72663e+7 
           4010      1.75928e+7 
           4030      1.75731e+7 
           4050      1.75065e+7 
           4070      1.73319e+7 
           4090      1.62953e+7 
           4110      1.42334e+7 
           4130      1.71209e+7 
           4150      1.71986e+7 
           4170      1.71766e+7 
           4190      1.71253e+7 
           4210      1.70586e+7 
           4230      1.69783e+7 
           4250      1.69282e+7 
           4270        1.684e+7 
           4290       1.6747e+7 
           4310      1.65745e+7 
           4330      1.53104e+7 
           4350      1.39395e+7 
           4370      1.63553e+7 
           4390      1.64042e+7 
           4410      1.63788e+7 
           4430      1.63297e+7 
           4450      1.62591e+7 
           4470      1.61917e+7 
           4490      1.61258e+7 
           4510      1.60567e+7 
           4530      1.59844e+7 
           4550      1.59148e+7 
           4570      1.58483e+7 
           4590      1.57792e+7 
           4610       1.5711e+7 
           4630      1.56406e+7 
           4650      1.55715e+7 
           4670       1.5502e+7 
           4690      1.54322e+7 
           4710      1.53612e+7 
           4730      1.52925e+7 
           4750      1.52226e+7 
           4770      1.51529e+7 
           4790      1.50742e+7 
           4810      1.49647e+7 
           4830      1.48083e+7 
           4850      1.38859e+7 
           4870      1.23508e+7 
           4890      1.45409e+7 
           4910      1.46083e+7 
           4930      1.45796e+7 
           4950      1.45243e+7 
           4970      1.44575e+7 
           4990      1.43874e+7 
           5010      1.43164e+7 
           5030      1.42506e+7 
           5050      1.41808e+7 
           5070      1.41134e+7 
           5090      1.40449e+7 
           5110      1.39765e+7 
           5130      1.39081e+7 
           5150      1.38391e+7 
           5170      1.37475e+7 
           5190      1.36911e+7 
           5210      1.36345e+7 
           5230      1.35666e+7 
           5250      1.35024e+7 
           5270      1.34309e+7 
           5290      1.33683e+7 
           5310      1.33015e+7 
           5330      1.32326e+7 
           5350      1.31686e+7 
           5370       1.3102e+7 
           5390      1.30361e+7 
           5410      1.29695e+7 
           5430      1.29048e+7 
           5450      1.28394e+7 
           5470      1.27747e+7 
           5490      1.27105e+7 
           5510      1.26457e+7 
           5530      1.25815e+7 
           5550      1.25179e+7 
           5570      1.24537e+7 
           5590        1.239e+7 
           5610       1.2327e+7 
           5630      1.22645e+7 
           5650      1.22014e+7 
           5670       1.2139e+7 
           5690       1.2077e+7 
           5710      1.20145e+7 
           5730      1.19526e+7 
           5750      1.18913e+7 
           5770      1.18293e+7 
           5790       1.1768e+7 
           5810      1.17072e+7 
           5830      1.16458e+7 
           5850      1.15862e+7 
           5870      1.15259e+7 
           5890      1.14608e+7 
           5910       1.1406e+7 
           5930      1.13464e+7 
           5950      1.12873e+7 
           5970      1.12287e+7 
           5990      1.11696e+7 
           6010       1.1111e+7 
           6030      1.10529e+7 
           6050      1.09954e+7 
           6070      1.09384e+7 
           6090      1.08809e+7 
           6110      1.08239e+7 
           6130      1.07675e+7 
           6150      1.07115e+7 
           6170       1.0654e+7 
           6190      1.05991e+7 
           6210      1.05436e+7 
           6230      1.04886e+7 
           6250      1.04332e+7 
           6270      1.03782e+7 
           6290      1.03238e+7 
           6310      1.02698e+7 
           6330      1.02163e+7 
           6350      1.01623e+7 
           6370      1.01088e+7 
           6390      1.00558e+7 
           6410      1.00023e+7 
           6430      9.95016e+6 
           6450       9.8967e+6 
           6470      9.84461e+6 
           6490      9.78761e+6 
           6510      9.71067e+6 
           6530       9.6071e+6 
           6550      9.17182e+6 
           6570      7.98391e+6 
           6590      9.38265e+6 
           6610      9.44322e+6 
           6630      9.42318e+6 
           6650      9.38874e+6 
           6670      9.33929e+6 
           6690      9.29027e+6 
           6710      9.24083e+6 
           6730      9.19264e+6 
           6750      9.14403e+6 
           6770      9.09584e+6 
           6790      9.04806e+6 
           6810      9.00067e+6 
           6830      8.95288e+6 
           6850       8.9063e+6 
           6870      8.85931e+6 
           6890      8.81271e+6 
           6910      8.76651e+6 
           6930       8.7199e+6 
           6950      8.67447e+6 
           6970      8.62863e+6 
           6990      8.58318e+6 
           7010      8.53811e+6 
           7030      8.49341e+6 
           7050      8.44908e+6 
           7070      8.40436e+6 
           7090      8.36001e+6 
           7110      8.31602e+6 
           7130       8.2724e+6 
           7150      8.22913e+6 
           7170      8.18622e+6 
           7190      8.14365e+6 
           7210      8.10071e+6 
           7230      8.05812e+6 
           7250      8.01587e+6 
           7270      7.97397e+6 
           7290       7.9324e+6 
           7310      7.89046e+6 
           7330      7.84957e+6 
           7350       7.8083e+6 
           7370      7.76737e+6 
           7390      7.72676e+6 
           7410      7.68648e+6 
           7430      7.64652e+6 
           7450       7.6062e+6 
           7470      7.56687e+6 
           7490      7.52719e+6 
           7510      7.48782e+6 
           7530      7.44942e+6 
           7550      7.41067e+6 
           7570      7.37156e+6 
           7590      7.33342e+6 
           7610      7.29557e+6 
           7630      7.25738e+6 
           7650      7.22012e+6 
           7670      7.18252e+6 
           7690      7.14521e+6 
           7710      7.10819e+6 
           7730      7.07145e+6 
           7750        7.035e+6 
           7770      6.99821e+6 
           7790      6.96232e+6 
           7810      6.92609e+6 
           7830      6.89075e+6 
           7850      6.85507e+6 
           7870      6.81967e+6 
           7890      6.78453e+6 
           7910      6.74966e+6 
           7930      6.71506e+6 
           7950      6.68013e+6 
           7970      6.64605e+6 
           7990      6.61223e+6 
           8010      6.57808e+6 
           8030      6.54418e+6 
           8050      6.51054e+6 
           8070      6.47715e+6 
           8090      6.44402e+6 
           8110      6.41113e+6 
           8130      6.37848e+6 
           8150      6.34608e+6 
           8170      6.31336e+6 
           8190      6.28144e+6 
           8210      6.25031e+6 
           8230      6.21886e+6 
           8250      6.18763e+6 
           8270      6.15664e+6 
           8290      6.12587e+6 
           8310      6.09533e+6 
           8330      6.06393e+6 
           8350      6.03329e+6 
           8370      6.00073e+6 
           8390      5.97001e+6 
           8410      5.93739e+6 
           8430      5.91031e+6 
           8450      5.88026e+6 
           8470      5.83414e+6 
           8490      5.82968e+6 
           8510      5.74665e+6 
           8530      5.77721e+6 
           8550      5.63786e+6 
           8570      5.72956e+6 
           8590      5.65032e+6 
