# Kurucz ODFNEW /NOVER (2003)
# teff = 9000 K (value for the effective temperature for the model. Temperatures are given in K)
# logg = 1.5 log(cm/s2) (value for Log(G) for the model.)
# meta = 0  (value for the Metallicity for the model.)
# lh = 1.25  (l/Hp where l is the  mixing length of the convective element and Hp is the pressure scale height)
# vtur = 2 km/s (Microturbulence velocity)
# alpha = 0.4  (Alpha)
#
# column 1: WAVELENGTH (ANGSTROM), Wavelength in Angstrom
# column 2: FLUX (ERG/CM2/S/A), Flux in erg/cm2/s/A
            328     1.33332e-22 
            338     1.28609e-21 
            348     1.07176e-20 
            357     6.62511e-20 
            366     3.71004e-19 
            375     1.91318e-18 
            385     1.08748e-17 
            395     5.66235e-17 
            405     2.72858e-16 
            414     1.05372e-15 
            422     3.33756e-15 
            430     1.00996e-14 
            441     4.37281e-14 
            451     1.55253e-13 
            460     4.63452e-13 
            470     1.48782e-12 
            480     4.54822e-12 
            490     1.32838e-11 
            500     3.71244e-11 
            506     9.52947e-11 
            512     1.89986e-10 
            520     3.95845e-10 
            530     9.66313e-10 
            540      2.25185e-9 
            550      5.16873e-9 
            560       1.1437e-8 
            570      2.45923e-8 
            580      5.10578e-8 
            590      1.05012e-7 
            600      2.09179e-7 
            610      4.07892e-7 
            620      7.76706e-7 
            630       1.4493e-6 
            640      2.64851e-6 
            650      4.75883e-6 
            658      7.49971e-6 
            665      1.10448e-5 
            675       1.8976e-5 
            685      3.20805e-5 
            695      5.33813e-5 
            705      8.72119e-5 
            716     0.000148155 
            726     0.000235769 
            735     0.000354083 
            745     0.000549362 
            755     0.000842515 
            765      0.00127704 
            775      0.00191449 
            785      0.00284058 
            795      0.00415685 
            805      0.00604139 
            815      0.00870778 
            825        0.012414 
            835       0.0175104 
            845       0.0245557 
            855       0.0340988 
            865       0.0469723 
            875          0.0641 
            885       0.0870702 
            895        0.117253 
            905        0.156483 
            915         30.6909 
            925         177.237 
            935         229.267 
            945         314.832 
            955         487.256 
            965         628.634 
            975         604.352 
            985         858.278 
            995         935.217 
           1005         1208.64 
           1015         1416.27 
           1025         1369.65 
           1035         1903.97 
           1045         2481.49 
           1055         2973.86 
           1065         3225.71 
           1075         3939.01 
           1085         4574.29 
           1095          4822.6 
           1105         11630.5 
           1115         85171.5 
           1125          119089 
           1135          201974 
           1145          186031 
           1155          187901 
           1165          178902 
           1175          102664 
           1185          140003 
           1195         9803.24 
           1205         11447.5 
           1215         1915.18 
           1225         11873.1 
           1235         35224.6 
           1245          245186 
           1255      1.09075e+6 
           1265          470398 
           1275      4.32968e+6 
           1285      9.45323e+6 
           1295      6.68937e+6 
           1305          966032 
           1315      8.29699e+6 
           1325      1.40909e+7 
           1335      8.98646e+6 
           1345       1.8519e+7 
           1355      1.88766e+7 
           1365      1.46632e+7 
           1375       1.7013e+7 
           1385      1.79312e+7 
           1395      1.91822e+7 
           1405      2.02427e+7 
           1415      1.87064e+7 
           1425      2.33927e+7 
           1435      2.09255e+7 
           1442      2.38517e+7 
           1447      2.77607e+7 
           1455       2.7894e+7 
           1465      2.57522e+7 
           1475      2.41488e+7 
           1485      2.84816e+7 
           1495       3.1414e+7 
           1505      3.18927e+7 
           1512      2.68588e+7 
           1517      3.06617e+7 
           1525      2.40345e+7 
           1535      2.27247e+7 
           1545      4.29612e+7 
           1555      3.60974e+7 
           1565      3.24828e+7 
           1575      3.67401e+7 
           1585      4.28806e+7 
           1595      4.90958e+7 
           1605      4.33381e+7 
           1615      4.25041e+7 
           1625       3.7547e+7 
           1635      4.00979e+7 
           1645      4.29351e+7 
           1655       3.6476e+7 
           1665      4.13934e+7 
           1672       1.6861e+7 
           1677      4.12184e+7 
           1685      4.92483e+7 
           1695      4.73052e+7 
           1705      4.15345e+7 
           1715      4.14012e+7 
           1725       4.1486e+7 
           1735      4.71377e+7 
           1745      4.56241e+7 
           1755      5.45544e+7 
           1765      4.35717e+7 
           1775      5.10552e+7 
           1785      4.75088e+7 
           1795      5.96121e+7 
           1805      5.51746e+7 
           1815      5.56547e+7 
           1825      5.22877e+7 
           1835      4.91707e+7 
           1845      4.50866e+7 
           1855      4.66327e+7 
           1865      4.78658e+7 
           1875      5.27724e+7 
           1885      5.14951e+7 
           1895      5.12426e+7 
           1905      4.76582e+7 
           1915       5.0183e+7 
           1925       5.3332e+7 
           1935      5.25015e+7 
           1945      5.50213e+7 
           1955      5.46165e+7 
           1967       5.9104e+7 
           1976      5.94738e+7 
           1984      5.62119e+7 
           1995      5.42818e+7 
           2005      5.47754e+7 
           2015      4.97617e+7 
           2025      5.23023e+7 
           2035      5.26783e+7 
           2045      5.63631e+7 
           2055      4.93465e+7 
           2065      5.05289e+7 
           2074      5.71154e+7 
           2078       5.8008e+7 
           2085      5.69294e+7 
           2095      5.44336e+7 
           2105      5.20736e+7 
           2115      5.16943e+7 
           2125      5.33522e+7 
           2135      4.22506e+7 
           2145      4.90671e+7 
           2155      5.19963e+7 
           2165      4.85513e+7 
           2175      4.78033e+7 
           2185      4.71276e+7 
           2195      5.15768e+7 
           2205      4.86197e+7 
           2215       4.2521e+7 
           2225      4.02661e+7 
           2235      4.74959e+7 
           2245      4.23901e+7 
           2255      3.95182e+7 
           2265      4.15317e+7 
           2275      4.49196e+7 
           2285       4.6943e+7 
           2295      4.38962e+7 
           2305      4.20591e+7 
           2315      3.91419e+7 
           2325      3.85202e+7 
           2335      3.26916e+7 
           2345      2.89167e+7 
           2355      3.78704e+7 
           2365      2.90056e+7 
           2375      3.39086e+7 
           2385      2.60773e+7 
           2395      3.15457e+7 
           2405      2.92609e+7 
           2415      3.21261e+7 
           2425      3.83243e+7 
           2435      3.62654e+7 
           2445      3.96005e+7 
           2455      3.79609e+7 
           2465      3.73039e+7 
           2475      3.57183e+7 
           2485       3.8835e+7 
           2495      3.71656e+7 
           2505      4.31313e+7 
           2513      3.59115e+7 
           2518      3.81101e+7 
           2525      3.34893e+7 
           2535       3.3534e+7 
           2545      3.35676e+7 
           2555      3.71505e+7 
           2565      3.51167e+7 
           2575      3.94262e+7 
           2585      3.79868e+7 
           2595      3.58697e+7 
           2605       3.3296e+7 
           2615      3.27063e+7 
           2625      3.73284e+7 
           2635      3.83917e+7 
           2645      4.67275e+7 
           2655      4.58866e+7 
           2665      3.96726e+7 
           2675       4.2736e+7 
           2685      4.08861e+7 
           2695      3.99883e+7 
           2705       4.1713e+7 
           2715      3.85948e+7 
           2725      3.94409e+7 
           2735      4.34752e+7 
           2745      3.22861e+7 
           2755      3.34489e+7 
           2765      3.51794e+7 
           2775      4.00945e+7 
           2785      3.65256e+7 
           2795      1.74958e+7 
           2805       2.2337e+7 
           2815      3.96287e+7 
           2825      4.31812e+7 
           2835      4.08363e+7 
           2845      3.92991e+7 
           2855      3.72957e+7 
           2865      4.15837e+7 
           2875      3.96591e+7 
           2885      4.06303e+7 
           2895      3.81133e+7 
           2910      4.43466e+7 
           2930      4.19563e+7 
           2950       4.2121e+7 
           2970      4.37807e+7 
           2990      4.42926e+7 
           3010      4.56353e+7 
           3030       4.4723e+7 
           3050      4.36727e+7 
           3070      4.29936e+7 
           3090      4.44195e+7 
           3110      4.25296e+7 
           3130      4.22686e+7 
           3150      4.34421e+7 
           3170      4.30681e+7 
           3190      4.09193e+7 
           3210      4.22902e+7 
           3230      4.11037e+7 
           3250      4.17907e+7 
           3270      4.16228e+7 
           3290       4.2225e+7 
           3310      4.25897e+7 
           3330      4.12983e+7 
           3350      4.06086e+7 
           3370       4.0609e+7 
           3390      4.05049e+7 
           3410      4.16025e+7 
           3430      4.16471e+7 
           3450       4.1229e+7 
           3470      4.04578e+7 
           3490      4.00883e+7 
           3510      4.07978e+7 
           3530      4.11289e+7 
           3550      4.12616e+7 
           3570      4.02449e+7 
           3590       4.0093e+7 
           3610      4.00836e+7 
           3630      3.98261e+7 
           3640      3.94142e+7 
           3650       4.0816e+7 
           3670      3.99192e+7 
           3690      4.31343e+7 
           3710      5.79295e+7 
           3730      8.14335e+7 
           3750      1.01225e+8 
           3770      1.00281e+8 
           3790      1.08405e+8 
           3810      1.16047e+8 
           3830       9.9218e+7 
           3850      1.15247e+8 
           3870      1.16297e+8 
           3890      9.79062e+7 
           3910      1.12493e+8 
           3930      1.06685e+8 
           3950       1.1266e+8 
           3970       9.0386e+7 
           3990      1.10555e+8 
           4010       1.0848e+8 
           4030      1.06643e+8 
           4050      1.06267e+8 
           4070      1.04307e+8 
           4090      1.03226e+8 
           4110      8.78123e+7 
           4130      1.00086e+8 
           4150      1.01284e+8 
           4170      9.81617e+7 
           4190      9.79736e+7 
           4210       9.7436e+7 
           4230      9.59904e+7 
           4250      9.43153e+7 
           4270      9.32107e+7 
           4290      9.23334e+7 
           4310      8.94383e+7 
           4330      8.63113e+7 
           4350      7.69267e+7 
           4370      8.87095e+7 
           4390      8.59502e+7 
           4410      8.55075e+7 
           4430       8.5626e+7 
           4450       8.4605e+7 
           4470      8.35762e+7 
           4490      8.18598e+7 
           4510      8.18929e+7 
           4530      8.03874e+7 
           4550      7.83266e+7 
           4570      7.94446e+7 
           4590      7.72892e+7 
           4610      7.87402e+7 
           4630      7.59719e+7 
           4650       7.6846e+7 
           4670      7.56416e+7 
           4690      7.51726e+7 
           4710      7.31583e+7 
           4730      7.34603e+7 
           4750      7.28129e+7 
           4770      7.21523e+7 
           4790      7.13097e+7 
           4810      7.02147e+7 
           4830      6.93034e+7 
           4850      6.59751e+7 
           4870      5.64485e+7 
           4890      6.73548e+7 
           4910      6.66618e+7 
           4930      6.53672e+7 
           4950      6.53075e+7 
           4970      6.48729e+7 
           4990      6.37729e+7 
           5010      6.18644e+7 
           5030      6.18931e+7 
           5050      6.08661e+7 
           5070      6.09423e+7 
           5090      6.03858e+7 
           5110      5.95606e+7 
           5130      5.89396e+7 
           5150      5.79884e+7 
           5170      5.69571e+7 
           5190      5.63917e+7 
           5210      5.62316e+7 
           5230      5.50848e+7 
           5250      5.52605e+7 
           5270      5.37472e+7 
           5290      5.43108e+7 
           5310      5.29592e+7 
           5330      5.26752e+7 
           5350      5.28731e+7 
           5370      5.21886e+7 
           5390      5.16127e+7 
           5410      5.08933e+7 
           5430      5.02866e+7 
           5450      5.02226e+7 
           5470       4.9584e+7 
           5490      4.91971e+7 
           5510      4.85689e+7 
           5530      4.81024e+7 
           5550      4.78346e+7 
           5570      4.73096e+7 
           5590       4.6921e+7 
           5610      4.65476e+7 
           5630      4.60653e+7 
           5650      4.53539e+7 
           5670      4.50122e+7 
           5690      4.47138e+7 
           5710      4.42983e+7 
           5730      4.38771e+7 
           5750      4.34106e+7 
           5770      4.30118e+7 
           5790      4.24971e+7 
           5810      4.21057e+7 
           5830      4.16843e+7 
           5850      4.13491e+7 
           5870      4.08153e+7 
           5890      4.03051e+7 
           5910      4.01104e+7 
           5930      3.97664e+7 
           5950      3.91335e+7 
           5970      3.89404e+7 
           5990      3.83931e+7 
           6010       3.8234e+7 
           6030      3.78979e+7 
           6050      3.74573e+7 
           6070      3.71414e+7 
           6090      3.67739e+7 
           6110      3.64397e+7 
           6130       3.6086e+7 
           6150      3.51764e+7 
           6170      3.54019e+7 
           6190      3.51106e+7 
           6210       3.4792e+7 
           6230       3.4404e+7 
           6250      3.36807e+7 
           6270      3.38351e+7 
           6290      3.35089e+7 
           6310      3.30631e+7 
           6330      3.28677e+7 
           6350       3.2091e+7 
           6370      3.19325e+7 
           6390      3.19276e+7 
           6410      3.15756e+7 
           6430      3.13612e+7 
           6450      3.07577e+7 
           6470      3.08523e+7 
           6490       3.0386e+7 
           6510      3.01205e+7 
           6530      2.98258e+7 
           6550       2.8376e+7 
           6570      2.34513e+7 
           6590      2.89131e+7 
           6610      2.88522e+7 
           6630      2.86424e+7 
           6650      2.84252e+7 
           6670      2.81313e+7 
           6690      2.78868e+7 
           6710      2.76723e+7 
           6730      2.73484e+7 
           6750      2.71692e+7 
           6770      2.69522e+7 
           6790      2.66849e+7 
           6810      2.64708e+7 
           6830      2.61884e+7 
           6850      2.59899e+7 
           6870      2.57701e+7 
           6890      2.55557e+7 
           6910      2.53188e+7 
           6930      2.50756e+7 
           6950      2.48909e+7 
           6970      2.46676e+7 
           6990      2.44735e+7 
           7010      2.41424e+7 
           7030      2.40509e+7 
           7050      2.38033e+7 
           7070      2.36183e+7 
           7090      2.34455e+7 
           7110      2.31692e+7 
           7130      2.30135e+7 
           7150      2.28112e+7 
           7170      2.26358e+7 
           7190      2.24437e+7 
           7210      2.22621e+7 
           7230      2.20245e+7 
           7250      2.18458e+7 
           7270      2.17016e+7 
           7290      2.14997e+7 
           7310      2.12849e+7 
           7330      2.11458e+7 
           7350      2.09883e+7 
           7370      2.08337e+7 
           7390      2.06493e+7 
           7410      2.04591e+7 
           7430      2.02126e+7 
           7450      2.00866e+7 
           7470      1.98745e+7 
           7490      1.97685e+7 
           7510      1.95846e+7 
           7530      1.94846e+7 
           7550      1.93366e+7 
           7570      1.91636e+7 
           7590       1.9011e+7 
           7610      1.88774e+7 
           7630      1.87145e+7 
           7650      1.85305e+7 
           7670       1.8402e+7 
           7690      1.82535e+7 
           7710      1.80721e+7 
           7730      1.79699e+7 
           7750      1.78271e+7 
           7770      1.72824e+7 
           7790      1.75433e+7 
           7810      1.74122e+7 
           7830      1.72625e+7 
           7850      1.70689e+7 
           7870      1.68989e+7 
           7890      1.67153e+7 
           7910       1.6714e+7 
           7930      1.65939e+7 
           7950       1.6343e+7 
           7970      1.63417e+7 
           7990       1.5952e+7 
           8010       1.6085e+7 
           8030      1.59594e+7 
           8050      1.58337e+7 
           8070      1.57096e+7 
           8090      1.55905e+7 
           8110      1.54547e+7 
           8130      1.53537e+7 
           8150      1.52388e+7 
           8170      1.51236e+7 
           8190      1.49392e+7 
           8210      1.48296e+7 
           8230       1.4672e+7 
           8250      1.46684e+7 
           8270      1.46466e+7 
           8290      1.44801e+7 
           8310      1.43461e+7 
           8330      1.41372e+7 
           8350      1.41231e+7 
           8370      1.37766e+7 
           8390      1.38522e+7 
           8410       1.3739e+7 
           8430      1.40758e+7 
           8450      1.37375e+7 
           8470      1.34201e+7 
           8490      1.45408e+7 
           8510      1.31694e+7 
           8530       1.4705e+7 
           8550      1.28831e+7 
           8570      1.48394e+7 
           8590      1.41077e+7 
           8610      1.36931e+7 
           8630      1.49909e+7 
           8650      1.48084e+7 
           8670      1.25229e+7 
           8690      1.45726e+7 
           8710      1.46631e+7 
           8730      1.44631e+7 
           8750      1.23324e+7 
           8770      1.41928e+7 
           8790      1.42687e+7 
           8810      1.41312e+7 
           8830      1.39431e+7 
           8850      1.36473e+7 
           8870      1.18875e+7 
           8890      1.36936e+7 
           8910        1.357e+7 
           8930      1.34441e+7 
           8950      1.34555e+7 
           8970      1.33558e+7 
           8990      1.31967e+7 
           9010      1.15395e+7 
           9030      1.25487e+7 
           9050      1.29418e+7 
           9070      1.26947e+7 
           9090      1.25701e+7 
           9110      1.25989e+7 
           9130      1.25497e+7 
           9150      1.25043e+7 
           9170      1.23795e+7 
           9190      1.22316e+7 
           9210      1.20421e+7 
           9230      1.02128e+7 
           9250      1.17533e+7 
           9270      1.16005e+7 
           9290      1.18575e+7 
           9310      1.17992e+7 
           9330      1.16876e+7 
           9350      1.16321e+7 
           9370      1.15593e+7 
