# Kurucz ODFNEW /NOVER (2003)
# teff = 7250 K (value for the effective temperature for the model. Temperatures are given in K)
# logg = 0.5 log(cm/s2) (value for Log(G) for the model.)
# meta = -1  (value for the Metallicity for the model.)
# lh = 1.25  (l/Hp where l is the  mixing length of the convective element and Hp is the pressure scale height)
# vtur = 2 km/s (Microturbulence velocity)
# alpha = 0  (Alpha)
#
# column 1: WAVELENGTH (ANGSTROM), Wavelength in Angstrom
# column 2: FLUX (ERG/CM2/S/A), Flux in erg/cm2/s/A
            395     6.33142e-24 
            405     8.42505e-23 
            414     4.82242e-22 
            422      2.0975e-21 
            430     8.60263e-21 
            441     5.49149e-20 
            451     2.73063e-19 
            460     1.08742e-18 
            470     4.73461e-18 
            480     1.93466e-17 
            490     7.44782e-17 
            500     2.71125e-16 
            506     4.64283e-16 
            512     1.17311e-15 
            520     3.02791e-15 
            530      9.6528e-15 
            540     2.85118e-14 
            550     8.34073e-14 
            560     2.30843e-13 
            570     6.15545e-13 
            580     1.55854e-12 
            590     2.03917e-13 
            600     4.60395e-13 
            610     1.00979e-12 
            620     2.15404e-12 
            630     4.47595e-12 
            640     9.07489e-12 
            650     1.79698e-11 
            658     3.05307e-11 
            665     4.79856e-11 
            675     8.99355e-11 
            685     1.65184e-10 
            695     2.97616e-10 
            705     5.26099e-10 
            716     9.65604e-10 
            726      1.64686e-9 
            735       2.6268e-9 
            745      4.34903e-9 
            755       7.0941e-9 
            765      1.14083e-8 
            775      1.80956e-8 
            785      2.83288e-8 
            795      4.37156e-8 
            805       6.6832e-8 
            815        1.009e-7 
            825      1.50598e-7 
            835      2.22366e-7 
            845      3.24957e-7 
            855      4.70071e-7 
            865      6.73478e-7 
            875      9.55521e-7 
            885      1.34463e-6 
            895      1.87508e-6 
            905      2.59075e-6 
            915       0.0100556 
            925       0.0342256 
            935       0.0435282 
            945       0.0614225 
            955        0.088624 
            965         0.11425 
            975        0.132006 
            985        0.195699 
            995        0.241219 
           1005        0.327851 
           1015        0.393797 
           1025        0.476082 
           1035        0.667842 
           1045        0.859317 
           1055         1.07915 
           1065         1.30653 
           1075         1.64534 
           1085         2.03421 
           1095         2.43185 
           1105         7.35641 
           1115         22.6366 
           1125          30.698 
           1135         38.4384 
           1145         42.6578 
           1155         40.5471 
           1165         44.0897 
           1175         39.7624 
           1185         79.7605 
           1195          14.546 
           1205         9.69906 
           1215         2.49527 
           1225         11.7772 
           1235         29.8177 
           1245          60.791 
           1255         118.217 
           1265         167.237 
           1275         269.843 
           1285         432.165 
           1295         611.182 
           1305          642.93 
           1315         1011.94 
           1325         1346.32 
           1335         1626.94 
           1345          2203.7 
           1355         2530.17 
           1365         2997.09 
           1375         3583.72 
           1385         4379.21 
           1395         5320.41 
           1405         6363.67 
           1415         7075.02 
           1425          8645.6 
           1435         9302.86 
           1442         11593.8 
           1447         13316.5 
           1455         17258.9 
           1465         19008.3 
           1475         22578.2 
           1485         27449.8 
           1495         34753.1 
           1505         41250.2 
           1512         41709.5 
           1517         48001.2 
           1525         59162.2 
           1535          220708 
           1545          484724 
           1555          446898 
           1565          375387 
           1575          593458 
           1585          680392 
           1595          920949 
           1605          806158 
           1615          797506 
           1625          754850 
           1635          925129 
           1645      1.21358e+6 
           1655          696565 
           1665      1.19904e+6 
           1672          418291 
           1677      1.41887e+6 
           1685      1.88204e+6 
           1695      1.91772e+6 
           1705      1.70738e+6 
           1715      2.08742e+6 
           1725       2.2066e+6 
           1735      2.58873e+6 
           1745      2.39039e+6 
           1755      2.94801e+6 
           1765      2.45818e+6 
           1775      2.92308e+6 
           1785      2.75799e+6 
           1795      3.59492e+6 
           1805      3.14436e+6 
           1815      3.45495e+6 
           1825      3.07039e+6 
           1835      3.03892e+6 
           1845      2.83995e+6 
           1855      3.11399e+6 
           1865      3.29503e+6 
           1875      3.35717e+6 
           1885      3.49023e+6 
           1895      3.69635e+6 
           1905      3.41151e+6 
           1915       3.7498e+6 
           1925      3.91153e+6 
           1935       3.3147e+6 
           1945      4.17716e+6 
           1955      4.25449e+6 
           1967      4.51023e+6 
           1976      4.44029e+6 
           1984      4.35182e+6 
           1995      4.24897e+6 
           2005      4.13969e+6 
           2015      3.98643e+6 
           2025      3.79943e+6 
           2035      4.29272e+6 
           2045      4.68504e+6 
           2055      4.29423e+6 
           2065      4.13471e+6 
           2074       5.0065e+6 
           2078       5.1777e+6 
           2085      5.00581e+6 
           2095      4.81849e+6 
           2105      4.56885e+6 
           2115      4.64972e+6 
           2125      4.80378e+6 
           2135      3.78827e+6 
           2145      4.54677e+6 
           2155      4.69043e+6 
           2165      4.37418e+6 
           2175      4.39441e+6 
           2185      4.56323e+6 
           2195        5.054e+6 
           2205      4.84748e+6 
           2215      4.27414e+6 
           2225      4.23238e+6 
           2235      5.10624e+6 
           2245      4.54315e+6 
           2255      4.22394e+6 
           2265      4.24445e+6 
           2275      4.80794e+6 
           2285      5.01611e+6 
           2295      4.66421e+6 
           2305       4.8603e+6 
           2315      4.71507e+6 
           2325      4.55877e+6 
           2335      3.68719e+6 
           2345      3.03924e+6 
           2355      4.47821e+6 
           2365      3.12849e+6 
           2375      4.02855e+6 
           2385      2.57958e+6 
           2395      3.30963e+6 
           2405      3.15477e+6 
           2415      3.66373e+6 
           2425      4.90132e+6 
           2435      4.81673e+6 
           2445      5.14878e+6 
           2455      5.03235e+6 
           2465      4.97933e+6 
           2475      4.72263e+6 
           2485      4.97277e+6 
           2495      4.84088e+6 
           2505      5.75316e+6 
           2513       4.8195e+6 
           2518      5.11405e+6 
           2525      4.53591e+6 
           2535      4.39678e+6 
           2545        4.503e+6 
           2555      4.98541e+6 
           2565      4.75462e+6 
           2575      5.28695e+6 
           2585      5.02276e+6 
           2595      4.71654e+6 
           2605      4.29584e+6 
           2615      4.10323e+6 
           2625      4.97227e+6 
           2635       5.4774e+6 
           2645      7.01546e+6 
           2655      6.99317e+6 
           2665      6.16104e+6 
           2675      6.54836e+6 
           2685      6.52789e+6 
           2695      6.21189e+6 
           2705      6.41885e+6 
           2715      5.85699e+6 
           2725        5.981e+6 
           2735      6.51249e+6 
           2745      4.59738e+6 
           2755      5.21017e+6 
           2765      5.68157e+6 
           2775      6.53597e+6 
           2785      5.99903e+6 
           2795       2.7836e+6 
           2805      3.48622e+6 
           2815       6.7062e+6 
           2825      7.26021e+6 
           2835      6.97706e+6 
           2845      6.78288e+6 
           2855      6.39158e+6 
           2865      7.10341e+6 
           2875      6.90231e+6 
           2885       7.1225e+6 
           2895      6.79693e+6 
           2910      7.85214e+6 
           2930      7.61147e+6 
           2950      7.59303e+6 
           2970      7.92418e+6 
           2990      8.09369e+6 
           3010      8.32205e+6 
           3030      8.32499e+6 
           3050      8.32834e+6 
           3070       8.3353e+6 
           3090      8.65348e+6 
           3110      8.41595e+6 
           3130      8.40142e+6 
           3150      8.75903e+6 
           3170      8.81044e+6 
           3190      8.38044e+6 
           3210      8.74469e+6 
           3230      8.54321e+6 
           3250      8.84213e+6 
           3270      8.95027e+6 
           3290      9.15537e+6 
           3310      9.32668e+6 
           3330      9.16029e+6 
           3350      9.05091e+6 
           3370      9.08909e+6 
           3390      9.18016e+6 
           3410      9.47356e+6 
           3430      9.61477e+6 
           3450      9.58812e+6 
           3470      9.46916e+6 
           3490      9.44136e+6 
           3510      9.74198e+6 
           3530        9.891e+6 
           3550       1.0028e+7 
           3570      9.77376e+6 
           3590      9.79962e+6 
           3610      9.88792e+6 
           3630      1.00154e+7 
           3640      9.88625e+6 
           3650      1.01862e+7 
           3670      1.02822e+7 
           3690      1.17141e+7 
           3710      1.64201e+7 
           3730        2.727e+7 
           3750      3.93299e+7 
           3770      3.96744e+7 
           3790      4.49219e+7 
           3810       4.9001e+7 
           3830      4.02234e+7 
           3850      5.00086e+7 
           3870      5.10476e+7 
           3890      3.93357e+7 
           3910      4.94171e+7 
           3930      4.01538e+7 
           3950      4.91626e+7 
           3970      3.45969e+7 
           3990      4.92372e+7 
           4010      4.90659e+7 
           4030      4.83412e+7 
           4050      4.80854e+7 
           4070       4.7216e+7 
           4090      4.59266e+7 
           4110      3.72802e+7 
           4130      4.61301e+7 
           4150      4.62969e+7 
           4170      4.49677e+7 
           4190      4.48077e+7 
           4210      4.44383e+7 
           4230      4.38127e+7 
           4250      4.34576e+7 
           4270      4.28407e+7 
           4290      4.25036e+7 
           4310      4.06783e+7 
           4330       3.8505e+7 
           4350      3.37499e+7 
           4370      4.12497e+7 
           4390      4.02277e+7 
           4410      3.93735e+7 
           4430      4.00401e+7 
           4450      3.95973e+7 
           4470      3.91853e+7 
           4490      3.87902e+7 
           4510        3.881e+7 
           4530      3.78622e+7 
           4550      3.68932e+7 
           4570      3.76731e+7 
           4590      3.67072e+7 
           4610      3.74264e+7 
           4630      3.63691e+7 
           4650      3.65918e+7 
           4670      3.61357e+7 
           4690      3.57511e+7 
           4710       3.4723e+7 
           4730      3.52265e+7 
           4750      3.50857e+7 
           4770      3.45802e+7 
           4790       3.4228e+7 
           4810      3.38625e+7 
           4830      3.33469e+7 
           4850      3.06316e+7 
           4870      2.52737e+7 
           4890      3.22374e+7 
           4910      3.22222e+7 
           4930      3.15288e+7 
           4950      3.16313e+7 
           4970      3.15511e+7 
           4990      3.09507e+7 
           5010      3.01622e+7 
           5030       3.0383e+7 
           5050      3.00763e+7 
           5070      2.99641e+7 
           5090      2.96563e+7 
           5110      2.93799e+7 
           5130       2.8875e+7 
           5150      2.85617e+7 
           5170      2.78633e+7 
           5190      2.75889e+7 
           5210      2.76689e+7 
           5230      2.71726e+7 
           5250      2.73815e+7 
           5270      2.65257e+7 
           5290      2.68707e+7 
           5310      2.63426e+7 
           5330      2.60299e+7 
           5350      2.62674e+7 
           5370      2.58605e+7 
           5390      2.56391e+7 
           5410      2.53276e+7 
           5430      2.50596e+7 
           5450      2.50282e+7 
           5470      2.48241e+7 
           5490      2.46511e+7 
           5510      2.43893e+7 
           5530      2.40543e+7 
           5550      2.40488e+7 
           5570      2.37853e+7 
           5590      2.35672e+7 
           5610      2.33827e+7 
           5630       2.3205e+7 
           5650      2.28947e+7 
           5670      2.27077e+7 
           5690       2.2589e+7 
           5710      2.23952e+7 
           5730      2.22254e+7 
           5750      2.20187e+7 
           5770      2.18323e+7 
           5790      2.16278e+7 
           5810      2.14468e+7 
           5830      2.12578e+7 
           5850      2.10742e+7 
           5870      2.08947e+7 
           5890      2.05044e+7 
           5910      2.05352e+7 
           5930      2.03562e+7 
           5950      2.01749e+7 
           5970      2.00188e+7 
           5990      1.98118e+7 
           6010      1.96541e+7 
           6030      1.94991e+7 
           6050      1.93354e+7 
           6070      1.91847e+7 
           6090      1.90081e+7 
           6110      1.88364e+7 
           6130      1.86536e+7 
           6150      1.83561e+7 
           6170      1.83442e+7 
           6190      1.82308e+7 
           6210      1.80871e+7 
           6230      1.79081e+7 
           6250      1.75728e+7 
           6270      1.76459e+7 
           6290      1.74976e+7 
           6310      1.73036e+7 
           6330      1.71982e+7 
           6350      1.69938e+7 
           6370      1.68576e+7 
           6390       1.6779e+7 
           6410      1.65983e+7 
           6430      1.64925e+7 
           6450      1.62654e+7 
           6470      1.62514e+7 
           6490      1.60172e+7 
           6510      1.59065e+7 
           6530      1.57279e+7 
           6550      1.46011e+7 
           6570      1.15816e+7 
           6590      1.51982e+7 
           6610      1.52797e+7 
           6630      1.52254e+7 
           6650      1.51314e+7 
           6670      1.50077e+7 
           6690      1.48962e+7 
           6710      1.47808e+7 
           6730      1.46631e+7 
           6750       1.4545e+7 
           6770      1.44444e+7 
           6790      1.43259e+7 
           6810      1.42199e+7 
           6830      1.40972e+7 
           6850      1.39949e+7 
           6870      1.38928e+7 
           6890      1.37869e+7 
           6910      1.36804e+7 
           6930      1.35748e+7 
           6950      1.34726e+7 
           6970      1.33683e+7 
           6990      1.32688e+7 
           7010      1.31472e+7 
           7030      1.30633e+7 
           7050      1.29688e+7 
           7070      1.28722e+7 
           7090      1.27772e+7 
           7110      1.26153e+7 
           7130       1.2572e+7 
           7150      1.24841e+7 
           7170      1.23933e+7 
           7190      1.22909e+7 
           7210      1.22003e+7 
           7230      1.20976e+7 
           7250       1.2026e+7 
           7270      1.19428e+7 
           7290      1.18419e+7 
           7310      1.17356e+7 
           7330      1.16667e+7 
           7350       1.1588e+7 
           7370      1.15148e+7 
           7390      1.14222e+7 
           7410      1.13283e+7 
           7430      1.12429e+7 
           7450      1.11643e+7 
           7470      1.10593e+7 
           7490      1.09956e+7 
           7510      1.09205e+7 
           7530      1.08565e+7 
           7550      1.07879e+7 
           7570      1.07033e+7 
           7590       1.0632e+7 
           7610      1.05573e+7 
           7630      1.04819e+7 
           7650      1.03989e+7 
           7670      1.03236e+7 
           7690      1.02572e+7 
           7710      1.01622e+7 
           7730      1.01148e+7 
           7750      1.00426e+7 
           7770      9.81871e+6 
           7790      9.90555e+6 
           7810      9.83512e+6 
           7830      9.75975e+6 
           7850      9.68318e+6 
           7870       9.6097e+6 
           7890       9.5332e+6 
           7910      9.48807e+6 
           7930      9.42289e+6 
           7950       9.3511e+6 
           7970      9.30304e+6 
           7990      9.21168e+6 
           8010       9.1722e+6 
           8030      9.10728e+6 
           8050      9.04813e+6 
           8070      8.98483e+6 
           8090      8.92319e+6 
           8110      8.86549e+6 
           8130      8.80653e+6 
           8150      8.74692e+6 
           8170      8.68721e+6 
           8190      8.59092e+6 
           8210      8.57706e+6 
           8230      8.52096e+6 
           8250      8.44815e+6 
           8270      8.42882e+6 
           8290      8.35586e+6 
           8310      8.25567e+6 
           8330      8.12595e+6 
           8350      8.19406e+6 
           8370       7.9549e+6 
           8390      8.05831e+6 
           8410      8.03974e+6 
           8430      8.28737e+6 
           8450      8.16957e+6 
           8470      7.92991e+6 
           8490      8.62849e+6 
           8510      7.80196e+6 
           8530      8.78697e+6 
           8550      7.51681e+6 
           8570      8.98366e+6 
           8590      8.54007e+6 
           8610      8.29869e+6 
           8630        9.234e+6 
           8650      9.10575e+6 
           8670      7.44348e+6 
           8690      9.05055e+6 
           8710      9.12226e+6 
           8730      8.99845e+6 
           8750      7.49842e+6 
           8770      8.77059e+6 
           8790      8.88724e+6 
           8810      8.81393e+6 
           8830      8.71655e+6 
           8850      8.41842e+6 
           8870      7.26722e+6 
           8890       8.5397e+6 
           8910      8.48812e+6 
           8930      8.42747e+6 
           8950      8.43076e+6 
           8970      8.36933e+6 
           8990      8.26221e+6 
           9010      7.10207e+6 
           9030      7.76551e+6 
           9050       8.1222e+6 
           9070      7.97056e+6 
           9090      7.84753e+6 
           9110      7.92614e+6 
           9130      7.92626e+6 
           9150      7.88309e+6 
           9170       7.8241e+6 
           9190      7.75262e+6 
           9210       7.5813e+6 
           9230      6.33153e+6 
           9250       7.4014e+6 
           9270      7.44315e+6 
           9290      7.51895e+6 
           9310      7.47277e+6 
           9330      7.42086e+6 
           9350       7.3745e+6 
           9370      7.32803e+6 
           9390      7.26609e+6 
           9410      7.13057e+6 
           9430      7.16772e+6 
           9450      7.13066e+6 
           9470      7.08839e+6 
           9490      7.04432e+6 
           9510      6.98223e+6 
