# Kurucz ODFNEW /NOVER (2003)
# teff = 25000 K (value for the effective temperature for the model. Temperatures are given in K)
# logg = 4 log(cm/s2) (value for Log(G) for the model.)
# meta = 0.2  (value for the Metallicity for the model.)
# lh = 1.25  (l/Hp where l is the  mixing length of the convective element and Hp is the pressure scale height)
# vtur = 2 km/s (Microturbulence velocity)
# alpha = 0.4  (Alpha)
#
# column 1: WAVELENGTH (ANGSTROM), Wavelength in Angstrom
# column 2: FLUX (ERG/CM2/S/A), Flux in erg/cm2/s/A
          147.2     2.90408e-14 
            151     1.20922e-13 
          155.2     5.41296e-13 
          158.8     1.84276e-12 
            162     5.24728e-12 
            166     1.83976e-11 
          170.3      6.6297e-11 
          173.4     1.62244e-10 
          176.8     4.16571e-10 
          180.2      1.03458e-9 
          181.7       1.5286e-9 
          186.1      4.66522e-9 
            191      1.52949e-8 
          193.9      3.00484e-8 
          198.4      8.26463e-8 
          201.8      1.72632e-7 
            205        3.382e-7 
          210.5      1.02875e-6 
          216.2      3.08065e-6 
          219.8      5.99256e-6 
            223      1.06445e-5 
          226.8      2.07128e-5 
            230     0.000625292 
            234      0.00142233 
            240      0.00339482 
          246.5      0.00833164 
          252.4       0.0183079 
          256.8       0.0309164 
            260        0.049181 
            264       0.0771718 
          268.5        0.131378 
          273.5        0.229063 
          278.5        0.392329 
            284        0.756672 
            290         1.35994 
            296         2.40551 
            301         3.78114 
            308         7.44293 
            318           17.86 
            328         37.7766 
            338          81.945 
            348         163.908 
            357         955.827 
            366         2092.91 
            375         3198.15 
            385         5472.58 
            395         11155.4 
            405         16977.8 
            414         25945.3 
            422         35778.8 
            430         50806.5 
            441         76403.2 
            451          105649 
            460          138783 
            470          195647 
            480          264626 
            490          359941 
            500          474122 
            506      2.26403e+6 
            512        1.923e+7 
            520      2.10517e+7 
            530      2.45551e+7 
            540      2.50455e+7 
            550      3.82782e+7 
            560      4.58514e+7 
            570      5.42866e+7 
            580      5.09962e+7 
            590      6.86154e+7 
            600      7.43873e+7 
            610      8.84712e+7 
            620      9.58612e+7 
            630      1.00082e+8 
            640       8.9143e+7 
            650       6.4192e+7 
            658      1.00646e+8 
            665      1.27086e+8 
            675      1.34866e+8 
            685      1.36481e+8 
            695      1.84042e+8 
            705      1.82307e+8 
            716      2.10067e+8 
            726      2.12632e+8 
            735      2.25888e+8 
            745      2.58418e+8 
            755      2.73712e+8 
            765      2.94425e+8 
            775      3.14411e+8 
            785      3.36065e+8 
            795      3.43967e+8 
            805      3.56943e+8 
            815      3.66296e+8 
            825      4.00073e+8 
            835      3.28616e+8 
            845      4.07988e+8 
            855      4.15455e+8 
            865      4.42826e+8 
            875      4.68662e+8 
            885      5.08511e+8 
            895      5.31543e+8 
            905      5.20046e+8 
            915      7.34492e+8 
            925       5.0009e+9 
            935     1.15593e+10 
            945     2.13232e+10 
            955     2.65219e+10 
            965     2.97718e+10 
            975      4.84473e+9 
            985     2.27799e+10 
            995     2.28821e+10 
           1005     2.77341e+10 
           1015     2.87674e+10 
           1025     1.57928e+10 
           1035     2.25357e+10 
           1045     3.50744e+10 
           1055     3.18774e+10 
           1065       2.362e+10 
           1075     2.83835e+10 
           1085     2.58956e+10 
           1095     2.92853e+10 
           1105     2.49858e+10 
           1115     2.26133e+10 
           1125     1.68218e+10 
           1135     2.58854e+10 
           1145     2.29493e+10 
           1155     2.37352e+10 
           1165     2.38322e+10 
           1175     1.30699e+10 
           1185     2.23367e+10 
           1195     1.95376e+10 
           1205     1.01142e+10 
           1215     1.09582e+10 
           1225     1.86526e+10 
           1235      2.2078e+10 
           1245     2.13758e+10 
           1255     2.10013e+10 
           1265     2.14157e+10 
           1275     2.21701e+10 
           1285     2.19397e+10 
           1295     1.25828e+10 
           1305     1.40897e+10 
           1315     2.12285e+10 
           1325     1.96433e+10 
           1335     1.90512e+10 
           1345     1.91167e+10 
           1355     1.90143e+10 
           1365      1.6896e+10 
           1375     1.62418e+10 
           1385     1.52273e+10 
           1395      8.87471e+9 
           1405     1.05733e+10 
           1415     1.35438e+10 
           1425     1.36054e+10 
           1435     1.42856e+10 
           1442     1.47756e+10 
           1447     1.45128e+10 
           1455     1.39114e+10 
           1465     1.26214e+10 
           1475     1.30602e+10 
           1485     1.28087e+10 
           1495     1.25096e+10 
           1505     1.10593e+10 
           1512      9.91349e+9 
           1517      1.0288e+10 
           1525     1.06967e+10 
           1535      8.84894e+9 
           1545      8.46693e+9 
           1555      8.28079e+9 
           1565      9.07759e+9 
           1575      9.76243e+9 
           1585      9.77999e+9 
           1595      9.69787e+9 
           1605      9.93775e+9 
           1615      9.68969e+9 
           1625      9.45624e+9 
           1635     1.01414e+10 
           1645     1.01791e+10 
           1655      9.95209e+9 
           1665     1.01627e+10 
           1672      9.61194e+9 
           1677     1.07078e+10 
           1685     1.03309e+10 
           1695      9.66651e+9 
           1705      9.39172e+9 
           1715      8.80142e+9 
           1725      8.63422e+9 
           1735       9.0611e+9 
           1745      8.87045e+9 
           1755      8.87692e+9 
           1765      8.79609e+9 
           1775      8.10824e+9 
           1785      8.27907e+9 
           1795      8.63022e+9 
           1805      8.72021e+9 
           1815      7.63242e+9 
           1825      8.02374e+9 
           1835      7.70772e+9 
           1845      6.97442e+9 
           1855       7.0977e+9 
           1865      7.17841e+9 
           1875      7.52253e+9 
           1885      6.65103e+9 
           1895      6.17712e+9 
           1905      6.78222e+9 
           1915      6.28782e+9 
           1925      5.93363e+9 
           1935      6.37957e+9 
           1945      6.47954e+9 
           1955      5.79058e+9 
           1967      6.40026e+9 
           1976      6.70092e+9 
           1984       6.1696e+9 
           1995       6.0724e+9 
           2005      6.34748e+9 
           2015      6.23026e+9 
           2025      6.41059e+9 
           2035      5.80638e+9 
           2045      5.96377e+9 
           2055      5.67205e+9 
           2065      5.65356e+9 
           2074       5.9297e+9 
           2078      5.33248e+9 
           2085      5.71018e+9 
           2095      5.38542e+9 
           2105      5.59429e+9 
           2115      5.64367e+9 
           2125      5.66826e+9 
           2135      5.57008e+9 
           2145      5.24954e+9 
           2155      5.51568e+9 
           2165      5.49627e+9 
           2175      5.41949e+9 
           2185      5.20571e+9 
           2195      5.29428e+9 
           2205      5.29177e+9 
           2215      5.18636e+9 
           2225      5.03194e+9 
           2235      4.96423e+9 
           2245      5.02117e+9 
           2255      4.82945e+9 
           2265      4.91614e+9 
           2275      4.83356e+9 
           2285      4.81603e+9 
           2295      4.31667e+9 
           2305      4.63964e+9 
           2315      4.49589e+9 
           2325      4.44984e+9 
           2335       4.2882e+9 
           2345      4.34508e+9 
           2355      4.32449e+9 
           2365       4.2849e+9 
           2375      4.18998e+9 
           2385      4.16254e+9 
           2395      4.11636e+9 
           2405      4.03321e+9 
           2415      3.99271e+9 
           2425      3.99143e+9 
           2435       3.8615e+9 
           2445      3.87693e+9 
           2455       3.8786e+9 
           2465      3.80677e+9 
           2475       3.7393e+9 
           2485      3.63544e+9 
           2495      2.91457e+9 
           2505      3.48841e+9 
           2513      3.38988e+9 
           2518      3.51547e+9 
           2525       3.4856e+9 
           2535      3.45646e+9 
           2545      3.27795e+9 
           2555       3.3666e+9 
           2565      3.30204e+9 
           2575      3.34025e+9 
           2585      3.28948e+9 
           2595      3.26334e+9 
           2605      3.23827e+9 
           2615      3.18474e+9 
           2625      3.16462e+9 
           2635      3.13419e+9 
           2645      3.10058e+9 
           2655      3.08303e+9 
           2665      2.93985e+9 
           2675      2.96908e+9 
           2685      2.96128e+9 
           2695      2.84701e+9 
           2705      2.78414e+9 
           2715      2.79515e+9 
           2725      2.78888e+9 
           2735      2.76933e+9 
           2745      2.69609e+9 
           2755      2.68936e+9 
           2765      2.66137e+9 
           2775      2.68723e+9 
           2785      2.63582e+9 
           2795      2.52416e+9 
           2805      2.56317e+9 
           2815      2.56962e+9 
           2825      2.53522e+9 
           2835      2.43417e+9 
           2845      2.46819e+9 
           2855      2.41945e+9 
           2865      2.42412e+9 
           2875      2.39361e+9 
           2885      2.36885e+9 
           2895      2.32685e+9 
           2910      2.27174e+9 
           2930      2.25228e+9 
           2950       2.1857e+9 
           2970       2.1553e+9 
           2990      2.10258e+9 
           3010      2.01432e+9 
           3030      2.01223e+9 
           3050      1.98479e+9 
           3070      1.95997e+9 
           3090      1.86788e+9 
           3110       1.8707e+9 
           3130      1.81887e+9 
           3150      1.79418e+9 
           3170      1.74522e+9 
           3190      1.71141e+9 
           3210      1.69007e+9 
           3230      1.64574e+9 
           3250      1.62494e+9 
           3270      1.58652e+9 
           3290      1.55507e+9 
           3310      1.52729e+9 
           3330      1.49321e+9 
           3350      1.46875e+9 
           3370      1.43651e+9 
           3390      1.41761e+9 
           3410       1.3916e+9 
           3430      1.36235e+9 
           3450      1.33141e+9 
           3470      1.30703e+9 
           3490      1.28007e+9 
           3510      1.26038e+9 
           3530      1.24545e+9 
           3550      1.22105e+9 
           3570      1.20312e+9 
           3590      1.16616e+9 
           3610      1.14822e+9 
           3630      1.13097e+9 
           3640      1.13031e+9 
           3650      1.11219e+9 
           3670      1.10063e+9 
           3690      1.07775e+9 
           3710      1.03471e+9 
           3730      9.96189e+8 
           3750      1.03989e+9 
           3770      1.02855e+9 
           3790      1.07311e+9 
           3810      1.10968e+9 
           3830      9.78337e+8 
           3850      1.11193e+9 
           3870      1.09581e+9 
           3890      9.27054e+8 
           3910      1.10088e+9 
           3930      1.05929e+9 
           3950      1.04842e+9 
           3970      8.60859e+8 
           3990      1.01522e+9 
           4010      1.01142e+9 
           4030      9.57614e+8 
           4050      9.74455e+8 
           4070        9.221e+8 
           4090       8.6813e+8 
           4110      7.83183e+8 
           4130      8.83752e+8 
           4150      8.78864e+8 
           4170      8.78535e+8 
           4190      8.68902e+8 
           4210       8.6311e+8 
           4230       8.4164e+8 
           4250      8.14904e+8 
           4270      7.90489e+8 
           4290      7.79144e+8 
           4310      7.54286e+8 
           4330      7.03752e+8 
           4350      6.48498e+8 
           4370      7.19828e+8 
           4390      7.18679e+8 
           4410      7.12388e+8 
           4430      7.08005e+8 
           4450      6.95397e+8 
           4470      6.66468e+8 
           4490       6.7454e+8 
           4510      6.71979e+8 
           4530      6.60735e+8 
           4550      6.52064e+8 
           4570      6.40218e+8 
           4590      6.28911e+8 
           4610      6.12634e+8 
           4630      6.05156e+8 
           4650      5.83968e+8 
           4670      5.86698e+8 
           4690      5.83058e+8 
           4710      5.56872e+8 
           4730      5.63287e+8 
           4750      5.53694e+8 
           4770      5.55319e+8 
           4790      5.44863e+8 
           4810      5.31499e+8 
           4830      5.21406e+8 
           4850      4.92147e+8 
           4870       4.4262e+8 
           4890      5.01096e+8 
           4910      4.95694e+8 
           4930      4.78939e+8 
           4950      4.79228e+8 
           4970      4.78337e+8 
           4990      4.70017e+8 
           5010      4.48546e+8 
           5030      4.54918e+8 
           5050      4.43434e+8 
           5070       4.4406e+8 
           5090      4.35881e+8 
           5110      4.28551e+8 
           5130      4.19304e+8 
           5150       4.1523e+8 
           5170      4.11925e+8 
           5190       4.0691e+8 
           5210      3.98615e+8 
           5230       3.9582e+8 
           5250      3.90705e+8 
           5270      3.83893e+8 
           5290      3.80161e+8 
           5310       3.7439e+8 
           5330      3.69278e+8 
           5350      3.63403e+8 
           5370      3.60087e+8 
           5390      3.54658e+8 
           5410      3.50393e+8 
           5430      3.44775e+8 
           5450      3.39916e+8 
           5470      3.35357e+8 
           5490      3.31668e+8 
           5510      3.28061e+8 
           5530      3.22748e+8 
           5550      3.19582e+8 
           5570      3.15021e+8 
           5590      3.11457e+8 
           5610      3.06774e+8 
           5630      3.03564e+8 
           5650      2.97029e+8 
           5670      2.92136e+8 
           5690      2.88062e+8 
           5710      2.86452e+8 
           5730      2.83744e+8 
           5750      2.78902e+8 
           5770      2.77266e+8 
           5790      2.73478e+8 
           5810      2.70013e+8 
           5830       2.6598e+8 
           5850      2.63141e+8 
           5870      2.52867e+8 
           5890      2.54117e+8 
           5910      2.52346e+8 
           5930      2.49029e+8 
           5950        2.454e+8 
           5970      2.44678e+8 
           5990      2.40096e+8 
           6010      2.38417e+8 
           6030      2.34911e+8 
           6050      2.32362e+8 
           6070      2.29995e+8 
           6090      2.27197e+8 
           6110      2.24531e+8 
           6130      2.22076e+8 
           6150      2.17716e+8 
           6170      2.15861e+8 
           6190      2.14026e+8 
           6210      2.11712e+8 
           6230      2.09355e+8 
           6250      2.06146e+8 
           6270      2.04028e+8 
           6290      2.01895e+8 
           6310      1.99141e+8 
           6330      1.97349e+8 
           6350       1.9394e+8 
           6370      1.92436e+8 
           6390      1.90348e+8 
           6410      1.88181e+8 
           6430      1.86402e+8 
           6450      1.84106e+8 
           6470      1.81143e+8 
           6490      1.79349e+8 
           6510       1.7759e+8 
           6530       1.7464e+8 
           6550      1.68658e+8 
           6570      1.49636e+8 
           6590      1.67458e+8 
           6610      1.67662e+8 
           6630      1.66181e+8 
           6650      1.64126e+8 
           6670      1.61086e+8 
           6690      1.59442e+8 
           6710      1.59104e+8 
           6730      1.56829e+8 
           6750      1.55802e+8 
           6770       1.5411e+8 
           6790      1.50924e+8 
           6810      1.50436e+8 
           6830      1.48612e+8 
           6850       1.4744e+8 
           6870      1.45817e+8 
           6890      1.44011e+8 
           6910      1.42169e+8 
           6930      1.41177e+8 
           6950      1.39796e+8 
           6970      1.38328e+8 
           6990       1.3679e+8 
           7010      1.35305e+8 
           7030      1.33865e+8 
           7050      1.32501e+8 
           7070      1.28956e+8 
           7090      1.29691e+8 
           7110      1.27263e+8 
           7130      1.26068e+8 
           7150       1.2557e+8 
           7170      1.24453e+8 
           7190      1.23237e+8 
           7210      1.21967e+8 
           7230      1.18742e+8 
           7250      1.19091e+8 
           7270       1.1823e+8 
           7290      1.16072e+8 
           7310      1.15812e+8 
           7330      1.14599e+8 
           7350      1.13509e+8 
           7370      1.12394e+8 
           7390      1.11262e+8 
           7410      1.10148e+8 
           7430      1.08901e+8 
           7450      1.07896e+8 
           7470      1.05975e+8 
           7490      1.05652e+8 
           7510      1.04682e+8 
           7530      1.03529e+8 
           7550      1.02704e+8 
           7570      1.01715e+8 
           7590      1.00656e+8 
           7610      9.94774e+7 
           7630      9.87107e+7 
           7650      9.77446e+7 
           7670      9.68321e+7 
           7690      9.58831e+7 
           7710      9.49364e+7 
           7730      9.39414e+7 
           7750      9.31498e+7 
           7770      9.14853e+7 
           7790      9.13824e+7 
           7810      9.04517e+7 
           7830      8.96523e+7 
           7850      8.86825e+7 
           7870      8.77092e+7 
           7890      8.66055e+7 
           7910      8.62103e+7 
           7930      8.53806e+7 
           7950      8.43197e+7 
           7970      8.36539e+7 
           7990      8.26396e+7 
           8010      8.21452e+7 
           8030      8.13743e+7 
           8050      8.06565e+7 
           8070      7.99853e+7 
           8090      7.91126e+7 
           8110      7.79038e+7 
           8130      7.78003e+7 
           8150      7.70275e+7 
           8170      7.64646e+7 
           8190      7.52099e+7 
           8210      7.45868e+7 
           8230      7.37464e+7 
           8250      7.36328e+7 
           8270      7.20212e+7 
           8290      7.21784e+7 
           8310      7.16132e+7 
           8330        7.102e+7 
           8350      7.00048e+7 
           8370      6.94931e+7 
           8390      6.90873e+7 
           8410      6.84022e+7 
           8430      6.77918e+7 
           8450      6.64424e+7 
           8470      6.64966e+7 
           8490       6.5823e+7 
           8510      6.50406e+7 
           8530      6.48085e+7 
           8550      6.32379e+7 
           8570      6.43742e+7 
