# Kurucz ODFNEW /NOVER (2003)
# teff = 25000 K (value for the effective temperature for the model. Temperatures are given in K)
# logg = 4.5 log(cm/s2) (value for Log(G) for the model.)
# meta = -0.5  (value for the Metallicity for the model.)
# lh = 1.25  (l/Hp where l is the  mixing length of the convective element and Hp is the pressure scale height)
# vtur = 2 km/s (Microturbulence velocity)
# alpha = 0.4  (Alpha)
#
# column 1: WAVELENGTH (ANGSTROM), Wavelength in Angstrom
# column 2: FLUX (ERG/CM2/S/A), Flux in erg/cm2/s/A
          147.2     4.86129e-14 
            151     2.04334e-13 
          155.2     9.26049e-13 
          158.8     3.19042e-12 
            162      9.1976e-12 
            166     3.27813e-11 
          170.3     1.20604e-10 
          173.4     2.97862e-10 
          176.8     7.75545e-10 
          180.2      1.95325e-9 
          181.7      2.90567e-9 
          186.1      9.01532e-9 
            191       3.0057e-8 
          193.9      5.96669e-8 
          198.4      1.66598e-7 
          201.8      3.51685e-7 
            205      6.95405e-7 
          210.5      2.14448e-6 
          216.2      6.50054e-6 
          219.8      1.27261e-5 
            223      2.27179e-5 
          226.8      4.42885e-5 
            230       0.0023583 
            234      0.00539094 
            240       0.0126047 
          246.5       0.0301819 
          252.4       0.0649607 
          256.8        0.106701 
            260        0.164914 
            264         0.25852 
          268.5        0.428624 
          273.5        0.729816 
          278.5          1.2291 
            284         2.19514 
            290         3.86956 
            296           6.681 
            301         10.3142 
            308         18.4306 
            318         42.8125 
            328         88.0018 
            338         181.793 
            348         350.431 
            357         778.472 
            366         1371.04 
            375         2181.86 
            385         3679.48 
            395         6078.62 
            405         9550.47 
            414         14314.1 
            422         19563.1 
            430         27139.2 
            441         41252.5 
            451         59565.2 
            460         80309.6 
            470          112171 
            480          152943 
            490          207790 
            500          278343 
            506      1.72609e+6 
            512      7.56437e+6 
            520      8.87515e+6 
            530      1.11979e+7 
            540      1.19845e+7 
            550      1.64354e+7 
            560      1.88713e+7 
            570      2.26965e+7 
            580       2.2503e+7 
            590      2.89165e+7 
            600      3.28278e+7 
            610      3.83695e+7 
            620      4.21733e+7 
            630       4.6787e+7 
            640      4.77414e+7 
            650      4.83168e+7 
            658      5.89052e+7 
            665      6.53549e+7 
            675       6.9477e+7 
            685      7.43832e+7 
            695      8.88271e+7 
            705      9.32226e+7 
            716      1.04776e+8 
            726      1.10722e+8 
            735      1.17986e+8 
            745      1.31232e+8 
            755      1.41168e+8 
            765      1.51638e+8 
            775      1.63776e+8 
            785      1.75904e+8 
            795      1.84095e+8 
            805      1.94909e+8 
            815      2.04057e+8 
            825      2.19946e+8 
            835      2.14369e+8 
            845      2.37537e+8 
            855      2.48721e+8 
            865      2.64336e+8 
            875      2.80417e+8 
            885      2.99272e+8 
            895      3.13851e+8 
            905       3.1878e+8 
            915      4.18597e+8 
            925      2.08987e+9 
            935      5.74645e+9 
            945     1.58011e+10 
            955     2.30501e+10 
            965      3.0458e+10 
            975      6.77192e+9 
            985     3.23454e+10 
            995     2.97955e+10 
           1005     3.27306e+10 
           1015     3.04049e+10 
           1025       9.8501e+9 
           1035     2.41633e+10 
           1045     3.63577e+10 
           1055     3.42501e+10 
           1065     2.81425e+10 
           1075     3.18143e+10 
           1085     2.89175e+10 
           1095     3.18878e+10 
           1105      2.8393e+10 
           1115     2.73481e+10 
           1125     2.34022e+10 
           1135     2.86092e+10 
           1145     2.51645e+10 
           1155     2.64414e+10 
           1165     2.64794e+10 
           1175     1.88446e+10 
           1185     2.51526e+10 
           1195     2.21214e+10 
           1205     1.44416e+10 
           1215      7.47908e+9 
           1225     1.81325e+10 
           1235     2.24386e+10 
           1245     2.24692e+10 
           1255      2.1882e+10 
           1265     2.17178e+10 
           1275     2.21587e+10 
           1285     2.16589e+10 
           1295     1.57388e+10 
           1305     1.62547e+10 
           1315     2.05447e+10 
           1325     1.93188e+10 
           1335      1.8632e+10 
           1345     1.84926e+10 
           1355     1.85627e+10 
           1365     1.71451e+10 
           1375     1.67613e+10 
           1385     1.66356e+10 
           1395     1.28663e+10 
           1405     1.37663e+10 
           1415      1.5123e+10 
           1425     1.47757e+10 
           1435     1.49711e+10 
           1442     1.53115e+10 
           1447     1.49919e+10 
           1455     1.46047e+10 
           1465     1.38312e+10 
           1475     1.37409e+10 
           1485     1.33724e+10 
           1495     1.31588e+10 
           1505     1.20933e+10 
           1512     1.12231e+10 
           1517     1.15105e+10 
           1525     1.16787e+10 
           1535     1.03778e+10 
           1545     1.03859e+10 
           1555      9.89722e+9 
           1565     1.03618e+10 
           1575     1.07435e+10 
           1585     1.05379e+10 
           1595     1.05476e+10 
           1605     1.03622e+10 
           1615     1.01151e+10 
           1625     1.00011e+10 
           1635     1.02693e+10 
           1645     1.00865e+10 
           1655      9.92169e+9 
           1665      9.98184e+9 
           1672        9.656e+9 
           1677     1.00947e+10 
           1685      9.85921e+9 
           1695       9.4571e+9 
           1705      9.09858e+9 
           1715      8.71368e+9 
           1725      8.55129e+9 
           1735      8.69829e+9 
           1745      8.53208e+9 
           1755      8.54092e+9 
           1765        8.245e+9 
           1775      7.95865e+9 
           1785      7.94422e+9 
           1795      8.09354e+9 
           1805      8.05822e+9 
           1815      7.46866e+9 
           1825      7.63249e+9 
           1835      7.38853e+9 
           1845        6.801e+9 
           1855      6.79477e+9 
           1865      6.86604e+9 
           1875      7.01717e+9 
           1885      6.38798e+9 
           1895      5.97591e+9 
           1905      6.35235e+9 
           1915      6.05709e+9 
           1925      5.81011e+9 
           1935      6.03958e+9 
           1945      6.12214e+9 
           1955      5.62685e+9 
           1967      5.94827e+9 
           1976      6.17903e+9 
           1984      5.74351e+9 
           1995       5.6263e+9 
           2005      5.72269e+9 
           2015      5.67373e+9 
           2025      5.78807e+9 
           2035      5.38445e+9 
           2045      5.39967e+9 
           2055      5.21843e+9 
           2065       5.2605e+9 
           2074      5.38337e+9 
           2078      5.06725e+9 
           2085      5.17523e+9 
           2095      4.93917e+9 
           2105      5.05942e+9 
           2115      5.02853e+9 
           2125      5.07843e+9 
           2135      4.96427e+9 
           2145      4.76039e+9 
           2155      4.87215e+9 
           2165      4.82435e+9 
           2175      4.74123e+9 
           2185      4.64987e+9 
           2195      4.64545e+9 
           2205      4.58961e+9 
           2215      4.52684e+9 
           2225      4.41859e+9 
           2235      4.35772e+9 
           2245      4.35726e+9 
           2255      4.24802e+9 
           2265      4.25245e+9 
           2275      4.19135e+9 
           2285      4.16109e+9 
           2295      3.96083e+9 
           2305      4.03155e+9 
           2315      3.94098e+9 
           2325      3.89593e+9 
           2335      3.78821e+9 
           2345      3.77584e+9 
           2355      3.76341e+9 
           2365      3.70794e+9 
           2375      3.64753e+9 
           2385      3.60866e+9 
           2395      3.57097e+9 
           2405       3.5132e+9 
           2415       3.4622e+9 
           2425      3.45811e+9 
           2435      3.37639e+9 
           2445      3.35627e+9 
           2455      3.33586e+9 
           2465      3.28671e+9 
           2475       3.2428e+9 
           2485      3.19931e+9 
           2495      2.97322e+9 
           2505      3.11078e+9 
           2513      2.99878e+9 
           2518      3.06086e+9 
           2525      3.03245e+9 
           2535      2.99562e+9 
           2545      2.90221e+9 
           2555      2.92489e+9 
           2565      2.87865e+9 
           2575      2.87748e+9 
           2585      2.84528e+9 
           2595      2.81405e+9 
           2605      2.79226e+9 
           2615      2.76031e+9 
           2625      2.73386e+9 
           2635      2.70164e+9 
           2645      2.67834e+9 
           2655      2.64901e+9 
           2665      2.58674e+9 
           2675      2.57312e+9 
           2685      2.56334e+9 
           2695       2.4928e+9 
           2705      2.48274e+9 
           2715      2.46086e+9 
           2725      2.41848e+9 
           2735      2.41241e+9 
           2745      2.35426e+9 
           2755      2.34197e+9 
           2765      2.30924e+9 
           2775      2.31543e+9 
           2785      2.28173e+9 
           2795      2.19821e+9 
           2805      2.21665e+9 
           2815      2.21439e+9 
           2825      2.16801e+9 
           2835      2.11426e+9 
           2845      2.13735e+9 
           2855      2.10984e+9 
           2865      2.09399e+9 
           2875      2.07024e+9 
           2885      2.04975e+9 
           2895      2.02479e+9 
           2910      1.98661e+9 
           2930      1.94475e+9 
           2950      1.89094e+9 
           2970      1.86825e+9 
           2990       1.8237e+9 
           3010       1.7798e+9 
           3030      1.75396e+9 
           3050      1.71981e+9 
           3070      1.68697e+9 
           3090      1.63458e+9 
           3110        1.616e+9 
           3130      1.58207e+9 
           3150      1.55221e+9 
           3170      1.51912e+9 
           3190      1.47706e+9 
           3210      1.46204e+9 
           3230      1.43063e+9 
           3250      1.40505e+9 
           3270       1.3783e+9 
           3290      1.34969e+9 
           3310      1.32666e+9 
           3330      1.30054e+9 
           3350      1.27425e+9 
           3370      1.25141e+9 
           3390      1.22931e+9 
           3410      1.20661e+9 
           3430      1.17855e+9 
           3450       1.1523e+9 
           3470       1.1337e+9 
           3490      1.11236e+9 
           3510      1.09501e+9 
           3530       1.0782e+9 
           3550      1.05888e+9 
           3570      1.04622e+9 
           3590      1.01747e+9 
           3610      1.00267e+9 
           3630      9.83701e+8 
           3640      9.83421e+8 
           3650      9.63817e+8 
           3670      9.52445e+8 
           3690      9.35038e+8 
           3710      9.01582e+8 
           3730      8.64564e+8 
           3750      8.82237e+8 
           3770      8.72927e+8 
           3790      9.19367e+8 
           3810      9.57934e+8 
           3830      8.34748e+8 
           3850      9.84719e+8 
           3870      9.96251e+8 
           3890      7.86516e+8 
           3910      9.86937e+8 
           3930      9.66526e+8 
           3950      9.52876e+8 
           3970      7.31712e+8 
           3990      9.12924e+8 
           4010      9.16468e+8 
           4030       8.5678e+8 
           4050      8.94458e+8 
           4070       8.6074e+8 
           4090      7.85546e+8 
           4110      6.88533e+8 
           4130      8.10911e+8 
           4150      8.09304e+8 
           4170      8.05892e+8 
           4190      7.95363e+8 
           4210      7.86209e+8 
           4230      7.71023e+8 
           4250      7.53584e+8 
           4270      7.33028e+8 
           4290       7.2537e+8 
           4310      7.06141e+8 
           4330      6.32842e+8 
           4350      5.76009e+8 
           4370       6.7047e+8 
           4390      6.51063e+8 
           4410      6.58576e+8 
           4430      6.50013e+8 
           4450      6.41158e+8 
           4470        6.001e+8 
           4490      6.18312e+8 
           4510      6.14229e+8 
           4530      6.03714e+8 
           4550      5.93741e+8 
           4570      5.83956e+8 
           4590      5.74873e+8 
           4610      5.64967e+8 
           4630      5.56723e+8 
           4650      5.42658e+8 
           4670      5.39384e+8 
           4690      5.33663e+8 
           4710      5.13534e+8 
           4730      5.15195e+8 
           4750      5.06775e+8 
           4770      5.03594e+8 
           4790      4.95358e+8 
           4810      4.84799e+8 
           4830      4.73817e+8 
           4850      4.33241e+8 
           4870      3.86246e+8 
           4890       4.5276e+8 
           4910      4.50376e+8 
           4930      4.32593e+8 
           4950      4.38653e+8 
           4970      4.34306e+8 
           4990      4.27685e+8 
           5010        4.126e+8 
           5030      4.15102e+8 
           5050      4.04627e+8 
           5070       4.0402e+8 
           5090      3.97914e+8 
           5110      3.92064e+8 
           5130      3.85678e+8 
           5150      3.80415e+8 
           5170      3.76097e+8 
           5190      3.71008e+8 
           5210      3.64501e+8 
           5230      3.60975e+8 
           5250      3.56056e+8 
           5270      3.50944e+8 
           5290      3.46451e+8 
           5310      3.41642e+8 
           5330      3.36829e+8 
           5350      3.31854e+8 
           5370      3.28132e+8 
           5390      3.23588e+8 
           5410       3.1932e+8 
           5430      3.14609e+8 
           5450      3.10528e+8 
           5470      3.06411e+8 
           5490       3.0272e+8 
           5510      2.98826e+8 
           5530      2.94772e+8 
           5550      2.91098e+8 
           5570      2.87214e+8 
           5590      2.83643e+8 
           5610      2.79733e+8 
           5630      2.76418e+8 
           5650      2.71845e+8 
           5670      2.68102e+8 
           5690      2.64685e+8 
           5710      2.62187e+8 
           5730      2.59063e+8 
           5750      2.55316e+8 
           5770      2.52723e+8 
           5790      2.49541e+8 
           5810      2.46376e+8 
           5830      2.43181e+8 
           5850      2.40255e+8 
           5870      2.29283e+8 
           5890      2.32963e+8 
           5910       2.3126e+8 
           5930      2.28395e+8 
           5950      2.25341e+8 
           5970      2.23167e+8 
           5990      2.20115e+8 
           6010      2.17756e+8 
           6030      2.15029e+8 
           6050      2.12508e+8 
           6070      2.10006e+8 
           6090      2.07461e+8 
           6110      2.05025e+8 
           6130      2.02617e+8 
           6150      1.99727e+8 
           6170      1.97682e+8 
           6190      1.95493e+8 
           6210      1.93219e+8 
           6230      1.90962e+8 
           6250      1.88546e+8 
           6270      1.86453e+8 
           6290      1.84327e+8 
           6310      1.82091e+8 
           6330      1.80115e+8 
           6350      1.77478e+8 
           6370      1.75743e+8 
           6390      1.73916e+8 
           6410      1.71906e+8 
           6430      1.70073e+8 
           6450      1.68096e+8 
           6470      1.65961e+8 
           6490       1.6417e+8 
           6510      1.62123e+8 
           6530      1.59471e+8 
           6550      1.51254e+8 
           6570      1.33551e+8 
           6590      1.52433e+8 
           6610      1.53021e+8 
           6630      1.51851e+8 
           6650      1.50249e+8 
           6670      1.46944e+8 
           6690      1.45394e+8 
           6710      1.45465e+8 
           6730      1.43754e+8 
           6750      1.42349e+8 
           6770      1.40802e+8 
           6790      1.38838e+8 
           6810      1.37715e+8 
           6830      1.36191e+8 
           6850      1.34827e+8 
           6870      1.33381e+8 
           6890      1.31909e+8 
           6910      1.30476e+8 
           6930      1.29136e+8 
           6950      1.27816e+8 
           6970      1.26471e+8 
           6990      1.25124e+8 
           7010      1.23805e+8 
           7030      1.22507e+8 
           7050       1.2123e+8 
           7070      1.17914e+8 
           7090      1.18741e+8 
           7110      1.17471e+8 
           7130      1.16264e+8 
           7150      1.15062e+8 
           7170      1.13886e+8 
           7190      1.12743e+8 
           7210      1.11597e+8 
           7230      1.09416e+8 
           7250      1.09243e+8 
           7270      1.08216e+8 
           7290      1.06191e+8 
           7310      1.06026e+8 
           7330      1.04972e+8 
           7350      1.03927e+8 
           7370      1.02885e+8 
           7390      1.01853e+8 
           7410      1.00844e+8 
           7430      9.97971e+7 
           7450       9.8848e+7 
           7470       9.7705e+7 
           7490      9.68885e+7 
           7510      9.59189e+7 
           7530      9.49914e+7 
           7550      9.40857e+7 
           7570       9.3175e+7 
           7590      9.22596e+7 
           7610      9.13264e+7 
           7630      9.04794e+7 
           7650      8.96078e+7 
           7670      8.87441e+7 
           7690      8.78881e+7 
           7710      8.70461e+7 
           7730      8.61991e+7 
           7750      8.53847e+7 
           7770      8.42156e+7 
           7790      8.37713e+7 
           7810      8.29228e+7 
           7830      8.21925e+7 
           7850      8.14074e+7 
           7870      8.06171e+7 
           7890      7.97308e+7 
           7910      7.92077e+7 
           7930      7.84552e+7 
           7950       7.7596e+7 
           7970      7.68157e+7 
           7990      7.60126e+7 
           8010      7.54045e+7 
           8030      7.46963e+7 
           8050      7.40059e+7 
           8070      7.33445e+7 
           8090      7.25909e+7 
           8110      7.19011e+7 
           8130      7.13939e+7 
           8150      7.06866e+7 
           8170      7.01434e+7 
           8190      6.93575e+7 
           8210      6.85673e+7 
           8230      6.80509e+7 
           8250      6.75719e+7 
           8270      6.65349e+7 
           8290      6.63184e+7 
           8310      6.57541e+7 
           8330       6.5151e+7 
           8350      6.42395e+7 
           8370      6.38683e+7 
           8390      6.34304e+7 
           8410      6.28627e+7 
           8430      6.22573e+7 
           8450      6.11452e+7 
           8470      6.11456e+7 
           8490      6.04449e+7 
           8510      5.99531e+7 
           8530      5.93978e+7 
           8550      5.84606e+7 
           8570      5.88806e+7 
