# Kurucz ODFNEW /NOVER (2003)
# teff = 19000 K (value for the effective temperature for the model. Temperatures are given in K)
# logg = 5 log(cm/s2) (value for Log(G) for the model.)
# meta = 0  (value for the Metallicity for the model.)
# lh = 1.25  (l/Hp where l is the  mixing length of the convective element and Hp is the pressure scale height)
# vtur = 2 km/s (Microturbulence velocity)
# alpha = 0.4  (Alpha)
#
# column 1: WAVELENGTH (ANGSTROM), Wavelength in Angstrom
# column 2: FLUX (ERG/CM2/S/A), Flux in erg/cm2/s/A
          147.2     1.27424e-20 
            151     8.20871e-20 
          155.2     5.79146e-19 
          158.8     2.84279e-18 
            162     1.10304e-17 
            166     5.58532e-17 
          170.3     2.92802e-16 
          173.4     9.21527e-16 
          176.8     3.08704e-15 
          180.2     9.88032e-15 
          181.7     1.62697e-14 
          186.1     6.72002e-14 
            191     3.01788e-13 
          193.9     7.05408e-13 
          198.4     2.50955e-12 
          201.8      6.3247e-12 
            205     1.47124e-11 
          210.5     5.87111e-11 
          216.2     2.28855e-10 
          219.8     5.21215e-10 
            223       1.0562e-9 
          226.8      2.38547e-9 
            230      5.92946e-9 
            234      1.48013e-8 
            240      4.77668e-8 
          246.5      1.57543e-7 
          252.4      4.41893e-7 
          256.8      9.13342e-7 
            260      1.55713e-6 
            264      2.93266e-6 
          268.5      5.83027e-6 
          273.5      1.21648e-5 
          278.5      2.48223e-5 
            284       5.2939e-5 
            290     0.000116347 
            296     0.000247001 
            301     0.000452985 
            308       0.0010176 
            318      0.00308785 
            328      0.00858728 
            338       0.0228015 
            348       0.0567315 
            357        0.125751 
            366         0.26445 
            375        0.528345 
            385         1.10356 
            395         2.20641 
            405         4.26834 
            414         7.53191 
            422         12.1315 
            430         19.1879 
            441         35.3075 
            451         59.7689 
            460         93.6536 
            470         151.301 
            480         238.971 
            490         370.406 
            500         563.226 
            506         6023.59 
            512         21713.3 
            520         27925.9 
            530         39474.1 
            540         47974.9 
            550         70329.5 
            560         89587.4 
            570          117726 
            580          134812 
            590          188256 
            600          237591 
            610          301060 
            620          360225 
            630          437771 
            640          504133 
            650          583596 
            658          714488 
            665          790431 
            675          915065 
            685      1.06847e+6 
            695      1.28261e+6 
            705      1.46675e+6 
            716      1.71994e+6 
            726      1.95299e+6 
            735       2.1996e+6 
            745       2.5402e+6 
            755      2.89586e+6 
            765      3.26895e+6 
            775      3.70605e+6 
            785      4.17155e+6 
            795       4.5949e+6 
            805      5.11856e+6 
            815       5.6454e+6 
            825      6.31162e+6 
            835      6.74868e+6 
            845      7.51269e+6 
            855      8.25221e+6 
            865      9.08863e+6 
            875      9.95722e+6 
            885      1.10043e+7 
            895       1.1959e+7 
            905      1.25504e+7 
            915      1.96459e+7 
            925      6.56395e+7 
            935      1.34722e+8 
            945      5.08845e+8 
            955      1.68082e+9 
            965      2.59949e+9 
            975      5.19545e+8 
            985       5.0536e+9 
            995      5.10741e+9 
           1005      6.17858e+9 
           1015      4.21699e+9 
           1025      3.96621e+8 
           1035      2.58049e+9 
           1045      7.58858e+9 
           1055      7.91893e+9 
           1065      6.23639e+9 
           1075      7.80565e+9 
           1085      7.09281e+9 
           1095      7.91335e+9 
           1105      6.57273e+9 
           1115      6.08688e+9 
           1125      6.15001e+9 
           1135      7.60872e+9 
           1145      6.20715e+9 
           1155      6.91006e+9 
           1165      7.31156e+9 
           1175      5.80801e+9 
           1185      7.06496e+9 
           1195      3.48231e+9 
           1205      1.87376e+9 
           1215      4.69947e+8 
           1225       1.7173e+9 
           1235      5.56959e+9 
           1245       6.5195e+9 
           1255      6.41482e+9 
           1265      5.54256e+9 
           1275      6.29904e+9 
           1285      6.88493e+9 
           1295      4.18327e+9 
           1305      3.22638e+9 
           1315      6.23233e+9 
           1325      6.04419e+9 
           1335      5.42785e+9 
           1345      5.96824e+9 
           1355      5.78301e+9 
           1365      5.16136e+9 
           1375      5.30036e+9 
           1385      5.41735e+9 
           1395      4.74855e+9 
           1405        4.927e+9 
           1415      4.88828e+9 
           1425       5.0635e+9 
           1435       4.9522e+9 
           1442      5.29702e+9 
           1447      5.24608e+9 
           1455      5.11702e+9 
           1465      4.83887e+9 
           1475      4.64828e+9 
           1485      4.48612e+9 
           1495      4.62959e+9 
           1505      4.22282e+9 
           1512      3.94651e+9 
           1517      4.20669e+9 
           1525      4.17612e+9 
           1535      3.78804e+9 
           1545      3.98631e+9 
           1555       3.7202e+9 
           1565      3.67927e+9 
           1575      3.91305e+9 
           1585      3.91257e+9 
           1595      3.97457e+9 
           1605      3.83058e+9 
           1615      3.82908e+9 
           1625      3.65669e+9 
           1635      3.77163e+9 
           1645       3.7461e+9 
           1655      3.47292e+9 
           1665      3.72676e+9 
           1672      3.57057e+9 
           1677      3.63424e+9 
           1685      3.69243e+9 
           1695      3.51602e+9 
           1705      3.33196e+9 
           1715      3.13939e+9 
           1725      3.10904e+9 
           1735      3.22173e+9 
           1745      3.11798e+9 
           1755      3.20866e+9 
           1765      2.95666e+9 
           1775      3.02089e+9 
           1785      3.00582e+9 
           1795      3.11881e+9 
           1805      3.07799e+9 
           1815      2.87342e+9 
           1825      2.93545e+9 
           1835      2.80095e+9 
           1845      2.60953e+9 
           1855      2.54457e+9 
           1865      2.56556e+9 
           1875      2.73222e+9 
           1885      2.52243e+9 
           1895      2.39171e+9 
           1905      2.53047e+9 
           1915       2.4131e+9 
           1925      2.35708e+9 
           1935      2.41438e+9 
           1945      2.42388e+9 
           1955      2.28274e+9 
           1967      2.42877e+9 
           1976      2.50116e+9 
           1984      2.33938e+9 
           1995      2.27172e+9 
           2005       2.3164e+9 
           2015      2.18278e+9 
           2025      2.34759e+9 
           2035      2.20294e+9 
           2045      2.21127e+9 
           2055      2.10104e+9 
           2065      2.15831e+9 
           2074      2.18288e+9 
           2078      2.10765e+9 
           2085      2.15011e+9 
           2095      2.04183e+9 
           2105      2.07468e+9 
           2115      2.05814e+9 
           2125      2.08411e+9 
           2135      2.00356e+9 
           2145       1.9787e+9 
           2155        2.014e+9 
           2165      1.96104e+9 
           2175       1.9358e+9 
           2185      1.89405e+9 
           2195      1.91358e+9 
           2205      1.86318e+9 
           2215      1.82029e+9 
           2225       1.7494e+9 
           2235      1.80415e+9 
           2245      1.76524e+9 
           2255       1.7045e+9 
           2265      1.73244e+9 
           2275      1.73253e+9 
           2285      1.73414e+9 
           2295      1.67249e+9 
           2305      1.64057e+9 
           2315      1.59929e+9 
           2325      1.58431e+9 
           2335       1.5148e+9 
           2345      1.48444e+9 
           2355      1.49862e+9 
           2365      1.44664e+9 
           2375      1.46334e+9 
           2385      1.41182e+9 
           2395      1.45838e+9 
           2405      1.40185e+9 
           2415      1.40622e+9 
           2425      1.41733e+9 
           2435       1.3599e+9 
           2445      1.38428e+9 
           2455      1.36621e+9 
           2465      1.34696e+9 
           2475      1.31931e+9 
           2485      1.34855e+9 
           2495      1.30212e+9 
           2505       1.3259e+9 
           2513      1.27375e+9 
           2518      1.30066e+9 
           2525       1.2518e+9 
           2535      1.24306e+9 
           2545      1.20841e+9 
           2555       1.2385e+9 
           2565      1.22274e+9 
           2575      1.24616e+9 
           2585      1.24234e+9 
           2595      1.23413e+9 
           2605      1.20635e+9 
           2615      1.19742e+9 
           2625      1.18782e+9 
           2635      1.18322e+9 
           2645      1.20197e+9 
           2655      1.18865e+9 
           2665       1.1458e+9 
           2675      1.16041e+9 
           2685      1.14813e+9 
           2695      1.12609e+9 
           2705      1.12292e+9 
           2715      1.10061e+9 
           2725      1.08382e+9 
           2735      1.09757e+9 
           2745      1.04569e+9 
           2755       1.0402e+9 
           2765      1.04279e+9 
           2775      1.05432e+9 
           2785      1.04316e+9 
           2795      9.73215e+8 
           2805       1.0067e+9 
           2815      1.02176e+9 
           2825      1.00373e+9 
           2835      9.69523e+8 
           2845       9.6472e+8 
           2855      9.66571e+8 
           2865      9.73879e+8 
           2875      9.56861e+8 
           2885      9.51733e+8 
           2895      9.45709e+8 
           2910      9.36251e+8 
           2930      9.12806e+8 
           2950      8.93025e+8 
           2970      8.84583e+8 
           2990      8.65372e+8 
           3010      8.56198e+8 
           3030       8.4407e+8 
           3050      8.26476e+8 
           3070      8.11306e+8 
           3090      7.96892e+8 
           3110      7.80521e+8 
           3130      7.70232e+8 
           3150      7.55889e+8 
           3170      7.42444e+8 
           3190      7.20058e+8 
           3210       7.1488e+8 
           3230      7.04068e+8 
           3250      6.93146e+8 
           3270      6.82615e+8 
           3290       6.7093e+8 
           3310      6.60852e+8 
           3330      6.48929e+8 
           3350      6.36571e+8 
           3370      6.27048e+8 
           3390      6.16982e+8 
           3410      6.07466e+8 
           3430      5.96272e+8 
           3450      5.85422e+8 
           3470      5.76503e+8 
           3490       5.6744e+8 
           3510       5.5879e+8 
           3530      5.50421e+8 
           3550      5.41695e+8 
           3570      5.34756e+8 
           3590       5.2326e+8 
           3610      5.16351e+8 
           3630      5.07704e+8 
           3640      5.06141e+8 
           3650       5.0207e+8 
           3670      4.96054e+8 
           3690      4.88367e+8 
           3710      4.73235e+8 
           3730      4.51277e+8 
           3750        4.588e+8 
           3770      4.54581e+8 
           3790      4.93385e+8 
           3810      5.29172e+8 
           3830      4.50106e+8 
           3850      5.54934e+8 
           3870      5.88026e+8 
           3890      4.14669e+8 
           3910      5.86184e+8 
           3930      5.90185e+8 
           3950      5.70485e+8 
           3970      3.89448e+8 
           3990      5.40078e+8 
           4010      5.64013e+8 
           4030      5.23333e+8 
           4050      5.57268e+8 
           4070      5.35566e+8 
           4090      4.55235e+8 
           4110      3.82392e+8 
           4130      4.95469e+8 
           4150      5.04311e+8 
           4170      5.03991e+8 
           4190      4.99363e+8 
           4210      4.93822e+8 
           4230      4.85332e+8 
           4250       4.7604e+8 
           4270      4.61632e+8 
           4290       4.5832e+8 
           4310      4.42415e+8 
           4330      3.66182e+8 
           4350       3.2834e+8 
           4370      4.17488e+8 
           4390      4.07183e+8 
           4410      4.18511e+8 
           4430       4.1069e+8 
           4450      4.07901e+8 
           4470      3.76901e+8 
           4490      3.89864e+8 
           4510      3.91156e+8 
           4530      3.83524e+8 
           4550      3.78194e+8 
           4570      3.73304e+8 
           4590      3.67697e+8 
           4610      3.62139e+8 
           4630      3.55484e+8 
           4650      3.50168e+8 
           4670      3.45966e+8 
           4690      3.41857e+8 
           4710      3.28788e+8 
           4730      3.29768e+8 
           4750      3.24526e+8 
           4770       3.2229e+8 
           4790      3.16403e+8 
           4810       3.0868e+8 
           4830      2.98539e+8 
           4850      2.56107e+8 
           4870      2.23812e+8 
           4890      2.83349e+8 
           4910      2.86906e+8 
           4930      2.76259e+8 
           4950      2.82564e+8 
           4970      2.79837e+8 
           4990      2.75541e+8 
           5010      2.65346e+8 
           5030      2.66858e+8 
           5050      2.58189e+8 
           5070      2.60832e+8 
           5090      2.56983e+8 
           5110      2.52854e+8 
           5130      2.49584e+8 
           5150      2.45845e+8 
           5170      2.43383e+8 
           5190      2.39861e+8 
           5210      2.34192e+8 
           5230      2.33864e+8 
           5250      2.30938e+8 
           5270      2.27289e+8 
           5290      2.25251e+8 
           5310      2.22047e+8 
           5330       2.1862e+8 
           5350      2.15396e+8 
           5370      2.13677e+8 
           5390      2.10927e+8 
           5410      2.07697e+8 
           5430      2.04522e+8 
           5450      2.02275e+8 
           5470      1.99124e+8 
           5490      1.97751e+8 
           5510      1.94978e+8 
           5530      1.92572e+8 
           5550      1.90282e+8 
           5570      1.87716e+8 
           5590      1.85627e+8 
           5610      1.83013e+8 
           5630      1.81299e+8 
           5650      1.77221e+8 
           5670      1.75364e+8 
           5690      1.74122e+8 
           5710      1.72372e+8 
           5730      1.70414e+8 
           5750      1.68251e+8 
           5770      1.66305e+8 
           5790      1.64271e+8 
           5810      1.62093e+8 
           5830       1.6024e+8 
           5850       1.5832e+8 
           5870      1.51132e+8 
           5890      1.53647e+8 
           5910      1.52641e+8 
           5930      1.51056e+8 
           5950      1.48468e+8 
           5970      1.47411e+8 
           5990      1.45284e+8 
           6010      1.44152e+8 
           6030       1.4241e+8 
           6050       1.4078e+8 
           6070      1.39108e+8 
           6090      1.37373e+8 
           6110         1.36e+8 
           6130      1.34443e+8 
           6150      1.32056e+8 
           6170      1.31251e+8 
           6190      1.29902e+8 
           6210      1.28393e+8 
           6230        1.269e+8 
           6250      1.25019e+8 
           6270      1.24002e+8 
           6290      1.22615e+8 
           6310      1.21063e+8 
           6330      1.19923e+8 
           6350      1.17468e+8 
           6370      1.16648e+8 
           6390      1.15873e+8 
           6410      1.14491e+8 
           6430      1.13543e+8 
           6450      1.12097e+8 
           6470      1.10848e+8 
           6490      1.09441e+8 
           6510      1.07721e+8 
           6530      1.05286e+8 
           6550      9.62404e+7 
           6570      8.37325e+7 
           6590      9.99075e+7 
           6610       1.0183e+8 
           6630      1.01397e+8 
           6650      1.00515e+8 
           6670      9.84144e+7 
           6690      9.75659e+7 
           6710      9.75207e+7 
           6730      9.65427e+7 
           6750      9.55663e+7 
           6770      9.45997e+7 
           6790      9.34141e+7 
           6810      9.25819e+7 
           6830      9.15074e+7 
           6850      9.07009e+7 
           6870      8.97745e+7 
           6890      8.88493e+7 
           6910      8.79333e+7 
           6930      8.68696e+7 
           6950      8.61519e+7 
           6970       8.5286e+7 
           6990        8.439e+7 
           7010      8.34722e+7 
           7030      8.26472e+7 
           7050      8.17469e+7 
           7070      7.98983e+7 
           7090      8.02501e+7 
           7110      7.93894e+7 
           7130      7.86111e+7 
           7150      7.77814e+7 
           7170      7.70696e+7 
           7190      7.63281e+7 
           7210      7.55863e+7 
           7230      7.43255e+7 
           7250       7.4002e+7 
           7270      7.33745e+7 
           7290       7.2221e+7 
           7310      7.19391e+7 
           7330      7.12456e+7 
           7350      7.05655e+7 
           7370      6.98779e+7 
           7390      6.92035e+7 
           7410      6.85389e+7 
           7430      6.77357e+7 
           7450      6.71763e+7 
           7470      6.64579e+7 
           7490       6.5859e+7 
           7510       6.5287e+7 
           7530      6.46735e+7 
           7550      6.40729e+7 
           7570       6.3483e+7 
           7590       6.2852e+7 
           7610      6.22976e+7 
           7630        6.171e+7 
           7650      6.11303e+7 
           7670      6.05622e+7 
           7690      5.99972e+7 
           7710      5.94423e+7 
           7730       5.8876e+7 
           7750      5.83436e+7 
           7770      5.71806e+7 
           7790      5.72742e+7 
           7810      5.67428e+7 
           7830      5.62358e+7 
           7850      5.54605e+7 
           7870      5.50263e+7 
           7890      5.43767e+7 
           7910      5.41972e+7 
           7930      5.37379e+7 
           7950      5.30011e+7 
           7970      5.27609e+7 
           7990      5.19407e+7 
           8010      5.18313e+7 
           8030      5.13579e+7 
           8050      5.08705e+7 
           8070      5.04543e+7 
           8090      4.99859e+7 
           8110      4.95363e+7 
           8130      4.90866e+7 
           8150      4.86746e+7 
           8170      4.82622e+7 
           8190      4.77887e+7 
           8210      4.72347e+7 
           8230      4.67023e+7 
           8250      4.65758e+7 
           8270       4.6104e+7 
           8290      4.57832e+7 
           8310      4.53907e+7 
           8330       4.5028e+7 
           8350      4.45618e+7 
           8370      4.42045e+7 
           8390      4.39175e+7 
           8410      4.35394e+7 
           8430      4.31343e+7 
           8450      4.23811e+7 
           8470      4.23928e+7 
           8490      4.19362e+7 
           8510      4.15375e+7 
           8530      4.12616e+7 
           8550      4.05138e+7 
           8570       4.0745e+7 
           8590      3.95849e+7 
