# Kurucz ODFNEW /NOVER (2003)
# teff = 19000 K (value for the effective temperature for the model. Temperatures are given in K)
# logg = 5 log(cm/s2) (value for Log(G) for the model.)
# meta = -2  (value for the Metallicity for the model.)
# lh = 1.25  (l/Hp where l is the  mixing length of the convective element and Hp is the pressure scale height)
# vtur = 2 km/s (Microturbulence velocity)
# alpha = 0.4  (Alpha)
#
# column 1: WAVELENGTH (ANGSTROM), Wavelength in Angstrom
# column 2: FLUX (ERG/CM2/S/A), Flux in erg/cm2/s/A
          147.2     5.97994e-22 
            151     4.19919e-21 
          155.2     3.16873e-20 
          158.8     1.65108e-19 
            162     6.75483e-19 
            166     3.66366e-18 
          170.3     2.07628e-17 
          173.4     6.88931e-17 
          176.8     2.45274e-16 
          180.2     8.34786e-16 
          181.7      1.4129e-15 
          186.1     6.31896e-15 
            191     3.09616e-14 
          193.9     7.62142e-14 
          198.4     2.93631e-13 
          201.8     7.84834e-13 
            205     1.92708e-12 
          210.5     8.43798e-12 
          216.2     3.60993e-11 
          219.8     8.70239e-11 
            223     1.85391e-10 
          226.8     4.43544e-10 
            230     9.79496e-10 
            234      2.43688e-9 
            240      8.44175e-9 
          246.5      3.01385e-8 
          252.4      9.04187e-8 
          256.8      1.97607e-7 
            260      3.45738e-7 
            264      6.78963e-7 
          268.5       1.4138e-6 
          273.5      3.10228e-6 
          278.5      6.62026e-6 
            284       1.4757e-5 
            290      3.41417e-5 
            296      7.62179e-5 
            301     0.000145276 
            308     0.000344677 
            318      0.00111025 
            328      0.00331592 
            338      0.00925402 
            348       0.0242723 
            357       0.0550393 
            366        0.119682 
            375        0.250114 
            385        0.543421 
            395         1.13189 
            405         2.26809 
            414         4.11181 
            422         6.81728 
            430         11.0761 
            441         20.9323 
            451         36.2503 
            460         58.1153 
            470         95.9407 
            480         154.802 
            490         244.505 
            500         378.447 
            506         3408.04 
            512         8602.39 
            520           11150 
            530         16351.3 
            540         20145.2 
            550         29102.2 
            560         37886.8 
            570         49279.8 
            580         56443.3 
            590         77696.5 
            600          100236 
            610          125219 
            620          154328 
            630          189684 
            640          229606 
            650          279217 
            658          323692 
            665          366417 
            675          435150 
            685          513238 
            695          608039 
            705          711361 
            716          839502 
            726          973280 
            735      1.10726e+6 
            745      1.27254e+6 
            755      1.45629e+6 
            765      1.65652e+6 
            775        1.882e+6 
            785      2.12738e+6 
            795      2.39422e+6 
            805      2.68787e+6 
            815      3.00533e+6 
            825      3.35197e+6 
            835      3.68822e+6 
            845      4.12599e+6 
            855      4.55291e+6 
            865      5.02546e+6 
            875      5.51692e+6 
            885       6.0572e+6 
            895      6.62289e+6 
            905      7.16178e+6 
            915      1.17052e+7 
            925      3.55148e+7 
            935      7.33485e+7 
            945      3.93488e+8 
            955      1.74575e+9 
            965      2.69735e+9 
            975      6.19253e+8 
            985      6.62929e+9 
            995      8.72734e+9 
           1005      8.67538e+9 
           1015      4.69566e+9 
           1025      2.58864e+8 
           1035      3.57941e+9 
           1045      8.52348e+9 
           1055       9.4407e+9 
           1065      9.02709e+9 
           1075      9.48779e+9 
           1085      8.94601e+9 
           1095      9.28796e+9 
           1105      8.69021e+9 
           1115      8.64927e+9 
           1125      8.25895e+9 
           1135      8.37375e+9 
           1145      7.91576e+9 
           1155      8.01905e+9 
           1165      7.89252e+9 
           1175      7.11996e+9 
           1185      7.23773e+9 
           1195      5.66113e+9 
           1205      2.89028e+9 
           1215      2.75358e+8 
           1225      2.25888e+9 
           1235      5.39125e+9 
           1245      6.26406e+9 
           1255       6.3158e+9 
           1265      6.24459e+9 
           1275       6.3973e+9 
           1285       6.3255e+9 
           1295      5.81148e+9 
           1305      5.57786e+9 
           1315      5.98745e+9 
           1325      5.80558e+9 
           1335      5.57223e+9 
           1345       5.6519e+9 
           1355      5.55976e+9 
           1365      5.43775e+9 
           1375      5.36313e+9 
           1385      5.29088e+9 
           1395      5.11753e+9 
           1405      5.07834e+9 
           1415      5.01265e+9 
           1425        4.952e+9 
           1435       4.8728e+9 
           1442      4.83376e+9 
           1447      4.79033e+9 
           1455      4.71627e+9 
           1465      4.63244e+9 
           1475      4.55287e+9 
           1485      4.46033e+9 
           1495      4.39749e+9 
           1505      4.29816e+9 
           1512      4.25302e+9 
           1517      4.24123e+9 
           1525      4.15085e+9 
           1535      4.04562e+9 
           1545      4.04818e+9 
           1555      3.95048e+9 
           1565      3.88154e+9 
           1575       3.8564e+9 
           1585      3.79905e+9 
           1595       3.7566e+9 
           1605      3.66079e+9 
           1615       3.6026e+9 
           1625      3.55854e+9 
           1635      3.50993e+9 
           1645      3.45666e+9 
           1655      3.38049e+9 
           1665      3.37561e+9 
           1672      3.26992e+9 
           1677      3.30819e+9 
           1685      3.27672e+9 
           1695      3.22033e+9 
           1705      3.15636e+9 
           1715      3.09801e+9 
           1725      3.04941e+9 
           1735      3.03213e+9 
           1745      2.98004e+9 
           1755      2.95229e+9 
           1765      2.84794e+9 
           1775      2.86305e+9 
           1785      2.81605e+9 
           1795        2.794e+9 
           1805      2.74751e+9 
           1815      2.70497e+9 
           1825      2.67982e+9 
           1835      2.63984e+9 
           1845      2.58751e+9 
           1855      2.52027e+9 
           1865      2.48996e+9 
           1875      2.49208e+9 
           1885      2.44058e+9 
           1895      2.38866e+9 
           1905      2.39262e+9 
           1915      2.33605e+9 
           1925      2.30707e+9 
           1935       2.2862e+9 
           1945      2.27251e+9 
           1955      2.22271e+9 
           1967      2.21145e+9 
           1976       2.1925e+9 
           1984      2.15878e+9 
           1995      2.11232e+9 
           2005      2.10677e+9 
           2015      2.08173e+9 
           2025      2.06205e+9 
           2035      2.03265e+9 
           2045      2.00732e+9 
           2055      1.95072e+9 
           2065      1.94504e+9 
           2074      1.93371e+9 
           2078      1.91223e+9 
           2085      1.91128e+9 
           2095       1.8802e+9 
           2105      1.86578e+9 
           2115      1.84565e+9 
           2125      1.82666e+9 
           2135       1.8033e+9 
           2145      1.78121e+9 
           2155      1.76131e+9 
           2165      1.73583e+9 
           2175      1.71632e+9 
           2185      1.69781e+9 
           2195      1.68081e+9 
           2205      1.65824e+9 
           2215      1.63608e+9 
           2225      1.61524e+9 
           2235      1.60308e+9 
           2245      1.58368e+9 
           2255      1.56351e+9 
           2265      1.54797e+9 
           2275      1.52915e+9 
           2285       1.5145e+9 
           2295      1.49218e+9 
           2305      1.47812e+9 
           2315      1.46067e+9 
           2325      1.44646e+9 
           2335      1.42214e+9 
           2345      1.39483e+9 
           2355      1.39476e+9 
           2365      1.36979e+9 
           2375      1.36202e+9 
           2385      1.33625e+9 
           2395      1.32761e+9 
           2405      1.31366e+9 
           2415      1.29919e+9 
           2425      1.29394e+9 
           2435      1.27666e+9 
           2445      1.26328e+9 
           2455      1.25363e+9 
           2465      1.23648e+9 
           2475      1.22558e+9 
           2485      1.21312e+9 
           2495      1.19294e+9 
           2505      1.18884e+9 
           2513      1.17514e+9 
           2518      1.17255e+9 
           2525      1.16021e+9 
           2535      1.14351e+9 
           2545      1.13565e+9 
           2555      1.12926e+9 
           2565      1.11406e+9 
           2575      1.10656e+9 
           2585      1.09429e+9 
           2595      1.08224e+9 
           2605       1.0715e+9 
           2615      1.06222e+9 
           2625      1.05338e+9 
           2635      1.04204e+9 
           2645      1.03816e+9 
           2655      1.02693e+9 
           2665      1.01377e+9 
           2675      1.00421e+9 
           2685      9.97839e+8 
           2695      9.82927e+8 
           2705      9.78041e+8 
           2715      9.67426e+8 
           2725      9.52474e+8 
           2735       9.4935e+8 
           2745      9.31046e+8 
           2755      9.23753e+8 
           2765      9.15753e+8 
           2775      9.14008e+8 
           2785      9.04542e+8 
           2795      8.76332e+8 
           2805       8.7991e+8 
           2815      8.79898e+8 
           2825      8.65513e+8 
           2835      8.58387e+8 
           2845      8.54364e+8 
           2855      8.46818e+8 
           2865      8.39402e+8 
           2875      8.31294e+8 
           2885      8.23776e+8 
           2895      8.16297e+8 
           2910      8.05056e+8 
           2930      7.88925e+8 
           2950       7.7177e+8 
           2970      7.61924e+8 
           2990      7.48057e+8 
           3010      7.34988e+8 
           3030      7.21994e+8 
           3050      7.09235e+8 
           3070      6.96747e+8 
           3090        6.846e+8 
           3110       6.7263e+8 
           3130      6.61369e+8 
           3150       6.4996e+8 
           3170      6.38861e+8 
           3190      6.24544e+8 
           3210      6.17225e+8 
           3230      6.06824e+8 
           3250      5.96668e+8 
           3270      5.86996e+8 
           3290      5.76957e+8 
           3310      5.67771e+8 
           3330      5.58457e+8 
           3350      5.48956e+8 
           3370      5.40403e+8 
           3390      5.31685e+8 
           3410      5.23134e+8 
           3430      5.14201e+8 
           3450      5.05439e+8 
           3470      4.97909e+8 
           3490      4.90084e+8 
           3510      4.82864e+8 
           3530      4.75292e+8 
           3550      4.67739e+8 
           3570       4.6136e+8 
           3590      4.53048e+8 
           3610       4.4677e+8 
           3630       4.3923e+8 
           3640      4.37133e+8 
           3650      4.34119e+8 
           3670      4.29065e+8 
           3690      4.22351e+8 
           3710      4.09626e+8 
           3730      3.89323e+8 
           3750       3.9946e+8 
           3770      3.98494e+8 
           3790      4.37312e+8 
           3810      4.73893e+8 
           3830      4.00128e+8 
           3850      5.03695e+8 
           3870      5.36611e+8 
           3890      3.65275e+8 
           3910      5.31084e+8 
           3930      5.47109e+8 
           3950      5.18306e+8 
           3970      3.44176e+8 
           3990      4.91946e+8 
           4010      5.15727e+8 
           4030      4.82507e+8 
           4050      5.08783e+8 
           4070      4.92696e+8 
           4090      4.09743e+8 
           4110       3.4033e+8 
           4130      4.58077e+8 
           4150      4.64784e+8 
           4170      4.63695e+8 
           4190      4.58184e+8 
           4210      4.51184e+8 
           4230      4.44085e+8 
           4250      4.36725e+8 
           4270      4.28779e+8 
           4290      4.20246e+8 
           4310      4.04795e+8 
           4330      3.29592e+8 
           4350      2.94017e+8 
           4370       3.8261e+8 
           4390      3.75476e+8 
           4410      3.84282e+8 
           4430      3.77902e+8 
           4450      3.73486e+8 
           4470      3.47337e+8 
           4490      3.61311e+8 
           4510      3.57947e+8 
           4530      3.52553e+8 
           4550      3.47295e+8 
           4570      3.42152e+8 
           4590      3.37102e+8 
           4610      3.32145e+8 
           4630      3.27243e+8 
           4650      3.22448e+8 
           4670      3.17775e+8 
           4690      3.13186e+8 
           4710       3.0469e+8 
           4730      3.04106e+8 
           4750      2.99697e+8 
           4770      2.94821e+8 
           4790          2.9e+8 
           4810      2.84239e+8 
           4830      2.74155e+8 
           4850      2.31107e+8 
           4870      2.00557e+8 
           4890      2.58835e+8 
           4910      2.63559e+8 
           4930      2.55256e+8 
           4950      2.59471e+8 
           4970      2.56578e+8 
           4990      2.53134e+8 
           5010      2.46479e+8 
           5030      2.46176e+8 
           5050      2.41334e+8 
           5070      2.39654e+8 
           5090      2.36422e+8 
           5110      2.33219e+8 
           5130      2.30115e+8 
           5150      2.27039e+8 
           5170      2.24017e+8 
           5190      2.21049e+8 
           5210      2.18051e+8 
           5230      2.15257e+8 
           5250      2.12431e+8 
           5270      2.09655e+8 
           5290      2.06929e+8 
           5310      2.04237e+8 
           5330      2.01593e+8 
           5350       1.9897e+8 
           5370      1.96432e+8 
           5390      1.93927e+8 
           5410       1.9144e+8 
           5430      1.88985e+8 
           5450      1.86599e+8 
           5470      1.84242e+8 
           5490      1.81939e+8 
           5510      1.79641e+8 
           5530      1.77395e+8 
           5550      1.75189e+8 
           5570      1.72999e+8 
           5590      1.70859e+8 
           5610      1.68745e+8 
           5630      1.66669e+8 
           5650      1.64582e+8 
           5670      1.62591e+8 
           5690      1.60624e+8 
           5710      1.58669e+8 
           5730      1.56748e+8 
           5750      1.54851e+8 
           5770      1.52987e+8 
           5790      1.51157e+8 
           5810      1.49336e+8 
           5830       1.4756e+8 
           5850      1.45804e+8 
           5870      1.39816e+8 
           5890       1.4206e+8 
           5910      1.40691e+8 
           5930      1.39036e+8 
           5950       1.3739e+8 
           5970      1.35805e+8 
           5990      1.34207e+8 
           6010      1.32658e+8 
           6030      1.31127e+8 
           6050      1.29613e+8 
           6070      1.28126e+8 
           6090      1.26656e+8 
           6110      1.25203e+8 
           6130      1.23776e+8 
           6150      1.22364e+8 
           6170      1.20988e+8 
           6190      1.19618e+8 
           6210      1.18272e+8 
           6230      1.16941e+8 
           6250      1.15625e+8 
           6270      1.14343e+8 
           6290      1.13064e+8 
           6310      1.11809e+8 
           6330      1.10577e+8 
           6350      1.09256e+8 
           6370      1.08097e+8 
           6390      1.06961e+8 
           6410       1.0579e+8 
           6430      1.04641e+8 
           6450      1.03495e+8 
           6470      1.02235e+8 
           6490      1.00899e+8 
           6510       9.9409e+7 
           6530      9.69634e+7 
           6550       8.7995e+7 
           6570      7.62564e+7 
           6590      9.20568e+7 
           6610      9.38459e+7 
           6630      9.34691e+7 
           6650      9.26947e+7 
           6670      9.09796e+7 
           6690      9.01418e+7 
           6710      9.00403e+7 
           6730      8.90984e+7 
           6750      8.81661e+7 
           6770      8.72514e+7 
           6790      8.63459e+7 
           6810      8.54495e+7 
           6830      8.45622e+7 
           6850      8.36918e+7 
           6870       8.2838e+7 
           6890      8.19848e+7 
           6910       8.1148e+7 
           6930      8.03194e+7 
           6950      7.95069e+7 
           6970      7.86945e+7 
           6990      7.78979e+7 
           7010      7.71167e+7 
           7030      7.63355e+7 
           7050       7.5571e+7 
           7070      7.39623e+7 
           7090      7.40702e+7 
           7110      7.33321e+7 
           7130      7.26041e+7 
           7150      7.18839e+7 
           7170      7.11741e+7 
           7190      7.04734e+7 
           7210        6.978e+7 
           7230      6.90853e+7 
           7250      6.84202e+7 
           7270      6.77527e+7 
           7290      6.67782e+7 
           7310      6.64408e+7 
           7330      6.57989e+7 
           7350      6.51631e+7 
           7370      6.45352e+7 
           7390      6.39153e+7 
           7410      6.33025e+7 
           7430       6.2696e+7 
           7450      6.21012e+7 
           7470      6.15092e+7 
           7490      6.09253e+7 
           7510      6.03441e+7 
           7530      5.97788e+7 
           7550      5.92153e+7 
           7570      5.86583e+7 
           7590      5.81082e+7 
           7610      5.75645e+7 
           7630      5.70269e+7 
           7650      5.64961e+7 
           7670      5.59713e+7 
           7690      5.54524e+7 
           7710      5.49395e+7 
           7730       5.4433e+7 
           7750      5.39323e+7 
           7770      5.33979e+7 
           7790      5.29478e+7 
           7810      5.24583e+7 
           7830       5.1986e+7 
           7850      5.15216e+7 
           7870       5.1052e+7 
           7890      5.05829e+7 
           7910      5.01402e+7 
           7930      4.96887e+7 
           7950      4.92375e+7 
           7970      4.87998e+7 
           7990      4.83569e+7 
           8010      4.79319e+7 
           8030      4.75048e+7 
           8050      4.70824e+7 
           8070      4.66653e+7 
           8090      4.62513e+7 
           8110      4.58436e+7 
           8130      4.54399e+7 
           8150      4.50408e+7 
           8170      4.46461e+7 
           8190       4.4252e+7 
           8210      4.38399e+7 
           8230      4.34958e+7 
           8250      4.31391e+7 
           8270      4.27247e+7 
           8290       4.2419e+7 
           8310      4.20732e+7 
           8330      4.17134e+7 
           8350      4.13091e+7 
           8370      4.10043e+7 
           8390      4.06806e+7 
           8410      4.03287e+7 
           8430      3.99727e+7 
           8450       3.9552e+7 
           8470      3.92562e+7 
           8490      3.88959e+7 
           8510      3.84917e+7 
           8530      3.82244e+7 
           8550      3.75382e+7 
           8570      3.77535e+7 
           8590      3.66666e+7 
