# Kurucz ODFNEW /NOVER (2003)
# teff = 21000 K (value for the effective temperature for the model. Temperatures are given in K)
# logg = 5 log(cm/s2) (value for Log(G) for the model.)
# meta = -2.5  (value for the Metallicity for the model.)
# lh = 1.25  (l/Hp where l is the  mixing length of the convective element and Hp is the pressure scale height)
# vtur = 2 km/s (Microturbulence velocity)
# alpha = 0.4  (Alpha)
#
# column 1: WAVELENGTH (ANGSTROM), Wavelength in Angstrom
# column 2: FLUX (ERG/CM2/S/A), Flux in erg/cm2/s/A
          147.2     1.68001e-19 
            151     1.04212e-18 
          155.2     7.10885e-18 
          158.8     3.41138e-17 
            162     1.30183e-16 
            166     6.48066e-16 
          170.3     3.35837e-15 
          173.4      1.0472e-14 
          176.8     3.48766e-14 
          180.2     1.11147e-13 
          181.7      1.8286e-13 
          186.1     7.53356e-13 
            191     3.37994e-12 
          193.9     7.92473e-12 
          198.4     2.83333e-11 
          201.8     7.15461e-11 
            205     1.66451e-10 
          210.5     6.67941e-10 
          216.2      2.61787e-9 
          219.8      5.97899e-9 
            223      1.21718e-8 
          226.8      2.75855e-8 
            230      6.65999e-8 
            234      1.55498e-7 
            240      4.91985e-7 
          246.5      1.59974e-6 
          252.4      4.42431e-6 
          256.8      9.10886e-6 
            260      1.52793e-5 
            264      2.84834e-5 
          268.5      5.60504e-5 
          273.5      0.00011573 
          278.5     0.000232792 
            284       0.0004874 
            290      0.00105529 
            296      0.00220987 
            301      0.00399824 
            308      0.00883843 
            318       0.0259021 
            328       0.0706823 
            338         0.18108 
            348        0.438062 
            357        0.926859 
            366         1.88598 
            375         3.69858 
            385         7.51349 
            395         14.6809 
            405         27.6762 
            414         47.5978 
            422           75.45 
            430         117.379 
            441         209.439 
            451         345.111 
            460         530.021 
            470         835.746 
            480         1290.23 
            490         1953.16 
            500         2902.17 
            506         20580.4 
            512         60914.7 
            520         77935.9 
            530          113351 
            540          131274 
            550          186796 
            560          234291 
            570          293476 
            580          317790 
            590          427227 
            600          541402 
            610          655576 
            620          785526 
            630          937600 
            640      1.10637e+6 
            650      1.30852e+6 
            658      1.48599e+6 
            665       1.6543e+6 
            675      1.91786e+6 
            685      2.20863e+6 
            695       2.5582e+6 
            705      2.92788e+6 
            716      3.37785e+6 
            726      3.83422e+6 
            735      4.28749e+6 
            745      4.83244e+6 
            755      5.42592e+6 
            765      6.06456e+6 
            775      6.76529e+6 
            785      7.51716e+6 
            795      8.32229e+6 
            805      9.19115e+6 
            815      1.01166e+7 
            825      1.11094e+7 
            835      1.20509e+7 
            845        1.328e+7 
            855      1.44533e+7 
            865      1.57252e+7 
            875      1.70428e+7 
            885      1.84506e+7 
            895      1.99162e+7 
            905      2.13055e+7 
            915      3.33948e+7 
            925      1.18783e+8 
            935      2.96505e+8 
            945      1.58998e+9 
            955      4.85976e+9 
            965      7.23542e+9 
            975      1.97863e+9 
            985     1.36399e+10 
            995     1.59539e+10 
           1005     1.59241e+10 
           1015     1.02828e+10 
           1025      9.44526e+8 
           1035      8.32077e+9 
           1045     1.51037e+10 
           1055     1.58172e+10 
           1065     1.51947e+10 
           1075      1.5475e+10 
           1085     1.45357e+10 
           1095      1.5006e+10 
           1105     1.42324e+10 
           1115     1.40365e+10 
           1125     1.34032e+10 
           1135     1.34865e+10 
           1145     1.28928e+10 
           1155     1.28978e+10 
           1165     1.26065e+10 
           1175     1.14408e+10 
           1185     1.17146e+10 
           1195     1.00747e+10 
           1205      6.33087e+9 
           1215      8.23013e+8 
           1225      5.39026e+9 
           1235      9.42203e+9 
           1245     1.01254e+10 
           1255     1.00782e+10 
           1265      9.93908e+9 
           1275      9.97335e+9 
           1285      9.78998e+9 
           1295      9.16537e+9 
           1305      8.98629e+9 
           1315      9.21593e+9 
           1325        8.937e+9 
           1335      8.63282e+9 
           1345      8.66986e+9 
           1355      8.53149e+9 
           1365      8.33294e+9 
           1375      8.19385e+9 
           1385      8.04826e+9 
           1395      7.77222e+9 
           1405      7.67572e+9 
           1415      7.58699e+9 
           1425      7.46845e+9 
           1435      7.33289e+9 
           1442      7.24973e+9 
           1447      7.18172e+9 
           1455      7.07431e+9 
           1465      6.94296e+9 
           1475      6.81901e+9 
           1485      6.69024e+9 
           1495      6.57508e+9 
           1505      6.43011e+9 
           1512      6.36461e+9 
           1517       6.3188e+9 
           1525      6.21655e+9 
           1535      6.06467e+9 
           1545      6.00646e+9 
           1555      5.88412e+9 
           1565      5.80624e+9 
           1575       5.7209e+9 
           1585      5.62464e+9 
           1595      5.53642e+9 
           1605       5.4169e+9 
           1615      5.32532e+9 
           1625      5.26169e+9 
           1635      5.18019e+9 
           1645      5.07564e+9 
           1655      5.00706e+9 
           1665      4.94016e+9 
           1672      4.81857e+9 
           1677      4.84614e+9 
           1685      4.78603e+9 
           1695      4.70639e+9 
           1705      4.62711e+9 
           1715      4.54769e+9 
           1725      4.47802e+9 
           1735      4.41842e+9 
           1745      4.34813e+9 
           1755      4.28869e+9 
           1765      4.18412e+9 
           1775      4.15193e+9 
           1785      4.09112e+9 
           1795      4.03794e+9 
           1805      3.97702e+9 
           1815      3.91525e+9 
           1825      3.86217e+9 
           1835      3.80497e+9 
           1845      3.73672e+9 
           1855      3.64224e+9 
           1865       3.5983e+9 
           1875      3.58542e+9 
           1885      3.51779e+9 
           1895      3.44488e+9 
           1905      3.43123e+9 
           1915      3.35676e+9 
           1925      3.31202e+9 
           1935      3.27817e+9 
           1945      3.24615e+9 
           1955      3.18187e+9 
           1967      3.15086e+9 
           1976      3.11827e+9 
           1984      3.07432e+9 
           1995      3.01401e+9 
           2005       2.9947e+9 
           2015       2.9579e+9 
           2025      2.92178e+9 
           2035      2.87958e+9 
           2045      2.84167e+9 
           2055      2.77456e+9 
           2065       2.7557e+9 
           2074      2.73753e+9 
           2078      2.70292e+9 
           2085      2.69659e+9 
           2095      2.65477e+9 
           2105      2.62867e+9 
           2115      2.59731e+9 
           2125      2.56624e+9 
           2135      2.53309e+9 
           2145      2.50011e+9 
           2155      2.46982e+9 
           2165      2.43822e+9 
           2175      2.40772e+9 
           2185      2.37855e+9 
           2195      2.34974e+9 
           2205      2.32011e+9 
           2215      2.29129e+9 
           2225      2.26245e+9 
           2235      2.23614e+9 
           2245      2.20909e+9 
           2255      2.18176e+9 
           2265       2.1563e+9 
           2275      2.13003e+9 
           2285      2.10522e+9 
           2295      2.07611e+9 
           2305      2.05495e+9 
           2315      2.03035e+9 
           2325      2.00692e+9 
           2335       1.9812e+9 
           2345      1.95482e+9 
           2355      1.93642e+9 
           2365      1.91179e+9 
           2375      1.89119e+9 
           2385      1.86582e+9 
           2395      1.84601e+9 
           2405      1.82548e+9 
           2415      1.80438e+9 
           2425      1.78652e+9 
           2435       1.7654e+9 
           2445      1.74544e+9 
           2455      1.72675e+9 
           2465      1.70657e+9 
           2475      1.68801e+9 
           2485      1.66926e+9 
           2495      1.64435e+9 
           2505      1.63251e+9 
           2513      1.61611e+9 
           2518      1.60892e+9 
           2525      1.59594e+9 
           2535      1.57751e+9 
           2545      1.56048e+9 
           2555       1.5454e+9 
           2565      1.52777e+9 
           2575      1.51246e+9 
           2585      1.49599e+9 
           2595      1.47967e+9 
           2605      1.47188e+9 
           2615      1.45701e+9 
           2625      1.44216e+9 
           2635      1.42581e+9 
           2645      1.41192e+9 
           2655      1.39532e+9 
           2665      1.37739e+9 
           2675       1.3609e+9 
           2685      1.35449e+9 
           2695      1.33066e+9 
           2705       1.3264e+9 
           2715      1.31251e+9 
           2725      1.28833e+9 
           2735      1.28563e+9 
           2745      1.26978e+9 
           2755       1.2572e+9 
           2765      1.23575e+9 
           2775      1.23406e+9 
           2785      1.22137e+9 
           2795      1.19427e+9 
           2805      1.19028e+9 
           2815      1.18502e+9 
           2825      1.16045e+9 
           2835      1.15345e+9 
           2845      1.14964e+9 
           2855      1.13837e+9 
           2865      1.12717e+9 
           2875      1.11597e+9 
           2885      1.10504e+9 
           2895      1.09418e+9 
           2910      1.07817e+9 
           2930      1.05692e+9 
           2950      1.02913e+9 
           2970      1.01711e+9 
           2990       9.9769e+8 
           3010      9.78904e+8 
           3030      9.60484e+8 
           3050      9.42502e+8 
           3070      9.24985e+8 
           3090      9.07842e+8 
           3110       8.9114e+8 
           3130      8.75558e+8 
           3150      8.59577e+8 
           3170      8.44004e+8 
           3190      8.22014e+8 
           3210      8.13668e+8 
           3230         7.99e+8 
           3250      7.84703e+8 
           3270      7.71469e+8 
           3290      7.57176e+8 
           3310      7.44718e+8 
           3330      7.31791e+8 
           3350      7.18211e+8 
           3370       7.0676e+8 
           3390      6.94675e+8 
           3410      6.82857e+8 
           3430      6.69761e+8 
           3450      6.56954e+8 
           3470      6.47213e+8 
           3490      6.36445e+8 
           3510      6.26246e+8 
           3530      6.16631e+8 
           3550      6.06294e+8 
           3570        5.989e+8 
           3590       5.8599e+8 
           3610      5.78156e+8 
           3630      5.67143e+8 
           3640      5.65737e+8 
           3650      5.61086e+8 
           3670      5.54428e+8 
           3690      5.45529e+8 
           3710      5.28113e+8 
           3730      5.03889e+8 
           3750      5.10504e+8 
           3770       5.0526e+8 
           3790       5.4639e+8 
           3810      5.84321e+8 
           3830      4.95435e+8 
           3850      6.18373e+8 
           3870      6.49678e+8 
           3890      4.58436e+8 
           3910      6.43255e+8 
           3930      6.55872e+8 
           3950       6.2655e+8 
           3970      4.29892e+8 
           3990       5.9564e+8 
           4010      6.15532e+8 
           4030      5.69401e+8 
           4050      6.07453e+8 
           4070      5.89967e+8 
           4090      5.00569e+8 
           4110      4.20216e+8 
           4130      5.48544e+8 
           4150      5.53178e+8 
           4170      5.51871e+8 
           4190      5.45456e+8 
           4210      5.37544e+8 
           4230      5.28831e+8 
           4250      5.19423e+8 
           4270      5.09961e+8 
           4290      4.99976e+8 
           4310       4.8326e+8 
           4330      4.01908e+8 
           4350      3.60175e+8 
           4370      4.56923e+8 
           4390      4.42643e+8 
           4410      4.55916e+8 
           4430      4.47528e+8 
           4450      4.42525e+8 
           4470      4.07012e+8 
           4490      4.28397e+8 
           4510      4.23791e+8 
           4530      4.17322e+8 
           4550      4.10986e+8 
           4570      4.04781e+8 
           4590      3.98704e+8 
           4610      3.92735e+8 
           4630      3.86854e+8 
           4650      3.81059e+8 
           4670      3.75453e+8 
           4690      3.69911e+8 
           4710      3.58778e+8 
           4730      3.59084e+8 
           4750      3.53779e+8 
           4770      3.48269e+8 
           4790      3.42395e+8 
           4810       3.3589e+8 
           4830      3.25136e+8 
           4850      2.78946e+8 
           4870      2.43461e+8 
           4890      3.07454e+8 
           4910      3.11002e+8 
           4930      2.98858e+8 
           4950      3.05689e+8 
           4970      3.02135e+8 
           4990      2.97918e+8 
           5010       2.8921e+8 
           5030      2.89595e+8 
           5050      2.83642e+8 
           5070      2.81775e+8 
           5090      2.77907e+8 
           5110      2.74106e+8 
           5130      2.70384e+8 
           5150      2.66711e+8 
           5170      2.63101e+8 
           5190      2.59553e+8 
           5210      2.56037e+8 
           5230      2.52651e+8 
           5250       2.4928e+8 
           5270      2.45968e+8 
           5290      2.42711e+8 
           5310       2.3951e+8 
           5330       2.3635e+8 
           5350      2.33244e+8 
           5370      2.30216e+8 
           5390      2.27214e+8 
           5410      2.24263e+8 
           5430      2.21349e+8 
           5450       2.1851e+8 
           5470      2.15706e+8 
           5490       2.1295e+8 
           5510      2.10228e+8 
           5530      2.07552e+8 
           5550      2.04922e+8 
           5570      2.02336e+8 
           5590      1.99781e+8 
           5610       1.9727e+8 
           5630      1.94813e+8 
           5650      1.92362e+8 
           5670      1.89977e+8 
           5690      1.87631e+8 
           5710      1.85325e+8 
           5730      1.83036e+8 
           5750      1.80796e+8 
           5770      1.78583e+8 
           5790      1.76407e+8 
           5810      1.74257e+8 
           5830      1.72155e+8 
           5850      1.70066e+8 
           5870      1.61792e+8 
           5890      1.65451e+8 
           5910       1.6402e+8 
           5930      1.62059e+8 
           5950      1.60131e+8 
           5970      1.58235e+8 
           5990      1.56361e+8 
           6010      1.54519e+8 
           6030      1.52698e+8 
           6050      1.50918e+8 
           6070      1.49148e+8 
           6090      1.47419e+8 
           6110      1.45708e+8 
           6130      1.44017e+8 
           6150      1.42355e+8 
           6170      1.40721e+8 
           6190      1.39105e+8 
           6210      1.37517e+8 
           6230      1.35946e+8 
           6250      1.34403e+8 
           6270      1.32876e+8 
           6290      1.31375e+8 
           6310        1.299e+8 
           6330      1.28441e+8 
           6350       1.2697e+8 
           6370      1.25571e+8 
           6390      1.24177e+8 
           6410      1.22798e+8 
           6430      1.21443e+8 
           6450      1.20102e+8 
           6470      1.18731e+8 
           6490      1.17133e+8 
           6510      1.15472e+8 
           6530      1.12902e+8 
           6550      1.03458e+8 
           6570      8.99736e+7 
           6590      1.07446e+8 
           6610      1.09004e+8 
           6630      1.08407e+8 
           6650      1.07458e+8 
           6670      1.05113e+8 
           6690      1.04123e+8 
           6710      1.04298e+8 
           6730      1.03197e+8 
           6750      1.02098e+8 
           6770      1.01019e+8 
           6790      9.99592e+7 
           6810      9.89099e+7 
           6830      9.78712e+7 
           6850      9.68509e+7 
           6870      9.58408e+7 
           6890      9.48408e+7 
           6910      9.38587e+7 
           6930      9.28863e+7 
           6950      9.19313e+7 
           6970      9.09857e+7 
           6990      9.00494e+7 
           7010        8.913e+7 
           7030      8.82196e+7 
           7050       8.7318e+7 
           7070      8.50912e+7 
           7090      8.55636e+7 
           7110      8.46954e+7 
           7130       8.3843e+7 
           7150      8.29987e+7 
           7170        8.217e+7 
           7190      8.13491e+7 
           7210       8.0536e+7 
           7230      7.97308e+7 
           7250      7.89474e+7 
           7270      7.81644e+7 
           7290      7.68358e+7 
           7310      7.66274e+7 
           7330      7.58803e+7 
           7350      7.51402e+7 
           7370      7.44069e+7 
           7390      7.36805e+7 
           7410      7.29608e+7 
           7430      7.22547e+7 
           7450      7.15618e+7 
           7470      7.08753e+7 
           7490      7.01884e+7 
           7510      6.95011e+7 
           7530      6.88534e+7 
           7550      6.81916e+7 
           7570      6.75425e+7 
           7590      6.68993e+7 
           7610      6.62684e+7 
           7630      6.56432e+7 
           7650      6.50236e+7 
           7670      6.44096e+7 
           7690      6.38074e+7 
           7710      6.32075e+7 
           7730      6.26166e+7 
           7750      6.20329e+7 
           7770      6.14444e+7 
           7790       6.0886e+7 
           7810      6.03034e+7 
           7830      5.97647e+7 
           7850      5.92515e+7 
           7870      5.87038e+7 
           7890       5.8162e+7 
           7910      5.76365e+7 
           7930      5.71101e+7 
           7950      5.65894e+7 
           7970      5.60656e+7 
           7990      5.55634e+7 
           8010      5.50643e+7 
           8030      5.45672e+7 
           8050      5.40754e+7 
           8070      5.35897e+7 
           8090      5.30729e+7 
           8110      5.26133e+7 
           8130      5.21644e+7 
           8150      5.16625e+7 
           8170      5.12372e+7 
           8190      5.07446e+7 
           8210      5.02484e+7 
           8230      4.98854e+7 
           8250      4.94662e+7 
           8270      4.89127e+7 
           8290      4.86128e+7 
           8310      4.82144e+7 
           8330      4.77812e+7 
           8350      4.72392e+7 
           8370      4.69314e+7 
           8390      4.65763e+7 
           8410      4.61691e+7 
           8430      4.57494e+7 
           8450      4.51732e+7 
           8470      4.49407e+7 
           8490      4.44914e+7 
           8510      4.40896e+7 
           8530      4.37075e+7 
           8550      4.30555e+7 
           8570      4.31769e+7 
