# Kurucz ODFNEW /NOVER (2003)
# teff = 8250 K (value for the effective temperature for the model. Temperatures are given in K)
# logg = 3 log(cm/s2) (value for Log(G) for the model.)
# meta = -4  (value for the Metallicity for the model.)
# lh = 1.25  (l/Hp where l is the  mixing length of the convective element and Hp is the pressure scale height)
# vtur = 2 km/s (Microturbulence velocity)
# alpha = 0.4  (Alpha)
#
# column 1: WAVELENGTH (ANGSTROM), Wavelength in Angstrom
# column 2: FLUX (ERG/CM2/S/A), Flux in erg/cm2/s/A
          147.2     1.73866e-35 
            151     1.65225e-35 
          155.2     1.56403e-35 
          158.8     1.49392e-35 
            162     1.43549e-35 
            166     1.36714e-35 
          170.3     1.29897e-35 
          173.4     1.25294e-35 
          176.8     1.20522e-35 
          180.2     1.16017e-35 
          181.7     1.14109e-35 
          186.1     1.08777e-35 
            191     1.03267e-35 
          193.9     1.00201e-35 
          198.4     9.57076e-36 
          201.8     9.25097e-36 
            205     8.96441e-36 
          210.5     8.50208e-36 
          216.2     8.05969e-36 
          219.8     7.79784e-36 
            223     7.57565e-36 
          226.8     7.32392e-36 
            230     7.12154e-36 
            234     6.88015e-36 
            240     6.54044e-36 
          246.5     6.20006e-36 
          252.4     5.91358e-36 
          256.8     5.71267e-36 
            260     5.57292e-36 
            264     5.40532e-36 
          268.5     5.22566e-36 
          273.5     5.03634e-36 
          278.5     8.24157e-24 
            284     7.77644e-23 
            290      4.2178e-22 
            296      2.0583e-21 
            301      7.3108e-21 
            308     4.01018e-20 
            318     3.98098e-19 
            328     3.42293e-18 
            338     2.57779e-17 
            348     1.72307e-16 
            357     8.66351e-16 
            366     4.01658e-15 
            375     1.72378e-14 
            385     8.00784e-14 
            395     3.42938e-13 
            405     1.36314e-12 
            414      4.4525e-12 
            422     1.21969e-11 
            430     3.21371e-11 
            441     1.14711e-10 
            451     3.44685e-10 
            460     8.89178e-10 
            470      2.43825e-9 
            480      6.39884e-9 
            490      1.61346e-8 
            500      3.91136e-8 
            506      8.86161e-8 
            512       1.6419e-7 
            520      3.12989e-7 
            530      6.87179e-7 
            540       1.4387e-6 
            550      2.96688e-6 
            560      5.91427e-6 
            570      1.14875e-5 
            580      2.15634e-5 
            590      4.03374e-5 
            600      7.31179e-5 
            610     0.000129815 
            620      0.00022594 
            630     0.000385889 
            640     0.000647559 
            650      0.00106831 
            658      0.00157578 
            665      0.00219593 
            675       0.0034829 
            685      0.00544719 
            695      0.00840227 
            705       0.0127915 
            716       0.0200124 
            726       0.0296851 
            735       0.0419174 
            745       0.0608632 
            755        0.087437 
            765        0.124331 
            775        0.175122 
            785        0.244375 
            795        0.337952 
            805        0.463313 
            815        0.629844 
            825        0.849409 
            835         1.13663 
            845         1.50971 
            855         1.99088 
            865         2.60701 
            875         3.39237 
            885         4.38631 
            895         5.63619 
            905         7.19858 
            915         18.6402 
            925         71.8037 
            935         117.566 
            945         208.444 
            955         327.568 
            965         404.112 
            975         287.941 
            985         909.066 
            995          1372.9 
           1005         1183.39 
           1015         796.554 
           1025         625.573 
           1035         1228.28 
           1045         2573.53 
           1055         10396.6 
           1065          162815 
           1075          564886 
           1085      1.18159e+6 
           1095      1.32779e+6 
           1105      1.28712e+6 
           1115          957895 
           1125          629944 
           1135          400030 
           1145          144994 
           1155           31273 
           1165         9009.47 
           1175         6620.34 
           1185         14336.8 
           1195         7224.21 
           1205         5429.53 
           1215         3481.66 
           1225         6288.76 
           1235         10769.2 
           1245         6711.75 
           1255         12553.1 
           1265         18995.3 
           1275         33280.8 
           1285          171823 
           1295          403097 
           1305      1.03832e+6 
           1315      1.67739e+6 
           1325      2.66599e+6 
           1335      3.65796e+6 
           1345      4.92032e+6 
           1355      5.87575e+6 
           1365       7.0472e+6 
           1375      6.89924e+6 
           1385       6.3135e+6 
           1395      6.00494e+6 
           1405      9.30285e+6 
           1415      1.41165e+7 
           1425      1.51219e+7 
           1435      1.60423e+7 
           1442      1.71792e+7 
           1447        1.657e+7 
           1455       1.8217e+7 
           1465      1.73841e+7 
           1475      1.85921e+7 
           1485      1.88721e+7 
           1495      1.94397e+7 
           1505      2.02035e+7 
           1512       2.0643e+7 
           1517       1.9466e+7 
           1525      2.02521e+7 
           1535      1.99587e+7 
           1545      1.93602e+7 
           1555      1.91261e+7 
           1565      1.70951e+7 
           1575      1.72067e+7 
           1585      1.63575e+7 
           1595      1.61071e+7 
           1605        1.579e+7 
           1615      1.84954e+7 
           1625      2.10833e+7 
           1635      2.36842e+7 
           1645      2.65212e+7 
           1655      2.59472e+7 
           1665      2.89808e+7 
           1672      2.88006e+7 
           1677      2.94771e+7 
           1685       2.9929e+7 
           1695       2.9847e+7 
           1705      2.97273e+7 
           1715      3.01706e+7 
           1725      3.00409e+7 
           1735      3.03664e+7 
           1745      2.99624e+7 
           1755      3.01149e+7 
           1765      3.00068e+7 
           1775      3.00152e+7 
           1785      2.97602e+7 
           1795      2.99358e+7 
           1805       2.9412e+7 
           1815       2.9449e+7 
           1825      2.92629e+7 
           1835       2.9436e+7 
           1845      2.90569e+7 
           1855       2.9224e+7 
           1865      2.92298e+7 
           1875      2.91525e+7 
           1885      2.90773e+7 
           1895      2.90062e+7 
           1905      2.88146e+7 
           1915      2.88154e+7 
           1925      2.87679e+7 
           1935      2.82963e+7 
           1945      2.86135e+7 
           1955      2.85256e+7 
           1967      2.84308e+7 
           1976      2.83065e+7 
           1984      2.82203e+7 
           1995      2.81892e+7 
           2005      2.80587e+7 
           2015      2.79117e+7 
           2025      2.78002e+7 
           2035      2.78597e+7 
           2045      2.77762e+7 
           2055      2.74468e+7 
           2065      2.74616e+7 
           2074      2.76013e+7 
           2078      2.75754e+7 
           2085      2.75292e+7 
           2095      2.74868e+7 
           2105      2.74218e+7 
           2115       2.7345e+7 
           2125      2.72301e+7 
           2135      2.71855e+7 
           2145      2.71742e+7 
           2155      2.70921e+7 
           2165      2.68456e+7 
           2175      2.68661e+7 
           2185      2.68954e+7 
           2195      2.69026e+7 
           2205      2.67328e+7 
           2215      2.64305e+7 
           2225      2.65093e+7 
           2235      2.66768e+7 
           2245      2.65832e+7 
           2255      2.63761e+7 
           2265      2.62318e+7 
           2275      2.63679e+7 
           2285      2.63483e+7 
           2295        2.623e+7 
           2305      2.62759e+7 
           2315      2.62062e+7 
           2325      2.61492e+7 
           2335      2.58193e+7 
           2345      2.52878e+7 
           2355      2.58506e+7 
           2365       2.5264e+7 
           2375      2.56482e+7 
           2385      2.49679e+7 
           2395      2.54941e+7 
           2405      2.54767e+7 
           2415      2.54308e+7 
           2425      2.58321e+7 
           2435      2.57194e+7 
           2445      2.56809e+7 
           2455      2.57359e+7 
           2465      2.56106e+7 
           2475      2.55824e+7 
           2485      2.55215e+7 
           2495      2.53657e+7 
           2505      2.55599e+7 
           2513       2.5361e+7 
           2518      2.53626e+7 
           2525      2.52842e+7 
           2535      2.51519e+7 
           2545      2.53345e+7 
           2555      2.54568e+7 
           2565        2.517e+7 
           2575      2.52641e+7 
           2585      2.51913e+7 
           2595      2.51167e+7 
           2605      2.50353e+7 
           2615       2.4972e+7 
           2625      2.49625e+7 
           2635      2.50083e+7 
           2645      2.53737e+7 
           2655      2.53475e+7 
           2665        2.526e+7 
           2675      2.52616e+7 
           2685       2.5287e+7 
           2695       2.5247e+7 
           2705      2.52362e+7 
           2715      2.51084e+7 
           2725      2.50523e+7 
           2735      2.50694e+7 
           2745      2.45701e+7 
           2755      2.46933e+7 
           2765      2.49718e+7 
           2775      2.51038e+7 
           2785      2.50691e+7 
           2795      2.43075e+7 
           2805      2.46789e+7 
           2815      2.50534e+7 
           2825      2.50321e+7 
           2835      2.49669e+7 
           2845      2.49677e+7 
           2855      2.48139e+7 
           2865      2.49039e+7 
           2875      2.49138e+7 
           2885       2.4878e+7 
           2895      2.49038e+7 
           2910      2.48871e+7 
           2930      2.47916e+7 
           2950      2.47535e+7 
           2970      2.47621e+7 
           2990      2.47155e+7 
           3010      2.47009e+7 
           3030      2.46652e+7 
           3050       2.4625e+7 
           3070      2.45662e+7 
           3090      2.45459e+7 
           3110      2.45062e+7 
           3130      2.44625e+7 
           3150      2.44163e+7 
           3170      2.43821e+7 
           3190      2.43121e+7 
           3210      2.42956e+7 
           3230      2.42181e+7 
           3250      2.42073e+7 
           3270      2.41774e+7 
           3290      2.41353e+7 
           3310      2.40904e+7 
           3330      2.40343e+7 
           3350      2.39714e+7 
           3370      2.39298e+7 
           3390      2.38857e+7 
           3410      2.38499e+7 
           3430      2.37993e+7 
           3450      2.37483e+7 
           3470      2.36959e+7 
           3490      2.36444e+7 
           3510      2.35916e+7 
           3530      2.35381e+7 
           3550      2.34835e+7 
           3570       2.3426e+7 
           3590      2.33697e+7 
           3610      2.33127e+7 
           3630      2.32538e+7 
           3640      2.32237e+7 
           3650      2.33147e+7 
           3670      2.30931e+7 
           3690      2.25961e+7 
           3710        2.624e+7 
           3730      3.01239e+7 
           3750      4.13927e+7 
           3770      4.44614e+7 
           3790      5.41643e+7 
           3810      6.40404e+7 
           3830      5.09663e+7 
           3850      7.11344e+7 
           3870      8.02263e+7 
           3890      4.36453e+7 
           3910      7.94803e+7 
           3930      8.44909e+7 
           3950      7.84631e+7 
           3970      4.20832e+7 
           3990      7.44628e+7 
           4010      8.21888e+7 
           4030      8.20686e+7 
           4050       8.0911e+7 
           4070      7.79868e+7 
           4090      6.02836e+7 
           4110       4.5668e+7 
           4130      7.35993e+7 
           4150      7.59015e+7 
           4170      7.55673e+7 
           4190      7.48154e+7 
           4210      7.39426e+7 
           4230      7.30282e+7 
           4250      7.20797e+7 
           4270      7.10383e+7 
           4290      6.96978e+7 
           4310      6.67973e+7 
           4330      5.00447e+7 
           4350      4.23008e+7 
           4370      6.36539e+7 
           4390      6.54973e+7 
           4410      6.52668e+7 
           4430      6.46749e+7 
           4450       6.4053e+7 
           4470       6.3302e+7 
           4490      6.25992e+7 
           4510      6.18785e+7 
           4530      6.11589e+7 
           4550      6.04496e+7 
           4570      5.97557e+7 
           4590      5.90716e+7 
           4610       5.8397e+7 
           4630      5.77319e+7 
           4650      5.70761e+7 
           4670      5.64311e+7 
           4690       5.5795e+7 
           4710      5.51608e+7 
           4730      5.45505e+7 
           4750      5.38483e+7 
           4770      5.31642e+7 
           4790      5.24306e+7 
           4810      5.14598e+7 
           4830      4.93695e+7 
           4850      3.91184e+7 
           4870      3.16052e+7 
           4890      4.67916e+7 
           4910       4.8549e+7 
           4930      4.85092e+7 
           4950      4.81596e+7 
           4970        4.773e+7 
           4990      4.73058e+7 
           5010      4.67983e+7 
           5030      4.63078e+7 
           5050      4.58176e+7 
           5070      4.53367e+7 
           5090      4.48604e+7 
           5110      4.43916e+7 
           5130      4.39302e+7 
           5150      4.34746e+7 
           5170      4.30163e+7 
           5190      4.25763e+7 
           5210      4.21432e+7 
           5230      4.17099e+7 
           5250      4.12848e+7 
           5270      4.08648e+7 
           5290      4.04501e+7 
           5310      4.00404e+7 
           5330       3.9637e+7 
           5350      3.92386e+7 
           5370      3.88449e+7 
           5390      3.84573e+7 
           5410      3.80744e+7 
           5430      3.76973e+7 
           5450      3.73235e+7 
           5470      3.69554e+7 
           5490      3.65929e+7 
           5510      3.62334e+7 
           5530      3.58794e+7 
           5550      3.55296e+7 
           5570       3.5185e+7 
           5590      3.48445e+7 
           5610      3.45079e+7 
           5630      3.41752e+7 
           5650      3.38475e+7 
           5670      3.35236e+7 
           5690      3.32034e+7 
           5710       3.2888e+7 
           5730      3.25762e+7 
           5750       3.2268e+7 
           5770      3.19632e+7 
           5790       3.1663e+7 
           5810       3.1365e+7 
           5830      3.10715e+7 
           5850      3.07823e+7 
           5870      3.04887e+7 
           5890      3.02125e+7 
           5910       2.9934e+7 
           5930      2.96574e+7 
           5950      2.93849e+7 
           5970      2.91155e+7 
           5990      2.88489e+7 
           6010      2.85863e+7 
           6030      2.83255e+7 
           6050      2.80696e+7 
           6070      2.78154e+7 
           6090      2.75649e+7 
           6110      2.73171e+7 
           6130       2.7072e+7 
           6150      2.68295e+7 
           6170      2.65905e+7 
           6190      2.63541e+7 
           6210      2.61201e+7 
           6230      2.58886e+7 
           6250      2.56605e+7 
           6270      2.54338e+7 
           6290      2.52105e+7 
           6310      2.49903e+7 
           6330      2.47716e+7 
           6350       2.4555e+7 
           6370      2.43417e+7 
           6390      2.41305e+7 
           6410      2.39224e+7 
           6430      2.37155e+7 
           6450      2.34917e+7 
           6470      2.32413e+7 
           6490      2.29919e+7 
           6510      2.26722e+7 
           6530      2.20564e+7 
           6550      1.94334e+7 
           6570       1.5626e+7 
           6590      2.09513e+7 
           6610       2.1618e+7 
           6630      2.16283e+7 
           6650      2.15129e+7 
           6670      2.13739e+7 
           6690      2.12261e+7 
           6710      2.10504e+7 
           6730      2.08756e+7 
           6750      2.07024e+7 
           6770      2.05302e+7 
           6790      2.03604e+7 
           6810       2.0193e+7 
           6830      2.00265e+7 
           6850      1.98623e+7 
           6870      1.96998e+7 
           6890       1.9538e+7 
           6910      1.93793e+7 
           6930      1.92213e+7 
           6950      1.90648e+7 
           6970      1.89106e+7 
           6990      1.87578e+7 
           7010      1.86064e+7 
           7030      1.84565e+7 
           7050      1.83087e+7 
           7070      1.81616e+7 
           7090      1.80165e+7 
           7110      1.78729e+7 
           7130      1.77305e+7 
           7150      1.75902e+7 
           7170      1.74504e+7 
           7190      1.73126e+7 
           7210      1.71761e+7 
           7230      1.70402e+7 
           7250      1.69069e+7 
           7270      1.67741e+7 
           7290      1.66424e+7 
           7310      1.65127e+7 
           7330      1.63842e+7 
           7350      1.62568e+7 
           7370      1.61305e+7 
           7390      1.60054e+7 
           7410      1.58814e+7 
           7430      1.57591e+7 
           7450       1.5638e+7 
           7470      1.55172e+7 
           7490      1.53982e+7 
           7510      1.52809e+7 
           7530      1.51639e+7 
           7550       1.5048e+7 
           7570      1.49338e+7 
           7590      1.48205e+7 
           7610      1.47082e+7 
           7630      1.45969e+7 
           7650      1.44866e+7 
           7670      1.43778e+7 
           7690      1.42694e+7 
           7710      1.41625e+7 
           7730      1.40565e+7 
           7750      1.39515e+7 
           7770       1.3846e+7 
           7790      1.37446e+7 
           7810      1.36422e+7 
           7830      1.35412e+7 
           7850      1.34412e+7 
           7870      1.33419e+7 
           7890      1.32435e+7 
           7910      1.31459e+7 
           7930      1.30491e+7 
           7950      1.29537e+7 
           7970      1.28591e+7 
           7990      1.27653e+7 
           8010      1.26723e+7 
           8030      1.25801e+7 
           8050      1.24886e+7 
           8070      1.23978e+7 
           8090      1.23084e+7 
           8110      1.22197e+7 
           8130      1.21317e+7 
           8150      1.20445e+7 
           8170      1.19579e+7 
           8190       1.1872e+7 
           8210      1.18137e+7 
           8230      1.17358e+7 
           8250      1.16607e+7 
           8270      1.15856e+7 
           8290      1.15095e+7 
           8310      1.14285e+7 
           8330      1.13406e+7 
           8350      1.12523e+7 
           8370       1.1126e+7 
           8390      1.10265e+7 
           8410         1.09e+7 
           8430      1.08828e+7 
           8450      1.08388e+7 
           8470      1.03912e+7 
           8490      1.09193e+7 
           8510      1.01132e+7 
           8530      1.09761e+7 
           8550      9.61787e+6 
           8570      1.11057e+7 
           8590      1.02121e+7 
