# Kurucz ODFNEW /NOVER (2003)
# teff = 22000 K (value for the effective temperature for the model. Temperatures are given in K)
# logg = 3 log(cm/s2) (value for Log(G) for the model.)
# meta = -1.5  (value for the Metallicity for the model.)
# lh = 1.25  (l/Hp where l is the  mixing length of the convective element and Hp is the pressure scale height)
# vtur = 2 km/s (Microturbulence velocity)
# alpha = 0.4  (Alpha)
#
# column 1: WAVELENGTH (ANGSTROM), Wavelength in Angstrom
# column 2: FLUX (ERG/CM2/S/A), Flux in erg/cm2/s/A
          147.2     2.69683e-17 
            151     1.55596e-16 
          155.2     9.77537e-16 
          158.8     4.37077e-15 
            162     1.56468e-14 
            166     7.18774e-14 
          170.3     3.41474e-13 
          173.4     1.00032e-12 
          176.8     3.10765e-12 
          180.2      9.2413e-12 
          181.7     1.47497e-11 
          186.1     5.56242e-11 
            191     2.26558e-10 
          193.9      5.0244e-10 
          198.4      1.64713e-9 
          201.8      3.89623e-9 
            205       8.5282e-9 
          210.5      3.09323e-8 
          216.2      1.09442e-7 
          219.8      2.34559e-7 
            223      4.52009e-7 
          226.8      9.60678e-7 
            230       2.5451e-5 
            234      6.27944e-5 
            240      0.00016618 
          246.5     0.000452691 
          252.4      0.00108568 
          256.8      0.00189307 
            260      0.00310139 
            264        0.005231 
          268.5      0.00926927 
          273.5       0.0170551 
          278.5       0.0308126 
            284       0.0578808 
            290        0.110927 
            296        0.206643 
            301        0.338454 
            308        0.634369 
            318         1.66243 
            328         3.83929 
            338         8.60604 
            348          18.172 
            357         35.4681 
            366         65.5303 
            375         114.534 
            385         209.497 
            395         368.218 
            405         628.721 
            414         999.741 
            422         1464.51 
            430         2124.27 
            441         3478.07 
            451          5332.9 
            460         7643.73 
            470         11267.6 
            480         16251.9 
            490         23135.7 
            500         32448.5 
            506          284832 
            512          873388 
            520      1.07127e+6 
            530      1.45662e+6 
            540      1.58521e+6 
            550      2.27582e+6 
            560      2.70642e+6 
            570      3.32528e+6 
            580      3.32819e+6 
            590      4.41967e+6 
            600      5.39006e+6 
            610      6.43133e+6 
            620      7.34809e+6 
            630      8.52857e+6 
            640      9.37777e+6 
            650      1.05333e+7 
            658      1.23165e+7 
            665      1.33373e+7 
            675      1.44887e+7 
            685      1.60985e+7 
            695      1.89236e+7 
            705      2.05804e+7 
            716      2.34817e+7 
            726      2.55346e+7 
            735      2.79229e+7 
            745       3.1335e+7 
            755      3.43734e+7 
            765      3.75349e+7 
            775      4.12485e+7 
            785      4.50412e+7 
            795      4.83417e+7 
            805      5.22843e+7 
            815      5.57768e+7 
            825       6.0725e+7 
            835      6.23159e+7 
            845      6.86953e+7 
            855      7.32407e+7 
            865      7.86967e+7 
            875      8.46137e+7 
            885      9.07546e+7 
            895      9.63428e+7 
            905      1.00302e+8 
            915      2.10804e+8 
            925      3.22716e+9 
            935      7.10818e+9 
            945     1.18939e+10 
            955     1.32521e+10 
            965     1.50267e+10 
            975      6.37205e+9 
            985     1.43904e+10 
            995      1.3619e+10 
           1005     1.43474e+10 
           1015     1.41341e+10 
           1025      8.80018e+9 
           1035     1.23992e+10 
           1045     1.53296e+10 
           1055     1.46826e+10 
           1065      1.3151e+10 
           1075     1.42167e+10 
           1085     1.32198e+10 
           1095      1.4306e+10 
           1105     1.32849e+10 
           1115     1.32159e+10 
           1125     1.21717e+10 
           1135     1.34499e+10 
           1145     1.25333e+10 
           1155     1.29803e+10 
           1165     1.30076e+10 
           1175     1.06135e+10 
           1185     1.25964e+10 
           1195     1.17196e+10 
           1205      9.02942e+9 
           1215      6.46186e+9 
           1225     1.11234e+10 
           1235     1.17102e+10 
           1245     1.16213e+10 
           1255     1.13608e+10 
           1265     1.12198e+10 
           1275     1.13654e+10 
           1285     1.11158e+10 
           1295      9.37025e+9 
           1305      9.73487e+9 
           1315     1.06815e+10 
           1325     1.03037e+10 
           1335      9.94043e+9 
           1345      9.99412e+9 
           1355      1.0086e+10 
           1365       9.6573e+9 
           1375      9.53109e+9 
           1385      9.48489e+9 
           1395      8.25813e+9 
           1405      8.52821e+9 
           1415      8.98574e+9 
           1425      8.79587e+9 
           1435      8.83013e+9 
           1442      8.87523e+9 
           1447      8.75589e+9 
           1455      8.60257e+9 
           1465      8.39618e+9 
           1475      8.29796e+9 
           1485      8.16557e+9 
           1495      8.01472e+9 
           1505        7.697e+9 
           1512      7.45419e+9 
           1517      7.53888e+9 
           1525      7.47927e+9 
           1535      7.00528e+9 
           1545      7.04384e+9 
           1555       6.7781e+9 
           1565       6.9554e+9 
           1575      7.01861e+9 
           1585      6.91414e+9 
           1595      6.87702e+9 
           1605       6.6376e+9 
           1615      6.53168e+9 
           1625       6.5076e+9 
           1635      6.55198e+9 
           1645      6.39989e+9 
           1655      6.36734e+9 
           1665      6.31405e+9 
           1672      6.19014e+9 
           1677      6.33279e+9 
           1685      6.21959e+9 
           1695       6.0545e+9 
           1705      5.90334e+9 
           1715      5.71929e+9 
           1725       5.6728e+9 
           1735      5.66479e+9 
           1745      5.57468e+9 
           1755      5.57249e+9 
           1765      5.38993e+9 
           1775      5.29086e+9 
           1785      5.27207e+9 
           1795      5.28352e+9 
           1805      5.25752e+9 
           1815      5.03781e+9 
           1825        5.053e+9 
           1835       4.9701e+9 
           1845      4.67179e+9 
           1855      4.61367e+9 
           1865      4.65758e+9 
           1875      4.70083e+9 
           1885      4.38762e+9 
           1895      4.16592e+9 
           1905      4.36335e+9 
           1915      4.19965e+9 
           1925      4.08212e+9 
           1935      4.18986e+9 
           1945      4.21729e+9 
           1955      3.94745e+9 
           1967      4.08648e+9 
           1976      4.18172e+9 
           1984      3.97588e+9 
           1995       3.8713e+9 
           2005      3.91815e+9 
           2015      3.92566e+9 
           2025      3.94817e+9 
           2035      3.76354e+9 
           2045      3.73754e+9 
           2055      3.61392e+9 
           2065      3.62115e+9 
           2074      3.71967e+9 
           2078      3.55993e+9 
           2085      3.59144e+9 
           2095       3.4708e+9 
           2105      3.51655e+9 
           2115      3.49112e+9 
           2125      3.51032e+9 
           2135      3.44974e+9 
           2145       3.3433e+9 
           2155      3.37286e+9 
           2165       3.3417e+9 
           2175      3.29025e+9 
           2185       3.2516e+9 
           2195      3.23072e+9 
           2205       3.1911e+9 
           2215      3.15575e+9 
           2225      3.10127e+9 
           2235      3.05805e+9 
           2245      3.04521e+9 
           2255      2.99241e+9 
           2265      2.97434e+9 
           2275      2.93915e+9 
           2285      2.91175e+9 
           2295      2.82127e+9 
           2305      2.83939e+9 
           2315      2.79179e+9 
           2325      2.76204e+9 
           2335      2.70941e+9 
           2345      2.69293e+9 
           2355      2.67581e+9 
           2365      2.64252e+9 
           2375      2.60683e+9 
           2385       2.5766e+9 
           2395      2.54731e+9 
           2405      2.51953e+9 
           2415      2.48081e+9 
           2425      2.46981e+9 
           2435      2.43165e+9 
           2445      2.40997e+9 
           2455      2.38832e+9 
           2465      2.35949e+9 
           2475      2.33155e+9 
           2485      2.30361e+9 
           2495      2.17988e+9 
           2505       2.2492e+9 
           2513      2.19953e+9 
           2518       2.2094e+9 
           2525       2.1987e+9 
           2535      2.17576e+9 
           2545      2.12374e+9 
           2555      2.12337e+9 
           2565      2.09579e+9 
           2575      2.08591e+9 
           2585      2.06208e+9 
           2595      2.04012e+9 
           2605      2.02959e+9 
           2615      2.00815e+9 
           2625      1.98637e+9 
           2635      1.96025e+9 
           2645      1.94341e+9 
           2655      1.92201e+9 
           2665      1.89589e+9 
           2675      1.87727e+9 
           2685      1.86802e+9 
           2695      1.83156e+9 
           2705       1.8251e+9 
           2715      1.80693e+9 
           2725      1.77527e+9 
           2735      1.76886e+9 
           2745      1.74295e+9 
           2755      1.72759e+9 
           2765      1.70033e+9 
           2775      1.69788e+9 
           2785      1.67828e+9 
           2795      1.63095e+9 
           2805      1.63298e+9 
           2815      1.62825e+9 
           2825      1.59894e+9 
           2835      1.57719e+9 
           2845      1.57803e+9 
           2855      1.56071e+9 
           2865      1.54621e+9 
           2875      1.53041e+9 
           2885      1.51557e+9 
           2895      1.49941e+9 
           2910      1.47571e+9 
           2930      1.44559e+9 
           2950      1.40939e+9 
           2970      1.39008e+9 
           2990       1.3616e+9 
           3010      1.33342e+9 
           3030      1.31013e+9 
           3050      1.28511e+9 
           3070      1.26055e+9 
           3090      1.23043e+9 
           3110      1.21217e+9 
           3130      1.18969e+9 
           3150      1.16711e+9 
           3170      1.14456e+9 
           3190      1.11518e+9 
           3210       1.1025e+9 
           3230      1.08131e+9 
           3250      1.06162e+9 
           3270      1.04314e+9 
           3290      1.02256e+9 
           3310       1.0056e+9 
           3330      9.87272e+8 
           3350      9.67831e+8 
           3370      9.51999e+8 
           3390      9.35193e+8 
           3410      9.18651e+8 
           3430      8.97786e+8 
           3450       8.7883e+8 
           3470      8.66006e+8 
           3490      8.51655e+8 
           3510      8.41457e+8 
           3530      8.27596e+8 
           3550      8.13484e+8 
           3570      8.02592e+8 
           3590      7.84671e+8 
           3610      7.71838e+8 
           3630      7.58382e+8 
           3640       7.5641e+8 
           3650      7.41271e+8 
           3670      7.31284e+8 
           3690      7.06584e+8 
           3710      7.03803e+8 
           3730      7.03831e+8 
           3750      7.69667e+8 
           3770      7.67777e+8 
           3790      7.81149e+8 
           3810       8.0471e+8 
           3830      7.25265e+8 
           3850      8.06858e+8 
           3870      7.92729e+8 
           3890      6.96068e+8 
           3910      7.77406e+8 
           3930      7.57952e+8 
           3950       7.5172e+8 
           3970       6.4626e+8 
           3990      7.26122e+8 
           4010      7.13603e+8 
           4030      6.87122e+8 
           4050      6.94868e+8 
           4070       6.7955e+8 
           4090      6.54453e+8 
           4110      5.91273e+8 
           4130      6.42986e+8 
           4150      6.35053e+8 
           4170      6.28608e+8 
           4190      6.19853e+8 
           4210      6.10896e+8 
           4230      6.01069e+8 
           4250      5.90691e+8 
           4270      5.78951e+8 
           4290      5.72071e+8 
           4310      5.62353e+8 
           4330      5.35188e+8 
           4350      4.93645e+8 
           4370      5.36522e+8 
           4390      5.22457e+8 
           4410       5.2077e+8 
           4430      5.12316e+8 
           4450      5.06181e+8 
           4470       4.8654e+8 
           4490        4.904e+8 
           4510      4.84115e+8 
           4530      4.76784e+8 
           4550      4.69108e+8 
           4570      4.61818e+8 
           4590      4.55335e+8 
           4610       4.4884e+8 
           4630      4.42422e+8 
           4650      4.33468e+8 
           4670      4.29037e+8 
           4690      4.23365e+8 
           4710      4.12067e+8 
           4730      4.10914e+8 
           4750      4.04555e+8 
           4770      3.99978e+8 
           4790      3.94231e+8 
           4810      3.88321e+8 
           4830      3.82302e+8 
           4850      3.67657e+8 
           4870      3.34764e+8 
           4890      3.66471e+8 
           4910      3.61929e+8 
           4930      3.51559e+8 
           4950      3.51706e+8 
           4970      3.47234e+8 
           4990      3.42399e+8 
           5010      3.33877e+8 
           5030      3.33059e+8 
           5050      3.26437e+8 
           5070      3.24072e+8 
           5090       3.1964e+8 
           5110      3.15325e+8 
           5130      3.10953e+8 
           5150      3.06795e+8 
           5170      3.02805e+8 
           5190      2.98798e+8 
           5210      2.94648e+8 
           5230      2.90939e+8 
           5250        2.871e+8 
           5270      2.83298e+8 
           5290      2.79611e+8 
           5310      2.75932e+8 
           5330       2.7234e+8 
           5350      2.68742e+8 
           5370      2.65359e+8 
           5390      2.61889e+8 
           5410       2.5854e+8 
           5430       2.5517e+8 
           5450      2.51918e+8 
           5470       2.4872e+8 
           5490      2.45598e+8 
           5510      2.42491e+8 
           5530      2.39422e+8 
           5550      2.36415e+8 
           5570      2.33433e+8 
           5590      2.30536e+8 
           5610      2.27627e+8 
           5630      2.24836e+8 
           5650      2.21925e+8 
           5670      2.19132e+8 
           5690       2.1636e+8 
           5710        2.139e+8 
           5730      2.11308e+8 
           5750      2.08598e+8 
           5770      2.06216e+8 
           5790      2.03715e+8 
           5810      2.01243e+8 
           5830       1.9879e+8 
           5850       1.9642e+8 
           5870      1.89672e+8 
           5890      1.91568e+8 
           5910      1.89443e+8 
           5930      1.87171e+8 
           5950      1.84925e+8 
           5970      1.82811e+8 
           5990      1.80615e+8 
           6010      1.78529e+8 
           6030      1.76424e+8 
           6050      1.74385e+8 
           6070      1.72358e+8 
           6090      1.70355e+8 
           6110      1.68383e+8 
           6130      1.66444e+8 
           6150      1.64477e+8 
           6170      1.62631e+8 
           6190      1.60775e+8 
           6210       1.5895e+8 
           6230      1.57135e+8 
           6250       1.5534e+8 
           6270      1.53594e+8 
           6290      1.51866e+8 
           6310      1.50139e+8 
           6330      1.48468e+8 
           6350      1.46721e+8 
           6370      1.45133e+8 
           6390      1.43552e+8 
           6410      1.41961e+8 
           6430      1.40396e+8 
           6450      1.38847e+8 
           6470      1.37288e+8 
           6490       1.3579e+8 
           6510      1.34317e+8 
           6530      1.32771e+8 
           6550      1.29459e+8 
           6570        1.173e+8 
           6590      1.27962e+8 
           6610       1.2718e+8 
           6630      1.25822e+8 
           6650      1.24539e+8 
           6670      1.22336e+8 
           6690       1.2105e+8 
           6710      1.20606e+8 
           6730        1.193e+8 
           6750      1.18065e+8 
           6770      1.16817e+8 
           6790      1.15534e+8 
           6810      1.14361e+8 
           6830      1.13159e+8 
           6850      1.11985e+8 
           6870      1.10815e+8 
           6890      1.09657e+8 
           6910      1.08518e+8 
           6930      1.07391e+8 
           6950      1.06298e+8 
           6970      1.05208e+8 
           6990      1.04113e+8 
           7010       1.0306e+8 
           7030      1.02002e+8 
           7050      1.00961e+8 
           7070      9.84691e+7 
           7090      9.89261e+7 
           7110      9.79232e+7 
           7130      9.69374e+7 
           7150      9.59611e+7 
           7170      9.49795e+7 
           7190       9.4051e+7 
           7210      9.31096e+7 
           7230      9.18673e+7 
           7250      9.12536e+7 
           7270      9.03602e+7 
           7290      8.87876e+7 
           7310      8.85703e+7 
           7330       8.7716e+7 
           7350      8.68558e+7 
           7370      8.60035e+7 
           7390      8.51592e+7 
           7410      8.43297e+7 
           7430      8.35078e+7 
           7450      8.27138e+7 
           7470      8.18867e+7 
           7490      8.11209e+7 
           7510      8.03087e+7 
           7530      7.95704e+7 
           7550      7.88123e+7 
           7570      7.80546e+7 
           7590      7.73102e+7 
           7610      7.65661e+7 
           7630      7.58482e+7 
           7650      7.51302e+7 
           7670      7.44251e+7 
           7690      7.37136e+7 
           7710      7.30211e+7 
           7730      7.23411e+7 
           7750      7.16546e+7 
           7770       7.0943e+7 
           7790      7.03371e+7 
           7810      6.96253e+7 
           7830      6.90366e+7 
           7850       6.8459e+7 
           7870      6.78196e+7 
           7890      6.71373e+7 
           7910      6.65453e+7 
           7930      6.58326e+7 
           7950      6.52038e+7 
           7970      6.45745e+7 
           7990      6.40156e+7 
           8010      6.34321e+7 
           8030      6.28886e+7 
           8050      6.23556e+7 
           8070      6.18387e+7 
           8090      6.11476e+7 
           8110      6.06288e+7 
           8130      6.02111e+7 
           8150      5.95417e+7 
           8170      5.91545e+7 
           8190      5.85515e+7 
           8210      5.77971e+7 
           8230      5.74609e+7 
           8250      5.69667e+7 
           8270      5.61627e+7 
           8290      5.58811e+7 
           8310      5.54106e+7 
           8330      5.49168e+7 
           8350      5.41894e+7 
           8370      5.37699e+7 
           8390      5.33699e+7 
           8410      5.28618e+7 
           8430      5.23621e+7 
           8450      5.16819e+7 
           8470      5.10794e+7 
           8490      5.13225e+7 
           8510       4.9947e+7 
           8530      5.07274e+7 
           8550      4.83728e+7 
           8570       5.0652e+7 
