# Kurucz ODFNEW /NOVER (2003)
# teff = 20000 K (value for the effective temperature for the model. Temperatures are given in K)
# logg = 3.5 log(cm/s2) (value for Log(G) for the model.)
# meta = 0.5  (value for the Metallicity for the model.)
# lh = 1.25  (l/Hp where l is the  mixing length of the convective element and Hp is the pressure scale height)
# vtur = 2 km/s (Microturbulence velocity)
# alpha = 0  (Alpha)
#
# column 1: WAVELENGTH (ANGSTROM), Wavelength in Angstrom
# column 2: FLUX (ERG/CM2/S/A), Flux in erg/cm2/s/A
          147.2     2.05996e-20 
            151     1.23319e-19 
          155.2     8.07511e-19 
          158.8     3.74482e-18 
            162     1.38741e-17 
            166     6.66194e-17 
          170.3     3.31381e-16 
          173.4     1.01076e-15 
          176.8     3.27771e-15 
          180.2     1.01892e-14 
          181.7       1.658e-14 
          186.1     6.64975e-14 
            191     2.90759e-13 
          193.9     6.72372e-13 
          198.4      2.3589e-12 
          201.8     5.88093e-12 
            205     1.35381e-11 
          210.5     5.36311e-11 
          216.2      2.0819e-10 
          219.8     4.73703e-10 
            223     9.62713e-10 
          226.8      2.18026e-9 
            230      2.74087e-8 
            234       7.1643e-8 
            240      2.20171e-7 
          246.5      6.94406e-7 
          252.4      1.88756e-6 
          256.8      3.76043e-6 
            260      6.45901e-6 
            264      1.18695e-5 
          268.5      2.30117e-5 
          273.5      4.66189e-5 
          278.5      9.29799e-5 
            284     0.000197108 
            290     0.000420418 
            296     0.000869673 
            301       0.0015563 
            308      0.00345345 
            318       0.0101913 
            328       0.0270375 
            338       0.0703573 
            348         0.16947 
            357        0.432363 
            366        0.893086 
            375         1.70053 
            385         3.41846 
            395         6.69578 
            405         12.4821 
            414         21.4842 
            422         33.7416 
            430         52.9194 
            441         94.4608 
            451         154.847 
            460         236.275 
            470          375.57 
            480          579.45 
            490         884.945 
            500         1321.21 
            506         7273.39 
            512          143610 
            520          179782 
            530          249387 
            540          286953 
            550          463147 
            560          568314 
            570          754815 
            580          746280 
            590      1.07293e+6 
            600      1.36711e+6 
            610      1.75264e+6 
            620       2.0036e+6 
            630      2.29711e+6 
            640        2.291e+6 
            650      1.77709e+6 
            658       3.0033e+6 
            665      3.61647e+6 
            675      4.02473e+6 
            685      4.31546e+6 
            695      5.68855e+6 
            705      6.10597e+6 
            716      7.08932e+6 
            726      7.70647e+6 
            735      8.29994e+6 
            745      9.80063e+6 
            755      1.09544e+7 
            765      1.22483e+7 
            775       1.3646e+7 
            785      1.50111e+7 
            795      1.60765e+7 
            805      1.72603e+7 
            815       1.8513e+7 
            825      2.07188e+7 
            835      1.94199e+7 
            845      2.27518e+7 
            855      2.40903e+7 
            865      2.65016e+7 
            875      2.90455e+7 
            885      3.24539e+7 
            895      3.48762e+7 
            905      3.39897e+7 
            915      6.70776e+7 
            925      6.42262e+8 
            935      1.65761e+9 
            945      3.39249e+9 
            955      5.05803e+9 
            965      4.91855e+9 
            975      6.65857e+8 
            985      3.30932e+9 
            995      4.49438e+9 
           1005      6.62169e+9 
           1015      6.82024e+9 
           1025      3.60549e+9 
           1035      4.04855e+9 
           1045      9.32073e+9 
           1055      8.76545e+9 
           1065      6.02515e+9 
           1075      8.16262e+9 
           1085       6.5843e+9 
           1095      8.51347e+9 
           1105      6.94698e+9 
           1115      5.95052e+9 
           1125      4.91977e+9 
           1135      7.96989e+9 
           1145       6.9037e+9 
           1155      7.49491e+9 
           1165      7.49975e+9 
           1175      4.04801e+9 
           1185      7.47194e+9 
           1195      5.21212e+9 
           1205      1.92967e+9 
           1215      2.67447e+9 
           1225      6.06232e+9 
           1235      8.20803e+9 
           1245      8.07476e+9 
           1255      7.91789e+9 
           1265      7.59992e+9 
           1275      8.01928e+9 
           1285      8.26251e+9 
           1295      3.95706e+9 
           1305      4.09087e+9 
           1315      7.75495e+9 
           1325      7.10016e+9 
           1335      6.09434e+9 
           1345      7.49721e+9 
           1355      7.16166e+9 
           1365      5.98772e+9 
           1375      6.00256e+9 
           1385      5.89499e+9 
           1395      4.18675e+9 
           1405      4.64474e+9 
           1415      4.95658e+9 
           1425      5.24828e+9 
           1435      5.43188e+9 
           1442       5.6918e+9 
           1447      5.56923e+9 
           1455      5.37256e+9 
           1465      4.78024e+9 
           1475      5.01729e+9 
           1485      4.98684e+9 
           1495      4.88394e+9 
           1505      4.30531e+9 
           1512      3.70592e+9 
           1517      3.94935e+9 
           1525      4.17045e+9 
           1535        3.447e+9 
           1545      3.42462e+9 
           1555      3.36436e+9 
           1565      3.59883e+9 
           1575      3.87387e+9 
           1585      4.03463e+9 
           1595      3.95281e+9 
           1605      4.10713e+9 
           1615      4.12966e+9 
           1625      3.90779e+9 
           1635      4.32054e+9 
           1645       4.2917e+9 
           1655      4.06793e+9 
           1665      4.43151e+9 
           1672      4.19302e+9 
           1677       4.4424e+9 
           1685      4.52769e+9 
           1695      4.15723e+9 
           1705      4.02774e+9 
           1715      3.69028e+9 
           1725       3.6875e+9 
           1735      3.98828e+9 
           1745      3.79485e+9 
           1755      3.93899e+9 
           1765      3.74344e+9 
           1775      3.54689e+9 
           1785      3.70625e+9 
           1795      3.97913e+9 
           1805      4.07565e+9 
           1815      3.37306e+9 
           1825      3.66004e+9 
           1835      3.45299e+9 
           1845      3.08376e+9 
           1855      2.90838e+9 
           1865      3.02826e+9 
           1875      3.52434e+9 
           1885      2.99997e+9 
           1895      2.74756e+9 
           1905      3.16776e+9 
           1915      2.78076e+9 
           1925      2.68902e+9 
           1935       2.9551e+9 
           1945       2.9934e+9 
           1955      2.65621e+9 
           1967      3.05378e+9 
           1976      3.16979e+9 
           1984      2.91391e+9 
           1995       2.8281e+9 
           2005      3.07051e+9 
           2015      2.92098e+9 
           2025      3.12573e+9 
           2035      2.76532e+9 
           2045      2.91337e+9 
           2055      2.77795e+9 
           2065      2.73786e+9 
           2074      3.00518e+9 
           2078      2.56935e+9 
           2085      2.82961e+9 
           2095      2.62971e+9 
           2105      2.73631e+9 
           2115      2.77753e+9 
           2125      2.79634e+9 
           2135      2.70111e+9 
           2145      2.58772e+9 
           2155      2.73793e+9 
           2165      2.73729e+9 
           2175      2.71424e+9 
           2185      2.55507e+9 
           2195      2.65899e+9 
           2205      2.63895e+9 
           2215      2.54323e+9 
           2225      2.45193e+9 
           2235      2.49973e+9 
           2245      2.50972e+9 
           2255      2.36994e+9 
           2265      2.47088e+9 
           2275      2.45831e+9 
           2285      2.48569e+9 
           2295        2.254e+9 
           2305       2.3585e+9 
           2315      2.23701e+9 
           2325      2.19237e+9 
           2335       2.0798e+9 
           2345      2.10334e+9 
           2355       2.1277e+9 
           2365      2.07735e+9 
           2375      2.06771e+9 
           2385      2.01855e+9 
           2395      2.07371e+9 
           2405      1.96851e+9 
           2415      2.01425e+9 
           2425      2.02637e+9 
           2435       1.9285e+9 
           2445      1.99392e+9 
           2455      1.98996e+9 
           2465      1.94372e+9 
           2475      1.89182e+9 
           2485      1.91835e+9 
           2495      1.73579e+9 
           2505       1.8816e+9 
           2513      1.75104e+9 
           2518      1.86032e+9 
           2525      1.78472e+9 
           2535      1.77349e+9 
           2545      1.68361e+9 
           2555      1.76072e+9 
           2565      1.73671e+9 
           2575      1.78523e+9 
           2585      1.76412e+9 
           2595      1.75212e+9 
           2605      1.72997e+9 
           2615      1.70812e+9 
           2625      1.70131e+9 
           2635      1.70095e+9 
           2645      1.70615e+9 
           2655      1.71134e+9 
           2665       1.6155e+9 
           2675      1.65431e+9 
           2685      1.63568e+9 
           2695      1.57548e+9 
           2705      1.54831e+9 
           2715      1.54398e+9 
           2725      1.54129e+9 
           2735      1.55477e+9 
           2745      1.47441e+9 
           2755      1.47549e+9 
           2765      1.47647e+9 
           2775      1.50543e+9 
           2785      1.48482e+9 
           2795      1.41736e+9 
           2805      1.44888e+9 
           2815      1.45382e+9 
           2825      1.43835e+9 
           2835      1.35215e+9 
           2845      1.36235e+9 
           2855      1.35508e+9 
           2865      1.38181e+9 
           2875      1.36077e+9 
           2885      1.34882e+9 
           2895      1.32671e+9 
           2910      1.31725e+9 
           2930      1.29454e+9 
           2950      1.25462e+9 
           2970      1.24257e+9 
           2990      1.21804e+9 
           3010      1.18203e+9 
           3030      1.18765e+9 
           3050      1.16439e+9 
           3070      1.14563e+9 
           3090      1.10804e+9 
           3110      1.09816e+9 
           3130      1.07779e+9 
           3150      1.06164e+9 
           3170      1.03119e+9 
           3190      1.00808e+9 
           3210      9.99654e+8 
           3230      9.81066e+8 
           3250      9.67174e+8 
           3270      9.48086e+8 
           3290      9.30434e+8 
           3310      9.16267e+8 
           3330       8.9748e+8 
           3350      8.81357e+8 
           3370      8.65487e+8 
           3390      8.53174e+8 
           3410      8.39178e+8 
           3430      8.19461e+8 
           3450      8.02961e+8 
           3470      7.90416e+8 
           3490      7.76124e+8 
           3510      7.65256e+8 
           3530      7.56518e+8 
           3550      7.43863e+8 
           3570      7.34163e+8 
           3590      7.11331e+8 
           3610       6.9928e+8 
           3630      6.93054e+8 
           3640      6.93061e+8 
           3650      6.82793e+8 
           3670      6.75959e+8 
           3690      6.56062e+8 
           3710      6.39702e+8 
           3730      6.28853e+8 
           3750      6.98165e+8 
           3770      7.01592e+8 
           3790      7.32918e+8 
           3810      7.64535e+8 
           3830      6.67146e+8 
           3850      7.69573e+8 
           3870      7.59903e+8 
           3890      6.35696e+8 
           3910       7.6198e+8 
           3930      7.29096e+8 
           3950      7.29676e+8 
           3970      5.89849e+8 
           3990      7.02459e+8 
           4010      6.98515e+8 
           4030      6.59889e+8 
           4050      6.75828e+8 
           4070      6.44776e+8 
           4090      6.14051e+8 
           4110      5.45666e+8 
           4130      6.14605e+8 
           4150      6.10314e+8 
           4170      6.08221e+8 
           4190      6.05047e+8 
           4210      5.99928e+8 
           4230      5.86289e+8 
           4250      5.71252e+8 
           4270      5.52194e+8 
           4290      5.51049e+8 
           4310       5.3465e+8 
           4330      4.95524e+8 
           4350      4.54245e+8 
           4370      5.06616e+8 
           4390      5.04024e+8 
           4410       5.0229e+8 
           4430      4.94847e+8 
           4450       4.9176e+8 
           4470      4.69665e+8 
           4490      4.74423e+8 
           4510      4.73428e+8 
           4530      4.63327e+8 
           4550      4.58681e+8 
           4570      4.51627e+8 
           4590      4.44481e+8 
           4610      4.33294e+8 
           4630      4.26219e+8 
           4650      4.16829e+8 
           4670      4.16185e+8 
           4690      4.13722e+8 
           4710      3.95527e+8 
           4730      3.95321e+8 
           4750      3.90079e+8 
           4770      3.92278e+8 
           4790      3.83969e+8 
           4810      3.74741e+8 
           4830      3.69755e+8 
           4850      3.49543e+8 
           4870      3.11112e+8 
           4890      3.55601e+8 
           4910      3.51475e+8 
           4930      3.39081e+8 
           4950       3.4142e+8 
           4970      3.39044e+8 
           4990      3.32776e+8 
           5010      3.15551e+8 
           5030      3.21608e+8 
           5050      3.12374e+8 
           5070      3.14179e+8 
           5090      3.09258e+8 
           5110      3.03134e+8 
           5130      2.94634e+8 
           5150      2.92563e+8 
           5170      2.92784e+8 
           5190       2.8905e+8 
           5210       2.8138e+8 
           5230      2.80816e+8 
           5250      2.77615e+8 
           5270      2.72798e+8 
           5290      2.70915e+8 
           5310      2.66553e+8 
           5330      2.62673e+8 
           5350      2.58304e+8 
           5370       2.5688e+8 
           5390      2.53318e+8 
           5410      2.50058e+8 
           5430      2.45728e+8 
           5450      2.42811e+8 
           5470      2.39302e+8 
           5490      2.37061e+8 
           5510      2.34475e+8 
           5530      2.30835e+8 
           5550      2.28881e+8 
           5570      2.25553e+8 
           5590      2.23266e+8 
           5610      2.19906e+8 
           5630      2.18013e+8 
           5650      2.11787e+8 
           5670       2.0882e+8 
           5690      2.06959e+8 
           5710      2.06101e+8 
           5730      2.03896e+8 
           5750      2.00964e+8 
           5770      1.99472e+8 
           5790      1.96804e+8 
           5810      1.94391e+8 
           5830       1.9153e+8 
           5850      1.89573e+8 
           5870      1.82062e+8 
           5890      1.82457e+8 
           5910      1.81957e+8 
           5930      1.79682e+8 
           5950      1.76657e+8 
           5970      1.76553e+8 
           5990       1.7335e+8 
           6010      1.72313e+8 
           6030      1.69793e+8 
           6050      1.67983e+8 
           6070      1.66326e+8 
           6090      1.64169e+8 
           6110       1.6244e+8 
           6130       1.6077e+8 
           6150      1.57146e+8 
           6170      1.56406e+8 
           6190      1.55073e+8 
           6210      1.53401e+8 
           6230      1.51641e+8 
           6250      1.48994e+8 
           6270      1.47835e+8 
           6290      1.46287e+8 
           6310      1.44348e+8 
           6330      1.43174e+8 
           6350      1.40433e+8 
           6370      1.39414e+8 
           6390      1.38072e+8 
           6410      1.36606e+8 
           6430      1.35475e+8 
           6450      1.33704e+8 
           6470      1.31798e+8 
           6490      1.30442e+8 
           6510       1.2909e+8 
           6530      1.27276e+8 
           6550      1.22584e+8 
           6570      1.07734e+8 
           6590      1.21369e+8 
           6610      1.22127e+8 
           6630      1.21092e+8 
           6650      1.19802e+8 
           6670      1.17459e+8 
           6690      1.16295e+8 
           6710      1.16063e+8 
           6730      1.14567e+8 
           6750      1.13682e+8 
           6770       1.1251e+8 
           6790      1.09748e+8 
           6810      1.09738e+8 
           6830      1.08661e+8 
           6850      1.07746e+8 
           6870      1.06625e+8 
           6890      1.05427e+8 
           6910      1.04297e+8 
           6930        1.031e+8 
           6950      1.02258e+8 
           6970       1.0123e+8 
           6990      1.00111e+8 
           7010      9.90503e+7 
           7030      9.80454e+7 
           7050      9.68684e+7 
           7070      9.43012e+7 
           7090      9.49616e+7 
           7110      9.24905e+7 
           7130       9.1713e+7 
           7150      9.19744e+7 
           7170      9.12495e+7 
           7190      9.04219e+7 
           7210      8.95006e+7 
           7230      8.68008e+7 
           7250      8.75123e+7 
           7270      8.68248e+7 
           7290      8.52573e+7 
           7310      8.50876e+7 
           7330      8.42242e+7 
           7350      8.34736e+7 
           7370      8.26535e+7 
           7390      8.18343e+7 
           7410      8.10363e+7 
           7430      8.00684e+7 
           7450      7.93879e+7 
           7470      7.82815e+7 
           7490      7.77901e+7 
           7510      7.70223e+7 
           7530      7.62416e+7 
           7550      7.56466e+7 
           7570       7.4945e+7 
           7590      7.41582e+7 
           7610      7.34762e+7 
           7630      7.27873e+7 
           7650      7.21111e+7 
           7670      7.14282e+7 
           7690      7.07322e+7 
           7710      7.00679e+7 
           7730      6.93716e+7 
           7750      6.87568e+7 
           7770      6.73737e+7 
           7790      6.74876e+7 
           7810      6.68089e+7 
           7830      6.62468e+7 
           7850      6.54267e+7 
           7870      6.48452e+7 
           7890      6.39904e+7 
           7910      6.37033e+7 
           7930      6.31068e+7 
           7950      6.22413e+7 
           7970       6.1876e+7 
           7990      6.10001e+7 
           8010      6.07781e+7 
           8030      6.02186e+7 
           8050      5.96872e+7 
           8070      5.92182e+7 
           8090      5.85516e+7 
           8110      5.79768e+7 
           8130      5.76406e+7 
           8150      5.70518e+7 
           8170      5.66825e+7 
           8190      5.59707e+7 
           8210       5.5306e+7 
           8230      5.47288e+7 
           8250      5.46282e+7 
           8270      5.37011e+7 
           8290        5.357e+7 
           8310      5.31106e+7 
           8330      5.26995e+7 
           8350      5.19519e+7 
           8370      5.15641e+7 
           8390      5.12773e+7 
           8410      5.07754e+7 
           8430      5.02453e+7 
           8450      4.91937e+7 
           8470      4.91223e+7 
           8490      4.89889e+7 
           8510      4.79338e+7 
           8530      4.84689e+7 
           8550      4.62599e+7 
           8570      4.84766e+7 
