# Kurucz ODFNEW /NOVER (2003)
# teff = 22000 K (value for the effective temperature for the model. Temperatures are given in K)
# logg = 5 log(cm/s2) (value for Log(G) for the model.)
# meta = -2  (value for the Metallicity for the model.)
# lh = 1.25  (l/Hp where l is the  mixing length of the convective element and Hp is the pressure scale height)
# vtur = 2 km/s (Microturbulence velocity)
# alpha = 0  (Alpha)
#
# column 1: WAVELENGTH (ANGSTROM), Wavelength in Angstrom
# column 2: FLUX (ERG/CM2/S/A), Flux in erg/cm2/s/A
          147.2     6.36505e-18 
            151     3.67609e-17 
          155.2     2.32212e-16 
          158.8     1.04621e-15 
            162     3.78021e-15 
            166     1.76115e-14 
          170.3     8.51529e-14 
          173.4     2.52969e-13 
          176.8     8.00167e-13 
          180.2     2.42556e-12 
          181.7     3.90504e-12 
          186.1     1.51156e-11 
            191     6.34526e-11 
          193.9     1.43278e-10 
          198.4     4.83945e-10 
          201.8      1.17145e-9 
            205      2.62101e-9 
          210.5      9.86752e-9 
          216.2      3.62783e-8 
          219.8      7.97017e-8 
            223       1.5696e-7 
          226.8      3.42188e-7 
            230      9.22239e-7 
            234      2.09968e-6 
            240      6.21604e-6 
          246.5      1.88823e-5 
          252.4      4.92956e-5 
          256.8      9.71383e-5 
            260     0.000158421 
            264     0.000284817 
          268.5     0.000538713 
          273.5      0.00106604 
          278.5       0.0020585 
            284      0.00412653 
            290      0.00853666 
            296       0.0171097 
            301       0.0298923 
            308       0.0629484 
            318        0.173374 
            328        0.445594 
            338         1.07914 
            348         2.47607 
            357         5.00852 
            366         9.76528 
            375         18.3871 
            385         35.7807 
            395         67.1244 
            405          121.75 
            414          202.57 
            422         312.157 
            430         472.572 
            441         813.738 
            451         1300.01 
            460            1944 
            470         2979.56 
            480         4476.77 
            490         6603.36 
            500         9570.28 
            506         57478.5 
            512          179667 
            520          229980 
            530          328716 
            540          372427 
            550          523872 
            560          644789 
            570          796674 
            580          841751 
            590      1.11623e+6 
            600      1.39568e+6 
            610      1.66678e+6 
            620      1.96587e+6 
            630      2.31438e+6 
            640      2.68043e+6 
            650      3.13849e+6 
            658      3.53154e+6 
            665       3.8941e+6 
            675      4.43815e+6 
            685      5.04929e+6 
            695      5.81022e+6 
            705      6.57045e+6 
            716      7.48453e+6 
            726      8.39764e+6 
            735      9.31599e+6 
            745      1.04041e+7 
            755      1.15717e+7 
            765      1.28097e+7 
            775      1.41641e+7 
            785      1.55986e+7 
            795      1.71125e+7 
            805      1.87358e+7 
            815      2.04431e+7 
            825       2.2283e+7 
            835      2.39603e+7 
            845      2.61987e+7 
            855      2.82403e+7 
            865      3.05683e+7 
            875       3.2915e+7 
            885      3.53952e+7 
            895      3.79427e+7 
            905      4.01961e+7 
            915      5.92976e+7 
            925      2.20325e+8 
            935      5.78868e+8 
            945       2.8548e+9 
            955      7.51869e+9 
            965     1.10172e+10 
            975      3.11862e+9 
            985     1.89168e+10 
            995     2.11047e+10 
           1005      2.1504e+10 
           1015     1.46947e+10 
           1025      1.66523e+9 
           1035     1.18615e+10 
           1045     2.05675e+10 
           1055     2.11221e+10 
           1065     1.97515e+10 
           1075     2.04266e+10 
           1085     1.88911e+10 
           1095     1.97444e+10 
           1105      1.8763e+10 
           1115     1.85112e+10 
           1125     1.74776e+10 
           1135     1.76792e+10 
           1145     1.67284e+10 
           1155     1.68957e+10 
           1165     1.65245e+10 
           1175      1.4572e+10 
           1185     1.54018e+10 
           1195     1.34494e+10 
           1205      8.96922e+9 
           1215      1.38583e+9 
           1225      7.84426e+9 
           1235     1.25728e+10 
           1245     1.32108e+10 
           1255     1.31119e+10 
           1265     1.28774e+10 
           1275     1.28954e+10 
           1285     1.26505e+10 
           1295     1.17699e+10 
           1305     1.15853e+10 
           1315     1.18651e+10 
           1325     1.14511e+10 
           1335     1.09589e+10 
           1345     1.10839e+10 
           1355     1.09188e+10 
           1365     1.06236e+10 
           1375     1.04276e+10 
           1385     1.02371e+10 
           1395       9.8262e+9 
           1405      9.72671e+9 
           1415      9.62057e+9 
           1425       9.4684e+9 
           1435      9.28859e+9 
           1442      9.18867e+9 
           1447      9.09127e+9 
           1455      8.94424e+9 
           1465      8.75041e+9 
           1475      8.59198e+9 
           1485      8.41259e+9 
           1495      8.26419e+9 
           1505      8.05327e+9 
           1512      7.93669e+9 
           1517      7.89183e+9 
           1525      7.75822e+9 
           1535      7.51005e+9 
           1545      7.45591e+9 
           1555      7.26155e+9 
           1565      7.20873e+9 
           1575      7.11475e+9 
           1585      6.99031e+9 
           1595      6.88265e+9 
           1605      6.69376e+9 
           1615      6.57674e+9 
           1625      6.51616e+9 
           1635      6.42176e+9 
           1645      6.27292e+9 
           1655       6.1884e+9 
           1665      6.12149e+9 
           1672      5.95418e+9 
           1677      6.00031e+9 
           1685      5.91985e+9 
           1695      5.80667e+9 
           1705      5.69314e+9 
           1715      5.58096e+9 
           1725      5.48935e+9 
           1735      5.42575e+9 
           1745      5.32861e+9 
           1755      5.26732e+9 
           1765      5.08614e+9 
           1775      5.07527e+9 
           1785      5.00686e+9 
           1795       4.9448e+9 
           1805      4.87282e+9 
           1815      4.78187e+9 
           1825      4.71762e+9 
           1835      4.64128e+9 
           1845      4.52448e+9 
           1855      4.40095e+9 
           1865       4.3607e+9 
           1875      4.35557e+9 
           1885       4.2307e+9 
           1895      4.12658e+9 
           1905      4.14171e+9 
           1915      4.02748e+9 
           1925      3.96714e+9 
           1935      3.94063e+9 
           1945      3.91694e+9 
           1955      3.80049e+9 
           1967      3.79447e+9 
           1976      3.76809e+9 
           1984       3.6924e+9 
           1995      3.59992e+9 
           2005      3.60112e+9 
           2015      3.56481e+9 
           2025      3.52528e+9 
           2035      3.46097e+9 
           2045      3.41307e+9 
           2055      3.32863e+9 
           2065      3.29886e+9 
           2074       3.2977e+9 
           2078      3.23808e+9 
           2085      3.23336e+9 
           2095      3.16987e+9 
           2105      3.15079e+9 
           2115      3.11601e+9 
           2125      3.08233e+9 
           2135      3.03856e+9 
           2145        2.994e+9 
           2155      2.95955e+9 
           2165      2.92006e+9 
           2175      2.88092e+9 
           2185      2.84554e+9 
           2195       2.8113e+9 
           2205      2.77354e+9 
           2215      2.73765e+9 
           2225      2.70062e+9 
           2235      2.66866e+9 
           2245       2.6359e+9 
           2255      2.60072e+9 
           2265      2.57046e+9 
           2275      2.53758e+9 
           2285      2.50777e+9 
           2295      2.46493e+9 
           2305      2.44465e+9 
           2315      2.41303e+9 
           2325      2.38479e+9 
           2335      2.35101e+9 
           2345      2.31654e+9 
           2355      2.29752e+9 
           2365      2.26507e+9 
           2375      2.24082e+9 
           2385       2.2073e+9 
           2395      2.18398e+9 
           2405      2.15882e+9 
           2415      2.13297e+9 
           2425      2.11298e+9 
           2435      2.08588e+9 
           2445      2.06173e+9 
           2455      2.03997e+9 
           2465      2.01421e+9 
           2475      1.99176e+9 
           2485       1.9688e+9 
           2495      1.93381e+9 
           2505      1.92338e+9 
           2513      1.89887e+9 
           2518      1.89543e+9 
           2525       1.8785e+9 
           2535      1.85474e+9 
           2545      1.83455e+9 
           2555      1.81779e+9 
           2565      1.79569e+9 
           2575      1.77762e+9 
           2585      1.75752e+9 
           2595       1.7374e+9 
           2605      1.72836e+9 
           2615      1.71098e+9 
           2625      1.69327e+9 
           2635      1.67317e+9 
           2645      1.65726e+9 
           2655      1.63678e+9 
           2665      1.61418e+9 
           2675      1.59418e+9 
           2685      1.58803e+9 
           2695      1.55686e+9 
           2705      1.55371e+9 
           2715      1.53657e+9 
           2725      1.50527e+9 
           2735      1.50425e+9 
           2745      1.48246e+9 
           2755       1.4679e+9 
           2765      1.44178e+9 
           2775      1.44188e+9 
           2785      1.42625e+9 
           2795      1.39508e+9 
           2805      1.38994e+9 
           2815      1.38255e+9 
           2825      1.35074e+9 
           2835      1.34048e+9 
           2845      1.33968e+9 
           2855      1.32611e+9 
           2865      1.31283e+9 
           2875      1.29924e+9 
           2885      1.28609e+9 
           2895      1.27304e+9 
           2910      1.25376e+9 
           2930      1.22824e+9 
           2950      1.19337e+9 
           2970      1.18038e+9 
           2990      1.15693e+9 
           3010       1.1345e+9 
           3030      1.11256e+9 
           3050      1.09101e+9 
           3070      1.07004e+9 
           3090      1.04949e+9 
           3110      1.02961e+9 
           3130      1.01122e+9 
           3150      9.92159e+8 
           3170       9.7353e+8 
           3190       9.4622e+8 
           3210      9.37317e+8 
           3230       9.1986e+8 
           3250      9.02902e+8 
           3270      8.87382e+8 
           3290      8.70187e+8 
           3310      8.55645e+8 
           3330      8.40336e+8 
           3350      8.23988e+8 
           3370       8.1072e+8 
           3390      7.96429e+8 
           3410      7.82449e+8 
           3430      7.66338e+8 
           3450      7.50737e+8 
           3470      7.39636e+8 
           3490      7.26977e+8 
           3510      7.15199e+8 
           3530      7.03974e+8 
           3550      6.92088e+8 
           3570      6.84326e+8 
           3590      6.68128e+8 
           3610      6.59503e+8 
           3630      6.46194e+8 
           3640      6.45435e+8 
           3650      6.37011e+8 
           3670      6.29388e+8 
           3690      6.19181e+8 
           3710      5.99029e+8 
           3730      5.72964e+8 
           3750      5.77183e+8 
           3770       5.6914e+8 
           3790      6.10961e+8 
           3810      6.49644e+8 
           3830      5.52552e+8 
           3850      6.85903e+8 
           3870      7.16789e+8 
           3890       5.1378e+8 
           3910      7.10109e+8 
           3930      7.21169e+8 
           3950      6.91115e+8 
           3970      4.80757e+8 
           3990      6.57143e+8 
           4010      6.76141e+8 
           4030      6.22636e+8 
           4050      6.67513e+8 
           4070      6.48597e+8 
           4090      5.54011e+8 
           4110      4.67497e+8 
           4130      6.02501e+8 
           4150      6.06814e+8 
           4170      6.05492e+8 
           4190      5.98609e+8 
           4210      5.89641e+8 
           4230       5.7993e+8 
           4250      5.69688e+8 
           4270       5.5862e+8 
           4290      5.48162e+8 
           4310      5.30168e+8 
           4330      4.44285e+8 
           4350      3.99177e+8 
           4370      5.01112e+8 
           4390      4.83166e+8 
           4410      4.99114e+8 
           4430      4.89549e+8 
           4450      4.84207e+8 
           4470      4.43137e+8 
           4490       4.6848e+8 
           4510      4.63519e+8 
           4530       4.5637e+8 
           4550      4.49364e+8 
           4570      4.42499e+8 
           4590      4.35772e+8 
           4610      4.29163e+8 
           4630      4.22669e+8 
           4650      4.16236e+8 
           4670      4.10087e+8 
           4690       4.0396e+8 
           4710      3.91196e+8 
           4730      3.91903e+8 
           4750      3.86005e+8 
           4770      3.80225e+8 
           4790      3.73723e+8 
           4810      3.66648e+8 
           4830      3.55189e+8 
           4850      3.06797e+8 
           4870      2.68701e+8 
           4890      3.35955e+8 
           4910      3.39161e+8 
           4930      3.24852e+8 
           4950      3.33195e+8 
           4970      3.29253e+8 
           4990      3.24606e+8 
           5010       3.1465e+8 
           5030      3.15429e+8 
           5050      3.08622e+8 
           5070      3.06837e+8 
           5090      3.02583e+8 
           5110      2.98402e+8 
           5130      2.94304e+8 
           5150      2.90262e+8 
           5170      2.86301e+8 
           5190      2.82406e+8 
           5210      2.78535e+8 
           5230      2.74811e+8 
           5250      2.71109e+8 
           5270      2.67468e+8 
           5290      2.63901e+8 
           5310       2.6038e+8 
           5330      2.56918e+8 
           5350      2.53513e+8 
           5370      2.50178e+8 
           5390      2.46899e+8 
           5410      2.43661e+8 
           5430      2.40464e+8 
           5450      2.37345e+8 
           5470      2.34265e+8 
           5490      2.31249e+8 
           5510      2.28258e+8 
           5530      2.25341e+8 
           5550       2.2246e+8 
           5570      2.19615e+8 
           5590      2.16828e+8 
           5610      2.14076e+8 
           5630      2.11381e+8 
           5650      2.08696e+8 
           5670      2.06089e+8 
           5690      2.03514e+8 
           5710      2.00982e+8 
           5730      1.98491e+8 
           5750       1.9603e+8 
           5770       1.9361e+8 
           5790       1.9123e+8 
           5810      1.88878e+8 
           5830      1.86575e+8 
           5850      1.84289e+8 
           5870      1.74726e+8 
           5890      1.79112e+8 
           5910      1.77675e+8 
           5930      1.75536e+8 
           5950      1.73432e+8 
           5970      1.71363e+8 
           5990      1.69307e+8 
           6010      1.67306e+8 
           6030      1.65318e+8 
           6050      1.63362e+8 
           6070      1.61438e+8 
           6090      1.59547e+8 
           6110      1.57677e+8 
           6130      1.55837e+8 
           6150      1.54029e+8 
           6170       1.5224e+8 
           6190      1.50481e+8 
           6210      1.48742e+8 
           6230      1.47031e+8 
           6250      1.45349e+8 
           6270      1.43685e+8 
           6290      1.42049e+8 
           6310      1.40431e+8 
           6330      1.38849e+8 
           6350      1.37247e+8 
           6370      1.35718e+8 
           6390      1.34206e+8 
           6410        1.327e+8 
           6430       1.3122e+8 
           6450      1.29765e+8 
           6470      1.28307e+8 
           6490      1.26551e+8 
           6510      1.24779e+8 
           6530      1.22081e+8 
           6550      1.12354e+8 
           6570      9.79769e+7 
           6590      1.16259e+8 
           6610      1.17764e+8 
           6630      1.17055e+8 
           6650       1.1602e+8 
           6670       1.1331e+8 
           6690      1.12212e+8 
           6710      1.12573e+8 
           6730      1.11373e+8 
           6750      1.10177e+8 
           6770      1.09009e+8 
           6790      1.07845e+8 
           6810      1.06708e+8 
           6830      1.05584e+8 
           6850       1.0447e+8 
           6870      1.03368e+8 
           6890      1.02285e+8 
           6910       1.0122e+8 
           6930      1.00166e+8 
           6950      9.91223e+7 
           6970      9.80967e+7 
           6990      9.70813e+7 
           7010      9.60834e+7 
           7030      9.50954e+7 
           7050       9.4117e+7 
           7070      9.15352e+7 
           7090      9.22036e+7 
           7110      9.12683e+7 
           7130       9.0342e+7 
           7150      8.94246e+7 
           7170      8.85161e+7 
           7190      8.76308e+7 
           7210       8.6754e+7 
           7230      8.58423e+7 
           7250      8.50253e+7 
           7270      8.41803e+7 
           7290      8.26487e+7 
           7310      8.25072e+7 
           7330         8.17e+7 
           7350      8.08934e+7 
           7370      8.01012e+7 
           7390      7.93164e+7 
           7410      7.85389e+7 
           7430      7.77686e+7 
           7450      7.70258e+7 
           7470      7.62764e+7 
           7490      7.55338e+7 
           7510      7.47847e+7 
           7530      7.40823e+7 
           7550      7.33731e+7 
           7570      7.26638e+7 
           7590       7.1974e+7 
           7610      7.12839e+7 
           7630      7.06066e+7 
           7650      6.99353e+7 
           7670      6.92701e+7 
           7690      6.86172e+7 
           7710      6.79701e+7 
           7730      6.73288e+7 
           7750      6.66933e+7 
           7770      6.60571e+7 
           7790      6.54514e+7 
           7810       6.4814e+7 
           7830      6.42375e+7 
           7850      6.36966e+7 
           7870      6.31056e+7 
           7890      6.25138e+7 
           7910      6.19512e+7 
           7930      6.13815e+7 
           7950      6.08167e+7 
           7970      6.02332e+7 
           7990      5.97077e+7 
           8010      5.91692e+7 
           8030      5.86295e+7 
           8050      5.80763e+7 
           8070      5.75505e+7 
           8090      5.69612e+7 
           8110      5.64836e+7 
           8130      5.59968e+7 
           8150      5.54489e+7 
           8170      5.49989e+7 
           8190      5.44442e+7 
           8210      5.38824e+7 
           8230      5.35108e+7 
           8250      5.30573e+7 
           8270      5.24176e+7 
           8290      5.21261e+7 
           8310      5.16982e+7 
           8330      5.12222e+7 
           8350      5.05957e+7 
           8370      5.02902e+7 
           8390       4.9919e+7 
           8410      4.94822e+7 
           8430       4.9025e+7 
           8450      4.83447e+7 
           8470      4.81655e+7 
           8490      4.76619e+7 
           8510       4.7268e+7 
           8530      4.68131e+7 
           8550      4.61893e+7 
           8570      4.62545e+7 
           8590      4.48697e+7 
