# Kurucz ODFNEW /NOVER (2003)
# teff = 29000 K (value for the effective temperature for the model. Temperatures are given in K)
# logg = 3.5 log(cm/s2) (value for Log(G) for the model.)
# meta = -1  (value for the Metallicity for the model.)
# lh = 1.25  (l/Hp where l is the  mixing length of the convective element and Hp is the pressure scale height)
# vtur = 2 km/s (Microturbulence velocity)
# alpha = 0.4  (Alpha)
#
# column 1: WAVELENGTH (ANGSTROM), Wavelength in Angstrom
# column 2: FLUX (ERG/CM2/S/A), Flux in erg/cm2/s/A
          147.2       1.7212e-9 
            151      5.87011e-9 
          155.2      2.12505e-8 
          158.8      6.06727e-8 
            162      1.48358e-7 
            166      4.32071e-7 
          170.3      1.28807e-6 
          173.4      2.73768e-6 
          176.8       6.0679e-6 
          180.2      1.30426e-5 
          181.7      1.81159e-5 
          186.1      4.60431e-5 
            191      0.00012358 
          193.9     0.000216425 
          198.4     0.000499632 
          201.8     0.000916253 
            205      0.00159109 
          210.5      0.00395151 
          216.2      0.00964342 
          219.8       0.0165455 
            223       0.0263345 
          226.8        0.044985 
            230         42.9529 
            234         106.677 
            240         194.088 
          246.5         376.188 
          252.4         670.305 
          256.8         847.818 
            260         1438.04 
            264         1982.13 
          268.5         3013.27 
          273.5         4481.18 
          278.5         6276.86 
            284         12324.9 
            290         18649.2 
            296         26745.9 
            301         33283.2 
            308         62158.1 
            318          142646 
            328          228673 
            338          398579 
            348          636064 
            357      1.24285e+6 
            366      2.05348e+6 
            375      2.73067e+6 
            385      4.04801e+6 
            395      5.97455e+6 
            405      7.93262e+6 
            414      1.05704e+7 
            422      1.25802e+7 
            430      1.54742e+7 
            441      2.02388e+7 
            451      2.55782e+7 
            460      3.02131e+7 
            470       3.7528e+7 
            480      4.55149e+7 
            490      5.44806e+7 
            500      6.69704e+7 
            506      3.01326e+8 
            512        1.515e+9 
            520      1.44715e+9 
            530      1.38273e+9 
            540      1.29698e+9 
            550      1.54204e+9 
            560      1.77865e+9 
            570      1.87912e+9 
            580      1.72429e+9 
            590      1.92759e+9 
            600      1.78601e+9 
            610      2.02741e+9 
            620      2.24989e+9 
            630      2.28031e+9 
            640      2.24888e+9 
            650      2.30853e+9 
            658       2.2362e+9 
            665      2.42424e+9 
            675      2.52559e+9 
            685      2.37041e+9 
            695      2.75396e+9 
            705      2.50296e+9 
            716      2.95281e+9 
            726      2.93857e+9 
            735      3.01823e+9 
            745      3.08538e+9 
            755      3.11786e+9 
            765      3.23747e+9 
            775       3.3393e+9 
            785      3.47571e+9 
            795      3.50988e+9 
            805      3.51281e+9 
            815      3.54533e+9 
            825      3.71086e+9 
            835      3.33355e+9 
            845      3.74891e+9 
            855      3.80211e+9 
            865      3.91061e+9 
            875      3.98707e+9 
            885      4.08862e+9 
            895         4.17e+9 
            905      4.14836e+9 
            915       6.0742e+9 
            925     2.83138e+10 
            935     4.13024e+10 
            945       5.215e+10 
            955     5.49712e+10 
            965     5.90768e+10 
            975     3.32782e+10 
            985     5.28231e+10 
            995     4.98107e+10 
           1005     5.09617e+10 
           1015     5.15166e+10 
           1025     4.21471e+10 
           1035     4.90138e+10 
           1045     5.37207e+10 
           1055     5.21046e+10 
           1065     4.70685e+10 
           1075     4.83192e+10 
           1085     4.57493e+10 
           1095     4.80909e+10 
           1105     4.61939e+10 
           1115     4.52357e+10 
           1125     3.94909e+10 
           1135     4.41468e+10 
           1145      4.1655e+10 
           1155     4.14536e+10 
           1165     4.11502e+10 
           1175     3.20184e+10 
           1185      3.8394e+10 
           1195     3.74006e+10 
           1205     3.49818e+10 
           1215      2.8868e+10 
           1225     3.55635e+10 
           1235     3.64571e+10 
           1245     3.52127e+10 
           1255     3.51441e+10 
           1265     3.50286e+10 
           1275     3.47895e+10 
           1285     3.43322e+10 
           1295     3.16452e+10 
           1305     3.19585e+10 
           1315     3.26573e+10 
           1325      3.1619e+10 
           1335      3.0737e+10 
           1345     3.05586e+10 
           1355     3.02652e+10 
           1365     2.92248e+10 
           1375     2.87874e+10 
           1385     2.82573e+10 
           1395     2.33062e+10 
           1405     2.39661e+10 
           1415     2.65675e+10 
           1425     2.51923e+10 
           1435     2.56218e+10 
           1442     2.56671e+10 
           1447     2.53515e+10 
           1455     2.46642e+10 
           1465     2.42321e+10 
           1475     2.39341e+10 
           1485     2.37085e+10 
           1495     2.30687e+10 
           1505     2.24588e+10 
           1512     2.22266e+10 
           1517     2.21082e+10 
           1525     2.16581e+10 
           1535     1.99779e+10 
           1545      1.8942e+10 
           1555     1.85496e+10 
           1565     1.91131e+10 
           1575     1.94999e+10 
           1585     1.93596e+10 
           1595     1.91547e+10 
           1605     1.81563e+10 
           1615     1.76736e+10 
           1625     1.76536e+10 
           1635     1.76736e+10 
           1645     1.71559e+10 
           1655     1.74664e+10 
           1665     1.70697e+10 
           1672      1.6516e+10 
           1677     1.75041e+10 
           1685     1.70278e+10 
           1695     1.66255e+10 
           1705       1.626e+10 
           1715     1.57943e+10 
           1725     1.54294e+10 
           1735       1.567e+10 
           1745     1.54031e+10 
           1755     1.51498e+10 
           1765     1.48952e+10 
           1775     1.46405e+10 
           1785     1.45278e+10 
           1795     1.43254e+10 
           1805     1.42527e+10 
           1815     1.38754e+10 
           1825     1.37045e+10 
           1835     1.36003e+10 
           1845     1.29597e+10 
           1855     1.28192e+10 
           1865     1.27839e+10 
           1875     1.26533e+10 
           1885     1.21282e+10 
           1895     1.17907e+10 
           1905     1.20077e+10 
           1915      1.1634e+10 
           1925     1.12603e+10 
           1935     1.14692e+10 
           1945     1.14791e+10 
           1955     1.08405e+10 
           1967     1.10222e+10 
           1976     1.11101e+10 
           1984     1.07413e+10 
           1995     1.04367e+10 
           2005     1.05315e+10 
           2015     1.04857e+10 
           2025     1.04053e+10 
           2035     1.00986e+10 
           2045      9.95958e+9 
           2055      8.77249e+9 
           2065      8.56811e+9 
           2074      8.85886e+9 
           2078      8.78117e+9 
           2085      9.14347e+9 
           2095      9.16454e+9 
           2105      9.17715e+9 
           2115      9.16805e+9 
           2125      9.03942e+9 
           2135      8.94254e+9 
           2145      8.78403e+9 
           2155      8.74407e+9 
           2165       8.5389e+9 
           2175      8.50754e+9 
           2185      8.34384e+9 
           2195      8.31412e+9 
           2205      8.19626e+9 
           2215       8.0203e+9 
           2225      7.96435e+9 
           2235      7.84723e+9 
           2245      7.75506e+9 
           2255      7.58789e+9 
           2265      7.54748e+9 
           2275       7.4507e+9 
           2285      7.32358e+9 
           2295      6.97601e+9 
           2305      7.08763e+9 
           2315      7.03447e+9 
           2325        6.952e+9 
           2335      6.85091e+9 
           2345      6.77774e+9 
           2355      6.68702e+9 
           2365      6.59954e+9 
           2375      6.50488e+9 
           2385      6.35289e+9 
           2395      6.30888e+9 
           2405      6.25652e+9 
           2415      6.16399e+9 
           2425      6.09455e+9 
           2435       5.9991e+9 
           2445      5.93331e+9 
           2455      5.85719e+9 
           2465        5.788e+9 
           2475      5.70879e+9 
           2485      5.61395e+9 
           2495      4.75658e+9 
           2505      5.43623e+9 
           2513      5.29942e+9 
           2518      5.33544e+9 
           2525      5.36008e+9 
           2535      5.29941e+9 
           2545      5.18834e+9 
           2555      5.14544e+9 
           2565      5.09418e+9 
           2575      5.03747e+9 
           2585      4.97647e+9 
           2595      4.91061e+9 
           2605      4.86987e+9 
           2615      4.80504e+9 
           2625      4.74849e+9 
           2635      4.68669e+9 
           2645      4.62887e+9 
           2655      4.57017e+9 
           2665      4.50247e+9 
           2675       4.4436e+9 
           2685      4.41338e+9 
           2695      4.33458e+9 
           2705       4.3012e+9 
           2715      4.25102e+9 
           2725      4.18284e+9 
           2735      4.12068e+9 
           2745      4.10581e+9 
           2755       4.0569e+9 
           2765      3.98848e+9 
           2775      3.96762e+9 
           2785      3.91552e+9 
           2795      3.82255e+9 
           2805      3.81296e+9 
           2815      3.78516e+9 
           2825      3.72206e+9 
           2835      3.67818e+9 
           2845      3.65753e+9 
           2855      3.60935e+9 
           2865      3.56805e+9 
           2875      3.52768e+9 
           2885      3.49073e+9 
           2895      3.44971e+9 
           2910      3.38612e+9 
           2930      3.31622e+9 
           2950      3.22609e+9 
           2970      3.16848e+9 
           2990      3.09505e+9 
           3010      3.02199e+9 
           3030      2.95597e+9 
           3050      2.89809e+9 
           3070      2.84151e+9 
           3090      2.76046e+9 
           3110      2.71864e+9 
           3130      2.65805e+9 
           3150      2.60151e+9 
           3170      2.54847e+9 
           3190       2.4854e+9 
           3210      2.43771e+9 
           3230      2.39216e+9 
           3250      2.34673e+9 
           3270      2.29545e+9 
           3290      2.24932e+9 
           3310      2.20606e+9 
           3330      2.15831e+9 
           3350      2.11355e+9 
           3370      2.07361e+9 
           3390      2.03636e+9 
           3410      1.99628e+9 
           3430      1.95273e+9 
           3450      1.90879e+9 
           3470      1.87515e+9 
           3490      1.83823e+9 
           3510      1.80832e+9 
           3530      1.77576e+9 
           3550      1.74134e+9 
           3570      1.71299e+9 
           3590      1.67282e+9 
           3610      1.64462e+9 
           3630      1.61083e+9 
           3640      1.60074e+9 
           3650       1.5555e+9 
           3670      1.53255e+9 
           3690      1.49733e+9 
           3710      1.45685e+9 
           3730      1.41817e+9 
           3750      1.46657e+9 
           3770       1.4506e+9 
           3790       1.4694e+9 
           3810      1.49593e+9 
           3830      1.37207e+9 
           3850      1.48041e+9 
           3870      1.45171e+9 
           3890      1.30806e+9 
           3910      1.41926e+9 
           3930      1.38409e+9 
           3950      1.36439e+9 
           3970      1.21003e+9 
           3990      1.32127e+9 
           4010      1.29662e+9 
           4030       1.2543e+9 
           4050      1.25907e+9 
           4070      1.22333e+9 
           4090      1.17923e+9 
           4110      1.08955e+9 
           4130      1.16231e+9 
           4150      1.14636e+9 
           4170      1.13412e+9 
           4190       1.1137e+9 
           4210      1.09554e+9 
           4230      1.07979e+9 
           4250      1.05789e+9 
           4270      1.03722e+9 
           4290      1.02188e+9 
           4310      1.00252e+9 
           4330       9.6153e+8 
           4350      8.96944e+8 
           4370      9.55845e+8 
           4390      9.33921e+8 
           4410      9.25276e+8 
           4430      9.13523e+8 
           4450      8.99299e+8 
           4470      8.69059e+8 
           4490      8.71033e+8 
           4510      8.58157e+8 
           4530      8.45383e+8 
           4550      8.28959e+8 
           4570      8.17517e+8 
           4590      8.03863e+8 
           4610      7.91958e+8 
           4630      7.79349e+8 
           4650      7.55532e+8 
           4670      7.54499e+8 
           4690      7.39206e+8 
           4710      7.24977e+8 
           4730      7.23961e+8 
           4750      7.12434e+8 
           4770      7.02863e+8 
           4790       6.9226e+8 
           4810      6.81451e+8 
           4830      6.70038e+8 
           4850      6.47675e+8 
           4870      5.98414e+8 
           4890      6.41219e+8 
           4910      6.32333e+8 
           4930      6.15449e+8 
           4950      6.12761e+8 
           4970       6.0575e+8 
           4990      5.96925e+8 
           5010      5.82788e+8 
           5030      5.79502e+8 
           5050      5.69426e+8 
           5070      5.63433e+8 
           5090      5.55262e+8 
           5110      5.47418e+8 
           5130      5.39594e+8 
           5150      5.32016e+8 
           5170      5.24398e+8 
           5190       5.1733e+8 
           5210      5.10159e+8 
           5230      5.03125e+8 
           5250      4.96073e+8 
           5270      4.89168e+8 
           5290      4.82582e+8 
           5310      4.75961e+8 
           5330      4.69491e+8 
           5350      4.63105e+8 
           5370       4.5684e+8 
           5390      4.50512e+8 
           5410      4.43391e+8 
           5430      4.38635e+8 
           5450       4.3272e+8 
           5470      4.26956e+8 
           5490      4.21288e+8 
           5510      4.15716e+8 
           5530      4.10226e+8 
           5550      4.04853e+8 
           5570      3.99511e+8 
           5590      3.94137e+8 
           5610      3.89153e+8 
           5630      3.84111e+8 
           5650      3.79107e+8 
           5670      3.74071e+8 
           5690      3.68152e+8 
           5710       3.6232e+8 
           5730      3.57798e+8 
           5750      3.52932e+8 
           5770      3.48872e+8 
           5790      3.44476e+8 
           5810      3.40234e+8 
           5830      3.36008e+8 
           5850      3.32097e+8 
           5870      3.21922e+8 
           5890      3.23985e+8 
           5910      3.20351e+8 
           5930       3.1694e+8 
           5950      3.13121e+8 
           5970      3.09462e+8 
           5990      3.05572e+8 
           6010      3.01883e+8 
           6030      2.98164e+8 
           6050       2.9456e+8 
           6070      2.91006e+8 
           6090      2.87483e+8 
           6110       2.8402e+8 
           6130      2.80595e+8 
           6150       2.7716e+8 
           6170      2.73842e+8 
           6190       2.7064e+8 
           6210      2.67434e+8 
           6230      2.64264e+8 
           6250      2.61119e+8 
           6270      2.58056e+8 
           6290      2.55028e+8 
           6310      2.51985e+8 
           6330      2.49088e+8 
           6350      2.46158e+8 
           6370      2.43333e+8 
           6390      2.40502e+8 
           6410      2.37702e+8 
           6430      2.34995e+8 
           6450       2.3229e+8 
           6470      2.29552e+8 
           6490       2.2694e+8 
           6510       2.2441e+8 
           6530      2.21642e+8 
           6550      2.16839e+8 
           6570      1.99131e+8 
           6590      2.13825e+8 
           6610      2.11998e+8 
           6630      2.09658e+8 
           6650      2.07309e+8 
           6670      2.03705e+8 
           6690      2.01394e+8 
           6710      2.00463e+8 
           6730      1.98176e+8 
           6750      1.96135e+8 
           6770         1.94e+8 
           6790      1.91772e+8 
           6810      1.89762e+8 
           6830      1.87667e+8 
           6850      1.85657e+8 
           6870      1.83636e+8 
           6890        1.815e+8 
           6910      1.79583e+8 
           6930      1.77771e+8 
           6950      1.75868e+8 
           6970      1.73992e+8 
           6990      1.72126e+8 
           7010      1.70287e+8 
           7030      1.68466e+8 
           7050      1.66692e+8 
           7070      1.62962e+8 
           7090      1.63206e+8 
           7110      1.61469e+8 
           7130      1.59794e+8 
           7150      1.58135e+8 
           7170      1.56396e+8 
           7190       1.5485e+8 
           7210      1.53253e+8 
           7230      1.51318e+8 
           7250      1.50004e+8 
           7270      1.48559e+8 
           7290      1.46122e+8 
           7310      1.45514e+8 
           7330      1.44041e+8 
           7350      1.42575e+8 
           7370      1.41129e+8 
           7390      1.39697e+8 
           7410      1.38285e+8 
           7430      1.36894e+8 
           7450      1.35521e+8 
           7470      1.34047e+8 
           7490      1.32795e+8 
           7510      1.31461e+8 
           7530      1.30179e+8 
           7550      1.28895e+8 
           7570      1.27617e+8 
           7590      1.26278e+8 
           7610      1.25062e+8 
           7630      1.23877e+8 
           7650      1.22657e+8 
           7670      1.21461e+8 
           7690      1.20257e+8 
           7710      1.19095e+8 
           7730      1.17912e+8 
           7750      1.16803e+8 
           7770      1.15665e+8 
           7790      1.14557e+8 
           7810      1.13409e+8 
           7830      1.12363e+8 
           7850      1.11357e+8 
           7870      1.10245e+8 
           7890       1.0916e+8 
           7910      1.08205e+8 
           7930      1.07157e+8 
           7950      1.06154e+8 
           7970       1.0507e+8 
           7990      1.04126e+8 
           8010       1.0309e+8 
           8030      1.02121e+8 
           8050       1.0119e+8 
           8070      1.00272e+8 
           8090      9.92016e+7 
           8110      9.81688e+7 
           8130      9.75097e+7 
           8150      9.64815e+7 
           8170      9.57332e+7 
           8190      9.46933e+7 
           8210      9.35003e+7 
           8230      9.27517e+7 
           8250      9.20147e+7 
           8270      9.07825e+7 
           8290      9.02682e+7 
           8310      8.94851e+7 
           8330      8.86487e+7 
           8350        8.756e+7 
           8370      8.69162e+7 
           8390       8.6224e+7 
           8410      8.54202e+7 
           8430       8.4586e+7 
           8450      8.35107e+7 
           8470       8.2891e+7 
           8490      8.23859e+7 
           8510      8.11356e+7 
           8530      8.11077e+7 
           8550      7.89662e+7 
           8570      8.04138e+7 
