# Kurucz ODFNEW /NOVER (2003)
# teff = 19000 K (value for the effective temperature for the model. Temperatures are given in K)
# logg = 4.5 log(cm/s2) (value for Log(G) for the model.)
# meta = 0  (value for the Metallicity for the model.)
# lh = 1.25  (l/Hp where l is the  mixing length of the convective element and Hp is the pressure scale height)
# vtur = 2 km/s (Microturbulence velocity)
# alpha = 0  (Alpha)
#
# column 1: WAVELENGTH (ANGSTROM), Wavelength in Angstrom
# column 2: FLUX (ERG/CM2/S/A), Flux in erg/cm2/s/A
          147.2     7.43728e-21 
            151     4.83696e-20 
          155.2     3.43634e-19 
          158.8     1.69531e-18 
            162     6.60525e-18 
            166     3.35989e-17 
          170.3     1.77167e-16 
          173.4      5.5885e-16 
          176.8     1.87978e-15 
          180.2     6.04203e-15 
          181.7     9.97084e-15 
          186.1     4.14484e-14 
            191     1.87575e-13 
          193.9     4.41057e-13 
          198.4     1.58425e-12 
          201.8     4.02075e-12 
            205     9.41263e-12 
          210.5     3.80791e-11 
          216.2     1.50636e-10 
          219.8     3.46396e-10 
            223     7.08846e-10 
          226.8      1.61888e-9 
            230      5.40489e-9 
            234      1.37871e-8 
            240      4.48975e-8 
          246.5      1.49589e-7 
          252.4      4.23685e-7 
          256.8      8.79923e-7 
            260      1.50876e-6 
            264      2.85747e-6 
          268.5      5.71739e-6 
          273.5      1.20172e-5 
          278.5      2.46688e-5 
            284      5.28596e-5 
            290      0.00011705 
            296     0.000250372 
            301     0.000461676 
            308      0.00104186 
            318      0.00319511 
            328      0.00899698 
            338       0.0240097 
            348       0.0601752 
            357         0.13247 
            366        0.279397 
            375        0.562449 
            385         1.18058 
            395         2.37669 
            405         4.62066 
            414         8.17372 
            422         13.2326 
            430         20.9942 
            441         38.7614 
            451         65.6958 
            460         103.209 
            470           167.1 
            480         264.414 
            490         410.574 
            500         624.843 
            506         5534.35 
            512         24241.1 
            520         31346.3 
            530         44766.3 
            540         53660.7 
            550         80065.9 
            560          101229 
            570          133345 
            580          144600 
            590          202477 
            600          258342 
            610          328031 
            620          392645 
            630          476906 
            640          545283 
            650          604729 
            658          773169 
            665          859392 
            675          990886 
            685      1.15004e+6 
            695      1.38993e+6 
            705      1.58863e+6 
            716      1.85699e+6 
            726      2.10581e+6 
            735      2.35818e+6 
            745      2.73568e+6 
            755      3.11376e+6 
            765      3.52136e+6 
            775      3.98353e+6 
            785      4.48248e+6 
            795      4.94044e+6 
            805      5.48265e+6 
            815      6.02166e+6 
            825      6.74501e+6 
            835      7.20796e+6 
            845      7.99071e+6 
            855      8.75673e+6 
            865      9.64852e+6 
            875      1.06269e+7 
            885      1.17315e+7 
            895       1.2736e+7 
            905      1.33323e+7 
            915      2.22157e+7 
            925      8.46692e+7 
            935      2.12164e+8 
            945      8.46078e+8 
            955      2.24817e+9 
            965      3.23804e+9 
            975      6.01222e+8 
            985      4.95071e+9 
            995      5.05794e+9 
           1005      6.08571e+9 
           1015      4.75014e+9 
           1025       6.3719e+8 
           1035      2.87017e+9 
           1045      7.35503e+9 
           1055       7.4586e+9 
           1065      5.92185e+9 
           1075      7.29938e+9 
           1085       6.4403e+9 
           1095      7.35817e+9 
           1105      6.41939e+9 
           1115      6.13991e+9 
           1125      5.82437e+9 
           1135       7.1841e+9 
           1145      6.15715e+9 
           1155      6.63077e+9 
           1165      6.96681e+9 
           1175       5.2841e+9 
           1185      6.90962e+9 
           1195      4.44654e+9 
           1205      2.52996e+9 
           1215      6.65709e+8 
           1225      2.87149e+9 
           1235      6.05815e+9 
           1245      6.67116e+9 
           1255       6.5514e+9 
           1265      5.87804e+9 
           1275      6.45918e+9 
           1285      6.73845e+9 
           1295       4.5299e+9 
           1305      4.04331e+9 
           1315      6.26566e+9 
           1325      5.91587e+9 
           1335      5.20738e+9 
           1345      6.01572e+9 
           1355      5.78896e+9 
           1365       5.1838e+9 
           1375      5.27845e+9 
           1385      5.36413e+9 
           1395      4.77604e+9 
           1405      4.98387e+9 
           1415       4.8371e+9 
           1425      4.95497e+9 
           1435      4.91963e+9 
           1442      5.13596e+9 
           1447      5.06994e+9 
           1455      4.94387e+9 
           1465      4.62612e+9 
           1475      4.56932e+9 
           1485      4.45572e+9 
           1495      4.48092e+9 
           1505      4.16111e+9 
           1512      3.77546e+9 
           1517      3.97587e+9 
           1525      4.02012e+9 
           1535      3.62432e+9 
           1545      3.74311e+9 
           1555      3.52795e+9 
           1565      3.56591e+9 
           1575      3.75025e+9 
           1585      3.77206e+9 
           1595      3.81227e+9 
           1605      3.71081e+9 
           1615      3.70659e+9 
           1625      3.54028e+9 
           1635      3.68411e+9 
           1645      3.65658e+9 
           1655      3.40896e+9 
           1665       3.6739e+9 
           1672      3.51047e+9 
           1677      3.58052e+9 
           1685      3.63736e+9 
           1695      3.44941e+9 
           1705      3.27507e+9 
           1715      3.08969e+9 
           1725      3.04561e+9 
           1735      3.18632e+9 
           1745      3.06503e+9 
           1755      3.17478e+9 
           1765       2.9303e+9 
           1775      2.96373e+9 
           1785      2.98631e+9 
           1795      3.08993e+9 
           1805      3.07336e+9 
           1815      2.81659e+9 
           1825      2.90265e+9 
           1835      2.76638e+9 
           1845       2.5646e+9 
           1855      2.48272e+9 
           1865       2.5283e+9 
           1875      2.72558e+9 
           1885       2.4726e+9 
           1895      2.32897e+9 
           1905      2.50037e+9 
           1915      2.35557e+9 
           1925      2.29375e+9 
           1935      2.37313e+9 
           1945      2.40685e+9 
           1955      2.22813e+9 
           1967      2.39664e+9 
           1976      2.47617e+9 
           1984      2.30483e+9 
           1995      2.24001e+9 
           2005      2.29804e+9 
           2015      2.21024e+9 
           2025      2.33932e+9 
           2035      2.16792e+9 
           2045      2.19208e+9 
           2055      2.10514e+9 
           2065      2.14002e+9 
           2074      2.21099e+9 
           2078      2.07215e+9 
           2085      2.14015e+9 
           2095      2.02089e+9 
           2105       2.0615e+9 
           2115      2.05216e+9 
           2125      2.08228e+9 
           2135      2.00323e+9 
           2145      1.95774e+9 
           2155       2.0123e+9 
           2165       1.9657e+9 
           2175      1.94113e+9 
           2185      1.88995e+9 
           2195      1.92148e+9 
           2205      1.87349e+9 
           2215      1.82697e+9 
           2225       1.7596e+9 
           2235      1.81146e+9 
           2245      1.77645e+9 
           2255      1.71176e+9 
           2265      1.74221e+9 
           2275      1.74163e+9 
           2285      1.74597e+9 
           2295      1.67786e+9 
           2305      1.65702e+9 
           2315      1.60688e+9 
           2325       1.5894e+9 
           2335      1.52586e+9 
           2345      1.49705e+9 
           2355      1.51785e+9 
           2365      1.46779e+9 
           2375      1.47496e+9 
           2385      1.42334e+9 
           2395      1.46895e+9 
           2405      1.41058e+9 
           2415      1.41772e+9 
           2425      1.42899e+9 
           2435      1.36975e+9 
           2445      1.39795e+9 
           2455      1.38277e+9 
           2465       1.3593e+9 
           2475      1.33044e+9 
           2485      1.35862e+9 
           2495      1.31283e+9 
           2505      1.34049e+9 
           2513      1.27751e+9 
           2518      1.31403e+9 
           2525       1.2638e+9 
           2535      1.25297e+9 
           2545      1.22435e+9 
           2555      1.25374e+9 
           2565      1.23551e+9 
           2575       1.2565e+9 
           2585      1.25193e+9 
           2595      1.24319e+9 
           2605      1.21812e+9 
           2615      1.20833e+9 
           2625      1.19875e+9 
           2635      1.19418e+9 
           2645      1.21203e+9 
           2655      1.20009e+9 
           2665      1.16203e+9 
           2675      1.17184e+9 
           2685      1.16025e+9 
           2695      1.13465e+9 
           2705       1.1324e+9 
           2715      1.11073e+9 
           2725      1.09438e+9 
           2735      1.10769e+9 
           2745      1.05489e+9 
           2755      1.05052e+9 
           2765      1.05215e+9 
           2775      1.06415e+9 
           2785      1.05298e+9 
           2795      1.00543e+9 
           2805      1.02691e+9 
           2815      1.03146e+9 
           2825      1.01289e+9 
           2835      9.76647e+8 
           2845      9.74215e+8 
           2855      9.75399e+8 
           2865      9.82967e+8 
           2875      9.65931e+8 
           2885      9.60831e+8 
           2895      9.53845e+8 
           2910      9.46039e+8 
           2930       9.2246e+8 
           2950      9.00601e+8 
           2970      8.92057e+8 
           2990      8.72662e+8 
           3010      8.62268e+8 
           3030      8.51333e+8 
           3050      8.34009e+8 
           3070      8.18541e+8 
           3090      8.04112e+8 
           3110      7.88701e+8 
           3130      7.76731e+8 
           3150      7.62837e+8 
           3170       7.4833e+8 
           3190      7.27204e+8 
           3210      7.22009e+8 
           3230      7.10604e+8 
           3250      6.98924e+8 
           3270       6.8797e+8 
           3290      6.76011e+8 
           3310      6.65976e+8 
           3330      6.54229e+8 
           3350      6.41875e+8 
           3370       6.3209e+8 
           3390      6.21834e+8 
           3410      6.12002e+8 
           3430      6.00275e+8 
           3450      5.89125e+8 
           3470      5.80414e+8 
           3490      5.71121e+8 
           3510      5.62704e+8 
           3530      5.54683e+8 
           3550       5.4588e+8 
           3570      5.39072e+8 
           3590      5.27207e+8 
           3610      5.19994e+8 
           3630      5.11563e+8 
           3640      5.10207e+8 
           3650      5.04276e+8 
           3670      4.98403e+8 
           3690      4.89058e+8 
           3710      4.72879e+8 
           3730      4.52198e+8 
           3750      4.78088e+8 
           3770      4.82094e+8 
           3790      5.24674e+8 
           3810      5.59329e+8 
           3830      4.75634e+8 
           3850      5.85128e+8 
           3870      6.07394e+8 
           3890      4.43299e+8 
           3910      6.04099e+8 
           3930      5.98234e+8 
           3950      5.86493e+8 
           3970       4.1512e+8 
           3990      5.58536e+8 
           4010      5.70104e+8 
           4030      5.30941e+8 
           4050      5.60254e+8 
           4070      5.42048e+8 
           4090      4.76674e+8 
           4110      4.03401e+8 
           4130       5.0532e+8 
           4150      5.08095e+8 
           4170      5.06006e+8 
           4190      5.01767e+8 
           4210      4.95225e+8 
           4230      4.86384e+8 
           4250      4.77646e+8 
           4270      4.63409e+8 
           4290      4.60899e+8 
           4310       4.4781e+8 
           4330      3.83563e+8 
           4350      3.44706e+8 
           4370       4.2384e+8 
           4390      4.11327e+8 
           4410       4.1977e+8 
           4430      4.12091e+8 
           4450      4.08985e+8 
           4470      3.80728e+8 
           4490      3.92537e+8 
           4510      3.91526e+8 
           4530      3.84277e+8 
           4550      3.78849e+8 
           4570      3.73809e+8 
           4590      3.68234e+8 
           4610      3.62316e+8 
           4630      3.55941e+8 
           4650      3.50778e+8 
           4670      3.46691e+8 
           4690      3.42302e+8 
           4710      3.30197e+8 
           4730      3.29869e+8 
           4750       3.2486e+8 
           4770      3.23234e+8 
           4790      3.17404e+8 
           4810      3.10651e+8 
           4830      3.02996e+8 
           4850      2.67094e+8 
           4870      2.33946e+8 
           4890      2.88596e+8 
           4910      2.89265e+8 
           4930      2.78243e+8 
           4950      2.83594e+8 
           4970       2.8031e+8 
           4990       2.7601e+8 
           5010      2.65976e+8 
           5030      2.67513e+8 
           5050      2.60095e+8 
           5070      2.61125e+8 
           5090      2.57405e+8 
           5110      2.53345e+8 
           5130      2.49512e+8 
           5150      2.45831e+8 
           5170      2.43736e+8 
           5190      2.40532e+8 
           5210      2.35247e+8 
           5230      2.34126e+8 
           5250      2.31211e+8 
           5270      2.27845e+8 
           5290      2.25506e+8 
           5310      2.22301e+8 
           5330       2.1923e+8 
           5350       2.1587e+8 
           5370      2.13991e+8 
           5390        2.112e+8 
           5410      2.08302e+8 
           5430      2.05059e+8 
           5450       2.0277e+8 
           5470      2.00031e+8 
           5490      1.98026e+8 
           5510       1.9535e+8 
           5530      1.92979e+8 
           5550      1.90685e+8 
           5570      1.88201e+8 
           5590      1.85941e+8 
           5610      1.83432e+8 
           5630      1.81585e+8 
           5650      1.77929e+8 
           5670      1.75985e+8 
           5690      1.74366e+8 
           5710       1.7265e+8 
           5730      1.70598e+8 
           5750      1.68501e+8 
           5770      1.66554e+8 
           5790      1.64496e+8 
           5810      1.62472e+8 
           5830      1.60517e+8 
           5850      1.58629e+8 
           5870      1.51733e+8 
           5890      1.53897e+8 
           5910      1.52965e+8 
           5930      1.51239e+8 
           5950      1.48947e+8 
           5970      1.47686e+8 
           5990      1.45704e+8 
           6010       1.4435e+8 
           6030      1.42617e+8 
           6050      1.40996e+8 
           6070      1.39343e+8 
           6090      1.37677e+8 
           6110      1.36202e+8 
           6130      1.34653e+8 
           6150      1.32594e+8 
           6170      1.31508e+8 
           6190      1.30089e+8 
           6210      1.28608e+8 
           6230      1.27085e+8 
           6250      1.25376e+8 
           6270      1.24251e+8 
           6290      1.22843e+8 
           6310      1.21347e+8 
           6330      1.20158e+8 
           6350      1.18085e+8 
           6370      1.17038e+8 
           6390      1.16132e+8 
           6410      1.14784e+8 
           6430      1.13716e+8 
           6450      1.12378e+8 
           6470       1.1109e+8 
           6490       1.0979e+8 
           6510      1.08254e+8 
           6530      1.06302e+8 
           6550      9.88747e+7 
           6570      8.61361e+7 
           6590      1.01261e+8 
           6610      1.02434e+8 
           6630      1.01731e+8 
           6650      1.00907e+8 
           6670      9.88039e+7 
           6690      9.78353e+7 
           6710      9.77466e+7 
           6730      9.67257e+7 
           6750      9.57399e+7 
           6770      9.47559e+7 
           6790      9.35121e+7 
           6810      9.27281e+7 
           6830      9.17336e+7 
           6850      9.08534e+7 
           6870      8.99261e+7 
           6890      8.90001e+7 
           6910      8.80753e+7 
           6930      8.70657e+7 
           6950      8.62923e+7 
           6970      8.54256e+7 
           6990      8.45442e+7 
           7010      8.36715e+7 
           7030      8.28302e+7 
           7050      8.18909e+7 
           7070      7.99963e+7 
           7090       8.0385e+7 
           7110      7.95235e+7 
           7130      7.87445e+7 
           7150      7.79582e+7 
           7170      7.72015e+7 
           7190      7.64665e+7 
           7210      7.57095e+7 
           7230      7.43255e+7 
           7250      7.41812e+7 
           7270      7.35028e+7 
           7290      7.23061e+7 
           7310       7.2066e+7 
           7330      7.13718e+7 
           7350      7.06841e+7 
           7370      7.00027e+7 
           7390      6.93277e+7 
           7410      6.86589e+7 
           7430      6.79315e+7 
           7450      6.73222e+7 
           7470      6.66199e+7 
           7490      6.60175e+7 
           7510      6.53972e+7 
           7530      6.47971e+7 
           7550      6.41919e+7 
           7570      6.35948e+7 
           7590      6.29802e+7 
           7610      6.24076e+7 
           7630        6.182e+7 
           7650      6.12391e+7 
           7670      6.06685e+7 
           7690      6.01029e+7 
           7710      5.95469e+7 
           7730      5.89851e+7 
           7750      5.84465e+7 
           7770       5.7467e+7 
           7790       5.7376e+7 
           7810      5.68379e+7 
           7830      5.63359e+7 
           7850      5.57044e+7 
           7870      5.52136e+7 
           7890      5.46194e+7 
           7910      5.43182e+7 
           7930      5.38469e+7 
           7950      5.32252e+7 
           7970      5.28552e+7 
           7990      5.22109e+7 
           8010      5.19317e+7 
           8030      5.14443e+7 
           8050      5.09786e+7 
           8070      5.05411e+7 
           8090      5.00521e+7 
           8110      4.96108e+7 
           8130      4.91863e+7 
           8150      4.87336e+7 
           8170      4.83469e+7 
           8190       4.7869e+7 
           8210      4.73191e+7 
           8230      4.69081e+7 
           8250      4.66544e+7 
           8270      4.61299e+7 
           8290      4.58276e+7 
           8310      4.54567e+7 
           8330      4.50687e+7 
           8350      4.45548e+7 
           8370      4.42448e+7 
           8390      4.39464e+7 
           8410      4.35517e+7 
           8430      4.31338e+7 
           8450       4.2418e+7 
           8470       4.2324e+7 
           8490      4.19268e+7 
           8510      4.14272e+7 
           8530      4.12756e+7 
           8550      4.02278e+7 
           8570      4.09476e+7 
           8590      3.93679e+7 
