# Kurucz ODFNEW /NOVER (2003)
# teff = 32000 K (value for the effective temperature for the model. Temperatures are given in K)
# logg = 4 log(cm/s2) (value for Log(G) for the model.)
# meta = 0.5  (value for the Metallicity for the model.)
# lh = 1.25  (l/Hp where l is the  mixing length of the convective element and Hp is the pressure scale height)
# vtur = 2 km/s (Microturbulence velocity)
# alpha = 0.4  (Alpha)
#
# column 1: WAVELENGTH (ANGSTROM), Wavelength in Angstrom
# column 2: FLUX (ERG/CM2/S/A), Flux in erg/cm2/s/A
          147.2      2.75699e-7 
            151      7.90833e-7 
          155.2      2.38734e-6 
          158.8      5.88651e-6 
            162      1.27055e-5 
            166      3.20157e-5 
          170.3      8.17769e-5 
          173.4     0.000158322 
          176.8     0.000321154 
          180.2     0.000623821 
          181.7     0.000849667 
          186.1       0.0019111 
            191      0.00453447 
          193.9      0.00738665 
          198.4       0.0155439 
          201.8       0.0263893 
            205       0.0427396 
          210.5       0.0949088 
          216.2         0.20528 
          219.8        0.333942 
            223        0.503212 
          226.8         0.92069 
            230         121.372 
            234          251.58 
            240         424.664 
          246.5         753.865 
          252.4         1307.91 
          256.8         1909.12 
            260         3202.92 
            264         4961.87 
          268.5          7766.9 
          273.5         11112.2 
          278.5         14495.6 
            284         36334.8 
            290         54354.8 
            296         74450.7 
            301          111263 
            308          390045 
            318          822200 
            328      1.22382e+6 
            338      2.28236e+6 
            348      3.61474e+6 
            357       9.3153e+6 
            366      2.29085e+7 
            375      2.73281e+7 
            385      4.33725e+7 
            395      1.15719e+8 
            405      1.47125e+8 
            414      2.56353e+8 
            422      2.97666e+8 
            430      3.32272e+8 
            441      4.08515e+8 
            451       4.4259e+8 
            460      4.25975e+8 
            470      5.39308e+8 
            480      6.41634e+8 
            490      6.17642e+8 
            500      8.24344e+8 
            506      8.58057e+8 
            512      7.44997e+9 
            520       7.0496e+9 
            530      6.61335e+9 
            540      6.48075e+9 
            550      6.84564e+9 
            560     1.03229e+10 
            570     1.27177e+10 
            580      1.1546e+10 
            590      1.2054e+10 
            600      6.63264e+9 
            610      1.0337e+10 
            620     1.42352e+10 
            630     1.35695e+10 
            640     1.31901e+10 
            650     1.12074e+10 
            658      6.77891e+9 
            665     1.12714e+10 
            675     1.50452e+10 
            685      9.81516e+9 
            695     1.52665e+10 
            705      8.98724e+9 
            716     1.74198e+10 
            726     1.68396e+10 
            735     1.69395e+10 
            745     1.37605e+10 
            755     1.42483e+10 
            765      1.5281e+10 
            775     1.68229e+10 
            785      1.6427e+10 
            795     1.73795e+10 
            805     1.54941e+10 
            815      1.5118e+10 
            825     1.72782e+10 
            835     1.12085e+10 
            845     1.60389e+10 
            855      1.5668e+10 
            865     1.64885e+10 
            875     1.65808e+10 
            885     1.69989e+10 
            895      1.7004e+10 
            905     1.61911e+10 
            915     1.79045e+10 
            925     4.65791e+10 
            935     7.01079e+10 
            945     8.09545e+10 
            955     8.68271e+10 
            965     9.29176e+10 
            975     3.40462e+10 
            985     6.82266e+10 
            995     6.32851e+10 
           1005     6.63811e+10 
           1015     7.30001e+10 
           1025       6.397e+10 
           1035     7.10607e+10 
           1045     8.41343e+10 
           1055     7.85089e+10 
           1065     6.45229e+10 
           1075     6.85244e+10 
           1085     6.38462e+10 
           1095     6.78759e+10 
           1105      6.4524e+10 
           1115     6.27112e+10 
           1125     4.36701e+10 
           1135     5.94883e+10 
           1145     5.86118e+10 
           1155     5.37267e+10 
           1165     5.34578e+10 
           1175     3.18738e+10 
           1185     4.81755e+10 
           1195     4.63675e+10 
           1205     4.36397e+10 
           1215     3.83971e+10 
           1225     4.39962e+10 
           1235     4.73152e+10 
           1245     4.48179e+10 
           1255     4.50035e+10 
           1265     4.65431e+10 
           1275     4.89653e+10 
           1285     4.90731e+10 
           1295     4.42723e+10 
           1305     4.46384e+10 
           1315     4.85131e+10 
           1325     4.67536e+10 
           1335     4.50708e+10 
           1345     4.47217e+10 
           1355     4.39471e+10 
           1365     4.18983e+10 
           1375       3.994e+10 
           1385     3.76862e+10 
           1395     2.35366e+10 
           1405     2.64738e+10 
           1415     3.69481e+10 
           1425     3.31494e+10 
           1435     3.60351e+10 
           1442      3.5293e+10 
           1447     3.51844e+10 
           1455     3.31347e+10 
           1465     3.19028e+10 
           1475      3.2921e+10 
           1485     3.27918e+10 
           1495     3.16719e+10 
           1505      3.0133e+10 
           1512     2.95449e+10 
           1517      3.0038e+10 
           1525     2.87469e+10 
           1535     2.44483e+10 
           1545     1.95323e+10 
           1555     1.98427e+10 
           1565     2.34815e+10 
           1575     2.50432e+10 
           1585     2.50716e+10 
           1595     2.51995e+10 
           1605      2.4006e+10 
           1615     2.27203e+10 
           1625     2.33346e+10 
           1635      2.3866e+10 
           1645     2.41893e+10 
           1655     2.36723e+10 
           1665     2.32597e+10 
           1672      2.1114e+10 
           1677     2.58375e+10 
           1685     2.43322e+10 
           1695     2.33641e+10 
           1705     2.31829e+10 
           1715     2.16568e+10 
           1725     2.07822e+10 
           1735     2.16522e+10 
           1745     2.15594e+10 
           1755     2.13119e+10 
           1765     2.10155e+10 
           1775     2.00034e+10 
           1785     2.04857e+10 
           1795     2.00044e+10 
           1805      1.9951e+10 
           1815      1.9256e+10 
           1825     1.90105e+10 
           1835     1.89527e+10 
           1845     1.78624e+10 
           1855     1.84203e+10 
           1865     1.84659e+10 
           1875     1.79169e+10 
           1885      1.6912e+10 
           1895     1.65126e+10 
           1905     1.71027e+10 
           1915     1.65219e+10 
           1925     1.54011e+10 
           1935     1.65775e+10 
           1945     1.68018e+10 
           1955     1.49607e+10 
           1967     1.58935e+10 
           1976     1.63984e+10 
           1984     1.57324e+10 
           1995     1.53843e+10 
           2005     1.57232e+10 
           2015     1.56807e+10 
           2025     1.57054e+10 
           2035     1.48819e+10 
           2045     1.47115e+10 
           2055     1.19325e+10 
           2065     1.15575e+10 
           2074     1.22053e+10 
           2078     1.20179e+10 
           2085     1.29643e+10 
           2095     1.33043e+10 
           2105      1.3577e+10 
           2115     1.37959e+10 
           2125      1.3507e+10 
           2135     1.34246e+10 
           2145     1.31179e+10 
           2155     1.31928e+10 
           2165     1.25704e+10 
           2175     1.28222e+10 
           2185     1.24747e+10 
           2195     1.27351e+10 
           2205     1.25261e+10 
           2215     1.20654e+10 
           2225     1.21033e+10 
           2235     1.19032e+10 
           2245     1.17406e+10 
           2255     1.14026e+10 
           2265     1.14409e+10 
           2275     1.13595e+10 
           2285     1.08981e+10 
           2295      9.45431e+9 
           2305     1.05041e+10 
           2315     1.03566e+10 
           2325     1.04308e+10 
           2335     1.02491e+10 
           2345     1.01386e+10 
           2355      9.87874e+9 
           2365      9.68088e+9 
           2375       9.4212e+9 
           2385      9.05095e+9 
           2395      9.09506e+9 
           2405      9.12575e+9 
           2415      8.96119e+9 
           2425      8.94445e+9 
           2435      8.79426e+9 
           2445      8.70104e+9 
           2455      8.56904e+9 
           2465      8.44634e+9 
           2475      8.27798e+9 
           2485      7.65816e+9 
           2495      4.76632e+9 
           2505      6.99663e+9 
           2513       7.3596e+9 
           2518      7.47122e+9 
           2525      7.76371e+9 
           2535      7.76706e+9 
           2545       7.5427e+9 
           2555      7.52417e+9 
           2565      7.38717e+9 
           2575      7.36229e+9 
           2585      7.28063e+9 
           2595      7.11722e+9 
           2605      7.12208e+9 
           2615      6.92888e+9 
           2625      6.91282e+9 
           2635      6.85557e+9 
           2645      6.72736e+9 
           2655      6.66823e+9 
           2665        6.474e+9 
           2675      6.29565e+9 
           2685      6.38314e+9 
           2695      6.22745e+9 
           2705      6.17017e+9 
           2715      6.09413e+9 
           2725      6.04543e+9 
           2735       5.9187e+9 
           2745      5.94266e+9 
           2755      5.85343e+9 
           2765      5.77323e+9 
           2775      5.77279e+9 
           2785      5.62746e+9 
           2795      5.40498e+9 
           2805       5.5001e+9 
           2815      5.48343e+9 
           2825      5.42202e+9 
           2835       5.2915e+9 
           2845      5.30184e+9 
           2855      5.20052e+9 
           2865      5.11747e+9 
           2875      5.04911e+9 
           2885      5.00648e+9 
           2895      4.94678e+9 
           2910      4.78959e+9 
           2930      4.77269e+9 
           2950      4.64326e+9 
           2970      4.52926e+9 
           2990      4.37069e+9 
           3010      4.20053e+9 
           3030      4.09512e+9 
           3050      4.08257e+9 
           3070      4.01996e+9 
           3090      3.87603e+9 
           3110       3.8753e+9 
           3130      3.74803e+9 
           3150      3.70586e+9 
           3170      3.60444e+9 
           3190      3.55035e+9 
           3210      3.44161e+9 
           3230      3.36864e+9 
           3250      3.33159e+9 
           3270      3.21328e+9 
           3290      3.17231e+9 
           3310      3.09334e+9 
           3330      3.01461e+9 
           3350      2.93367e+9 
           3370      2.87908e+9 
           3390      2.85797e+9 
           3410      2.79431e+9 
           3430      2.76416e+9 
           3450      2.67355e+9 
           3470      2.63772e+9 
           3490      2.58521e+9 
           3510      2.53388e+9 
           3530      2.49836e+9 
           3550      2.44123e+9 
           3570      2.39181e+9 
           3590      2.33887e+9 
           3610      2.29302e+9 
           3630      2.24936e+9 
           3640       2.2162e+9 
           3650      2.10024e+9 
           3670      2.06868e+9 
           3690      2.02701e+9 
           3710      1.94828e+9 
           3730      1.92471e+9 
           3750       1.9501e+9 
           3770      1.91905e+9 
           3790       1.9807e+9 
           3810      2.00878e+9 
           3830      1.84057e+9 
           3850      1.98088e+9 
           3870      1.88688e+9 
           3890      1.73665e+9 
           3910       1.9185e+9 
           3930      1.84307e+9 
           3950      1.78981e+9 
           3970      1.58987e+9 
           3990      1.77152e+9 
           4010      1.73798e+9 
           4030      1.67856e+9 
           4050      1.67697e+9 
           4070       1.5933e+9 
           4090      1.51272e+9 
           4110      1.41563e+9 
           4130      1.52859e+9 
           4150      1.51055e+9 
           4170      1.51189e+9 
           4190       1.4838e+9 
           4210      1.45375e+9 
           4230      1.43519e+9 
           4250      1.38872e+9 
           4270      1.35961e+9 
           4290       1.3236e+9 
           4310      1.28664e+9 
           4330      1.23428e+9 
           4350      1.15931e+9 
           4370      1.23706e+9 
           4390       1.2226e+9 
           4410      1.19823e+9 
           4430      1.19477e+9 
           4450      1.16946e+9 
           4470      1.14532e+9 
           4490      1.14317e+9 
           4510      1.11129e+9 
           4530      1.10559e+9 
           4550      1.08197e+9 
           4570      1.07516e+9 
           4590      1.05222e+9 
           4610       1.0299e+9 
           4630      1.00856e+9 
           4650      9.50287e+8 
           4670       9.7844e+8 
           4690      9.63399e+8 
           4710      9.45233e+8 
           4730      9.59028e+8 
           4750      9.40968e+8 
           4770      9.35412e+8 
           4790      9.20359e+8 
           4810      9.01633e+8 
           4830      8.84234e+8 
           4850      8.51123e+8 
           4870      7.77749e+8 
           4890      8.43226e+8 
           4910      8.31683e+8 
           4930      8.12905e+8 
           4950      8.03151e+8 
           4970      8.02633e+8 
           4990      7.90448e+8 
           5010      7.58319e+8 
           5030      7.58167e+8 
           5050      7.48865e+8 
           5070      7.44756e+8 
           5090      7.32008e+8 
           5110      7.20403e+8 
           5130      7.08641e+8 
           5150      6.99242e+8 
           5170      6.88232e+8 
           5190      6.80001e+8 
           5210      6.71029e+8 
           5230      6.62133e+8 
           5250      6.49581e+8 
           5270      6.38908e+8 
           5290      6.34571e+8 
           5310      6.24789e+8 
           5330      6.16635e+8 
           5350      6.08321e+8 
           5370      5.99592e+8 
           5390       5.8973e+8 
           5410      5.77076e+8 
           5430      5.75516e+8 
           5450      5.67076e+8 
           5470      5.58996e+8 
           5490      5.51443e+8 
           5510      5.43774e+8 
           5530       5.3646e+8 
           5550      5.30204e+8 
           5570      5.22347e+8 
           5590      5.13456e+8 
           5610      5.09131e+8 
           5630      5.02418e+8 
           5650      4.95186e+8 
           5670      4.87117e+8 
           5690      4.72819e+8 
           5710      4.61389e+8 
           5730      4.56396e+8 
           5750      4.48782e+8 
           5770      4.45394e+8 
           5790       4.3931e+8 
           5810      4.32508e+8 
           5830      4.27096e+8 
           5850      4.24478e+8 
           5870      4.12144e+8 
           5890      4.13943e+8 
           5910      4.10499e+8 
           5930      4.06363e+8 
           5950      4.02572e+8 
           5970      4.00312e+8 
           5990      3.95019e+8 
           6010      3.91633e+8 
           6030      3.85889e+8 
           6050      3.81356e+8 
           6070      3.77099e+8 
           6090      3.72828e+8 
           6110      3.67555e+8 
           6130      3.63276e+8 
           6150      3.57401e+8 
           6170      3.53119e+8 
           6190      3.50339e+8 
           6210      3.46484e+8 
           6230      3.41438e+8 
           6250      3.36894e+8 
           6270      3.33694e+8 
           6290      3.29747e+8 
           6310      3.24301e+8 
           6330      3.22095e+8 
           6350      3.17453e+8 
           6370      3.14618e+8 
           6390      3.10871e+8 
           6410       3.0655e+8 
           6430      3.03653e+8 
           6450       2.9969e+8 
           6470      2.94996e+8 
           6490      2.91392e+8 
           6510       2.8684e+8 
           6530      2.83734e+8 
           6550      2.77771e+8 
           6570      2.51479e+8 
           6590      2.74045e+8 
           6610      2.72467e+8 
           6630       2.6996e+8 
           6650      2.66456e+8 
           6670      2.60626e+8 
           6690      2.57269e+8 
           6710      2.56884e+8 
           6730       2.5318e+8 
           6750      2.51517e+8 
           6770      2.49227e+8 
           6790      2.45482e+8 
           6810      2.43717e+8 
           6830      2.40701e+8 
           6850      2.38237e+8 
           6870      2.35312e+8 
           6890      2.31424e+8 
           6910      2.28879e+8 
           6930      2.28195e+8 
           6950      2.25652e+8 
           6970      2.23219e+8 
           6990      2.20671e+8 
           7010      2.17803e+8 
           7030       2.1514e+8 
           7050      2.13027e+8 
           7070      2.08198e+8 
           7090      2.09004e+8 
           7110      2.05683e+8 
           7130      2.03694e+8 
           7150      2.02431e+8 
           7170      1.99669e+8 
           7190      1.97874e+8 
           7210      1.96075e+8 
           7230      1.92037e+8 
           7250       1.9133e+8 
           7270       1.8993e+8 
           7290      1.86649e+8 
           7310      1.85706e+8 
           7330      1.83944e+8 
           7350      1.82024e+8 
           7370      1.80129e+8 
           7390      1.78362e+8 
           7410      1.76419e+8 
           7430      1.74672e+8 
           7450      1.72629e+8 
           7470      1.69971e+8 
           7490        1.684e+8 
           7510      1.67437e+8 
           7530      1.65586e+8 
           7550      1.64181e+8 
           7570      1.62453e+8 
           7590      1.59885e+8 
           7610       1.5859e+8 
           7630      1.57391e+8 
           7650      1.55764e+8 
           7670      1.54518e+8 
           7690      1.52282e+8 
           7710      1.51119e+8 
           7730      1.49007e+8 
           7750      1.48258e+8 
           7770      1.46978e+8 
           7790      1.45529e+8 
           7810      1.44136e+8 
           7830      1.42731e+8 
           7850      1.41032e+8 
           7870      1.39313e+8 
           7890      1.38021e+8 
           7910      1.37083e+8 
           7930      1.35757e+8 
           7950      1.34634e+8 
           7970      1.33075e+8 
           7990      1.31944e+8 
           8010      1.30687e+8 
           8030        1.293e+8 
           8050      1.28287e+8 
           8070      1.27056e+8 
           8090      1.25755e+8 
           8110      1.23554e+8 
           8130      1.23483e+8 
           8150      1.22191e+8 
           8170      1.21114e+8 
           8190      1.19035e+8 
           8210      1.16958e+8 
           8230      1.15484e+8 
           8250      1.15068e+8 
           8270      1.12964e+8 
           8290      1.12875e+8 
           8310       1.1212e+8 
           8330      1.10751e+8 
           8350      1.09324e+8 
           8370      1.08673e+8 
           8390      1.08129e+8 
           8410       1.0696e+8 
           8430      1.06204e+8 
           8450      1.04858e+8 
           8470      1.04274e+8 
           8490      1.03308e+8 
           8510      1.01689e+8 
           8530      1.01627e+8 
           8550      9.99149e+7 
           8570      1.00393e+8 
