# Kurucz ODFNEW /NOVER (2003)
# teff = 23000 K (value for the effective temperature for the model. Temperatures are given in K)
# logg = 5 log(cm/s2) (value for Log(G) for the model.)
# meta = -0.5  (value for the Metallicity for the model.)
# lh = 1.25  (l/Hp where l is the  mixing length of the convective element and Hp is the pressure scale height)
# vtur = 2 km/s (Microturbulence velocity)
# alpha = 0.4  (Alpha)
#
# column 1: WAVELENGTH (ANGSTROM), Wavelength in Angstrom
# column 2: FLUX (ERG/CM2/S/A), Flux in erg/cm2/s/A
          147.2     8.72528e-16 
            151     4.13525e-15 
          155.2     2.11379e-14 
          158.8     7.99444e-14 
            162     2.48684e-13 
            166     9.66418e-13 
          170.3     3.87211e-12 
          173.4      1.0115e-11 
          176.8     2.78875e-11 
          180.2     7.40766e-11 
          181.7     1.12676e-10 
          186.1     3.71919e-10 
            191       1.3211e-9 
          193.9      2.71506e-9 
          198.4      7.97866e-9 
          201.8      1.74806e-8 
            205       3.5759e-8 
          210.5      1.16513e-7 
          216.2      3.72994e-7 
          219.8      7.55002e-7 
            223       1.3871e-6 
          226.8      2.79627e-6 
            230      3.27648e-5 
            234       7.7209e-5 
            240     0.000202466 
          246.5     0.000541885 
          252.4      0.00127745 
          256.8      0.00229512 
            260      0.00360473 
            264      0.00606207 
          268.5       0.0106614 
          273.5       0.0194841 
          278.5       0.0349975 
            284       0.0653354 
            290        0.124455 
            296        0.230408 
            301        0.378143 
            308        0.725549 
            318          1.8195 
            328          4.1639 
            338         9.27281 
            348         19.4521 
            357         37.8949 
            366         69.7263 
            375           121.4 
            385         220.568 
            395         385.675 
            405         655.547 
            414         1038.98 
            422         1516.19 
            430         2193.34 
            441         3576.66 
            451         5471.63 
            460         7818.92 
            470         11487.6 
            480         16534.2 
            490         23477.7 
            500         32853.8 
            506          236570 
            512          930025 
            520      1.15791e+6 
            530      1.56767e+6 
            540      1.74774e+6 
            550      2.45129e+6 
            560      2.90139e+6 
            570      3.59719e+6 
            580      3.69181e+6 
            590      4.86491e+6 
            600      5.81953e+6 
            610      6.97602e+6 
            620      7.92768e+6 
            630      9.15702e+6 
            640      9.90294e+6 
            650      1.08792e+7 
            658      1.29038e+7 
            665      1.41236e+7 
            675      1.55479e+7 
            685      1.72313e+7 
            695      2.03213e+7 
            705      2.22047e+7 
            716      2.51711e+7 
            726      2.73929e+7 
            735      2.99375e+7 
            745      3.35138e+7 
            755      3.68386e+7 
            765      4.02225e+7 
            775      4.41494e+7 
            785      4.81524e+7 
            795      5.14394e+7 
            805      5.55643e+7 
            815      5.95246e+7 
            825      6.47214e+7 
            835      6.68384e+7 
            845      7.29004e+7 
            855       7.7683e+7 
            865      8.35504e+7 
            875      8.95244e+7 
            885      9.62669e+7 
            895      1.02128e+8 
            905      1.05196e+8 
            915      1.38682e+8 
            925      5.02247e+8 
            935      1.29546e+9 
            945      4.80243e+9 
            955     1.01772e+10 
            965     1.46035e+10 
            975       3.1888e+9 
            985     2.10306e+10 
            995     2.05525e+10 
           1005     2.27319e+10 
           1015     1.78527e+10 
           1025      2.93502e+9 
           1035     1.30716e+10 
           1045     2.50226e+10 
           1055     2.43789e+10 
           1065     1.99823e+10 
           1075     2.30483e+10 
           1085     2.09686e+10 
           1095     2.29957e+10 
           1105     2.02208e+10 
           1115       1.931e+10 
           1125     1.73886e+10 
           1135     2.05524e+10 
           1145     1.75985e+10 
           1155     1.90403e+10 
           1165     1.91667e+10 
           1175     1.44525e+10 
           1185     1.83945e+10 
           1195     1.45853e+10 
           1205      8.44435e+9 
           1215      2.60736e+9 
           1225      9.14243e+9 
           1235      1.5249e+10 
           1245     1.60443e+10 
           1255     1.56198e+10 
           1265     1.51655e+10 
           1275     1.57512e+10 
           1285      1.5557e+10 
           1295     1.11683e+10 
           1305      1.0842e+10 
           1315     1.46267e+10 
           1325      1.3783e+10 
           1335     1.30816e+10 
           1345     1.32387e+10 
           1355     1.32155e+10 
           1365      1.2192e+10 
           1375     1.20276e+10 
           1385     1.21024e+10 
           1395     1.00881e+10 
           1405      1.0579e+10 
           1415     1.10554e+10 
           1425     1.09543e+10 
           1435      1.0928e+10 
           1442       1.121e+10 
           1447     1.10003e+10 
           1455      1.0744e+10 
           1465     1.02345e+10 
           1475     1.00699e+10 
           1485      9.70308e+9 
           1495      9.66861e+9 
           1505      8.90236e+9 
           1512      8.40222e+9 
           1517      8.64339e+9 
           1525      8.70926e+9 
           1535      7.93774e+9 
           1545      8.04949e+9 
           1555      7.64014e+9 
           1565      7.80615e+9 
           1575      8.06712e+9 
           1585      7.90341e+9 
           1595      7.93182e+9 
           1605      7.75037e+9 
           1615      7.61497e+9 
           1625      7.49129e+9 
           1635      7.61442e+9 
           1645      7.48468e+9 
           1655      7.23826e+9 
           1665      7.41194e+9 
           1672      7.15151e+9 
           1677      7.34536e+9 
           1685      7.25322e+9 
           1695      6.98904e+9 
           1705      6.70409e+9 
           1715      6.42517e+9 
           1725      6.31722e+9 
           1735      6.41318e+9 
           1745      6.26727e+9 
           1755       6.3043e+9 
           1765      5.96399e+9 
           1775      5.91683e+9 
           1785      5.86455e+9 
           1795      5.97653e+9 
           1805      5.91766e+9 
           1815      5.56867e+9 
           1825        5.663e+9 
           1835      5.47648e+9 
           1845      5.09267e+9 
           1855      5.02664e+9 
           1865        5.054e+9 
           1875      5.19248e+9 
           1885      4.78966e+9 
           1895      4.52313e+9 
           1905       4.7627e+9 
           1915      4.55273e+9 
           1925      4.41141e+9 
           1935        4.524e+9 
           1945      4.56663e+9 
           1955      4.26267e+9 
           1967      4.45901e+9 
           1976      4.59052e+9 
           1984      4.30311e+9 
           1995      4.20136e+9 
           2005      4.25955e+9 
           2015      4.19353e+9 
           2025      4.29718e+9 
           2035      4.04937e+9 
           2045      4.03716e+9 
           2055      3.89948e+9 
           2065       3.9505e+9 
           2074      3.99669e+9 
           2078      3.83492e+9 
           2085      3.88166e+9 
           2095      3.71809e+9 
           2105      3.77884e+9 
           2115      3.74647e+9 
           2125      3.78162e+9 
           2135      3.68843e+9 
           2145      3.57281e+9 
           2155      3.62336e+9 
           2165      3.57221e+9 
           2175      3.51634e+9 
           2185      3.46127e+9 
           2195      3.45271e+9 
           2205      3.39419e+9 
           2215      3.34495e+9 
           2225       3.2648e+9 
           2235      3.24704e+9 
           2245       3.2282e+9 
           2255      3.15044e+9 
           2265      3.15616e+9 
           2275      3.11101e+9 
           2285      3.09365e+9 
           2295      2.98271e+9 
           2305      2.99212e+9 
           2315      2.93083e+9 
           2325       2.9001e+9 
           2335      2.81209e+9 
           2345      2.77514e+9 
           2355      2.78042e+9 
           2365      2.72187e+9 
           2375      2.70006e+9 
           2385      2.65813e+9 
           2395       2.6501e+9 
           2405      2.59873e+9 
           2415      2.56601e+9 
           2425      2.56982e+9 
           2435      2.50726e+9 
           2445      2.49316e+9 
           2455      2.48152e+9 
           2465      2.43538e+9 
           2475      2.40984e+9 
           2485      2.38926e+9 
           2495      2.29504e+9 
           2505      2.32971e+9 
           2513      2.25167e+9 
           2518      2.29223e+9 
           2525      2.25673e+9 
           2535      2.22172e+9 
           2545      2.17347e+9 
           2555      2.19412e+9 
           2565      2.15752e+9 
           2575       2.1588e+9 
           2585      2.13943e+9 
           2595      2.11586e+9 
           2605      2.09804e+9 
           2615      2.07723e+9 
           2625      2.05542e+9 
           2635      2.03247e+9 
           2645         2.03e+9 
           2655      2.00699e+9 
           2665      1.96008e+9 
           2675      1.95166e+9 
           2685      1.94295e+9 
           2695      1.89541e+9 
           2705      1.89306e+9 
           2715      1.86989e+9 
           2725      1.83194e+9 
           2735        1.836e+9 
           2745      1.78025e+9 
           2755      1.77291e+9 
           2765      1.75261e+9 
           2775      1.76227e+9 
           2785      1.73759e+9 
           2795      1.66658e+9 
           2805      1.68786e+9 
           2815       1.6891e+9 
           2825      1.65021e+9 
           2835      1.61009e+9 
           2845      1.62732e+9 
           2855      1.61322e+9 
           2865      1.60248e+9 
           2875      1.58324e+9 
           2885      1.56803e+9 
           2895      1.55182e+9 
           2910      1.52545e+9 
           2930      1.48934e+9 
           2950      1.44978e+9 
           2970      1.43604e+9 
           2990       1.4021e+9 
           3010      1.37613e+9 
           3030      1.35302e+9 
           3050      1.32573e+9 
           3070      1.30012e+9 
           3090      1.26819e+9 
           3110      1.24765e+9 
           3130      1.22553e+9 
           3150      1.20174e+9 
           3170      1.17751e+9 
           3190      1.14239e+9 
           3210      1.13328e+9 
           3230      1.11164e+9 
           3250      1.09144e+9 
           3270      1.07231e+9 
           3290      1.05079e+9 
           3310      1.03342e+9 
           3330      1.01404e+9 
           3350      9.93512e+8 
           3370       9.7711e+8 
           3390      9.59878e+8 
           3410      9.42723e+8 
           3430      9.21898e+8 
           3450      9.02125e+8 
           3470      8.88502e+8 
           3490       8.7278e+8 
           3510      8.58643e+8 
           3530      8.44768e+8 
           3550      8.30763e+8 
           3570      8.21894e+8 
           3590      8.00076e+8 
           3610      7.89761e+8 
           3630      7.74078e+8 
           3640      7.74181e+8 
           3650      7.61914e+8 
           3670      7.52849e+8 
           3690      7.40781e+8 
           3710      7.16175e+8 
           3730      6.87963e+8 
           3750      6.87878e+8 
           3770      6.74502e+8 
           3790      7.15057e+8 
           3810      7.52623e+8 
           3830      6.47114e+8 
           3850      7.86246e+8 
           3870      8.14085e+8 
           3890      6.04775e+8 
           3910      8.09317e+8 
           3930      8.07004e+8 
           3950      7.85765e+8 
           3970      5.64584e+8 
           3990      7.47373e+8 
           4010       7.6552e+8 
           4030      7.04287e+8 
           4050      7.53941e+8 
           4070      7.26718e+8 
           4090      6.34702e+8 
           4110      5.43703e+8 
           4130      6.76558e+8 
           4150      6.81908e+8 
           4170      6.80929e+8 
           4190      6.73993e+8 
           4210      6.65501e+8 
           4230      6.53601e+8 
           4250       6.4031e+8 
           4270      6.22094e+8 
           4290      6.15938e+8 
           4310      5.96424e+8 
           4330      5.09669e+8 
           4350      4.60895e+8 
           4370      5.63765e+8 
           4390      5.44234e+8 
           4410      5.59784e+8 
           4430      5.50728e+8 
           4450      5.44686e+8 
           4470      4.99267e+8 
           4490       5.2355e+8 
           4510       5.2201e+8 
           4530      5.12877e+8 
           4550      5.04756e+8 
           4570      4.96957e+8 
           4590      4.89631e+8 
           4610      4.81723e+8 
           4630      4.74143e+8 
           4650      4.64707e+8 
           4670      4.60079e+8 
           4690       4.5445e+8 
           4710      4.37065e+8 
           4730      4.38462e+8 
           4750      4.31538e+8 
           4770      4.28158e+8 
           4790      4.20404e+8 
           4810      4.11216e+8 
           4830      3.99307e+8 
           4850      3.51032e+8 
           4870      3.10048e+8 
           4890      3.79312e+8 
           4910      3.81291e+8 
           4930      3.64393e+8 
           4950      3.73954e+8 
           4970      3.69959e+8 
           4990      3.64503e+8 
           5010      3.51152e+8 
           5030      3.53666e+8 
           5050      3.43706e+8 
           5070      3.44517e+8 
           5090      3.39518e+8 
           5110      3.34485e+8 
           5130      3.29419e+8 
           5150       3.2482e+8 
           5170      3.21142e+8 
           5190      3.16672e+8 
           5210      3.10623e+8 
           5230      3.08238e+8 
           5250      3.04049e+8 
           5270      2.99806e+8 
           5290      2.95995e+8 
           5310      2.91979e+8 
           5330      2.87763e+8 
           5350      2.83417e+8 
           5370      2.80487e+8 
           5390      2.76737e+8 
           5410      2.72957e+8 
           5430       2.6879e+8 
           5450      2.65527e+8 
           5470       2.6199e+8 
           5490      2.59022e+8 
           5510      2.55582e+8 
           5530      2.52234e+8 
           5550      2.49098e+8 
           5570      2.45795e+8 
           5590      2.42785e+8 
           5610      2.39381e+8 
           5630      2.36697e+8 
           5650      2.32534e+8 
           5670      2.29701e+8 
           5690      2.27205e+8 
           5710      2.24784e+8 
           5730      2.22094e+8 
           5750      2.19138e+8 
           5770      2.16649e+8 
           5790      2.13952e+8 
           5810      2.11232e+8 
           5830       2.0861e+8 
           5850      2.06085e+8 
           5870      1.95117e+8 
           5890      1.99625e+8 
           5910      1.98535e+8 
           5930       1.9617e+8 
           5950       1.9347e+8 
           5970      1.91542e+8 
           5990      1.88984e+8 
           6010      1.86998e+8 
           6030      1.84723e+8 
           6050      1.82567e+8 
           6070      1.80385e+8 
           6090      1.78196e+8 
           6110      1.76164e+8 
           6130      1.74104e+8 
           6150      1.71659e+8 
           6170      1.69983e+8 
           6190      1.68061e+8 
           6210      1.66111e+8 
           6230      1.64182e+8 
           6250      1.62101e+8 
           6270      1.60369e+8 
           6290      1.58532e+8 
           6310      1.56611e+8 
           6330      1.54955e+8 
           6350      1.52532e+8 
           6370      1.51075e+8 
           6390      1.49678e+8 
           6410      1.47939e+8 
           6430      1.46419e+8 
           6450      1.44697e+8 
           6470      1.42967e+8 
           6490      1.41184e+8 
           6510      1.39215e+8 
           6530      1.36429e+8 
           6550      1.26579e+8 
           6570      1.10946e+8 
           6590      1.29731e+8 
           6610      1.31405e+8 
           6630      1.30562e+8 
           6650      1.29411e+8 
           6670      1.26223e+8 
           6690      1.24981e+8 
           6710      1.25434e+8 
           6730      1.24066e+8 
           6750      1.22786e+8 
           6770      1.21478e+8 
           6790      1.19922e+8 
           6810      1.18853e+8 
           6830       1.1756e+8 
           6850      1.16369e+8 
           6870      1.15142e+8 
           6890      1.13919e+8 
           6910      1.12708e+8 
           6930      1.11493e+8 
           6950      1.10377e+8 
           6970      1.09232e+8 
           6990      1.08076e+8 
           7010      1.06947e+8 
           7030      1.05836e+8 
           7050      1.04736e+8 
           7070       1.0177e+8 
           7090      1.02628e+8 
           7110      1.01567e+8 
           7130      1.00532e+8 
           7150      9.94762e+7 
           7170      9.84823e+7 
           7190      9.75052e+7 
           7210      9.65157e+7 
           7230      9.48149e+7 
           7250      9.45362e+7 
           7270      9.36319e+7 
           7290       9.1857e+7 
           7310      9.17569e+7 
           7330      9.08502e+7 
           7350       8.9952e+7 
           7370      8.90622e+7 
           7390      8.81807e+7 
           7410      8.73142e+7 
           7430      8.64081e+7 
           7450      8.56054e+7 
           7470      8.47087e+7 
           7490      8.39212e+7 
           7510      8.30941e+7 
           7530      8.23144e+7 
           7550      8.15286e+7 
           7570      8.07434e+7 
           7590      7.99587e+7 
           7610      7.91877e+7 
           7630      7.84366e+7 
           7650      7.76859e+7 
           7670      7.69482e+7 
           7690      7.62172e+7 
           7710      7.54928e+7 
           7730      7.47685e+7 
           7750      7.40695e+7 
           7770      7.29773e+7 
           7790      7.26775e+7 
           7810      7.19599e+7 
           7830      7.13224e+7 
           7850       7.0611e+7 
           7870      6.99545e+7 
           7890      6.91888e+7 
           7910      6.87671e+7 
           7930      6.81391e+7 
           7950      6.73854e+7 
           7970      6.67985e+7 
           7990      6.60751e+7 
           8010      6.55576e+7 
           8030      6.49218e+7 
           8050      6.43148e+7 
           8070      6.37418e+7 
           8090      6.31047e+7 
           8110      6.25705e+7 
           8130      6.20464e+7 
           8150        6.147e+7 
           8170      6.09606e+7 
           8190      6.03375e+7 
           8210       5.9675e+7 
           8230      5.92018e+7 
           8250      5.87988e+7 
           8270       5.8019e+7 
           8290      5.77504e+7 
           8310        5.726e+7 
           8330      5.67356e+7 
           8350      5.59995e+7 
           8370      5.56569e+7 
           8390      5.52795e+7 
           8410      5.47932e+7 
           8430       5.4279e+7 
           8450      5.33259e+7 
           8470      5.33422e+7 
           8490       5.2741e+7 
           8510      5.23581e+7 
           8530      5.18178e+7 
           8550      5.11979e+7 
           8570      5.11936e+7 
