# Kurucz ODFNEW /NOVER (2003)
# teff = 34000 K (value for the effective temperature for the model. Temperatures are given in K)
# logg = 4 log(cm/s2) (value for Log(G) for the model.)
# meta = 0  (value for the Metallicity for the model.)
# lh = 1.25  (l/Hp where l is the  mixing length of the convective element and Hp is the pressure scale height)
# vtur = 2 km/s (Microturbulence velocity)
# alpha = 0.4  (Alpha)
#
# column 1: WAVELENGTH (ANGSTROM), Wavelength in Angstrom
# column 2: FLUX (ERG/CM2/S/A), Flux in erg/cm2/s/A
          147.2      1.55172e-5 
            151      4.04107e-5 
          155.2       0.0001096 
          158.8     0.000247573 
            162     0.000495286 
            166       0.0011427 
          170.3      0.00267446 
          173.4      0.00484375 
          176.8      0.00912505 
          180.2       0.0166542 
          181.7       0.0218153 
          186.1       0.0455797 
            191       0.0998378 
          193.9        0.155743 
          198.4        0.305125 
          201.8        0.494733 
            205        0.769254 
          210.5         1.59635 
          216.2         3.24531 
          219.8         5.06236 
            223         7.37148 
          226.8         11.6091 
            230         10229.4 
            234         22981.1 
            240         33791.2 
          246.5         53073.7 
          252.4         89105.9 
          256.8          119481 
            260          199371 
            264          354297 
          268.5          557212 
          273.5          724175 
          278.5          812111 
            284      1.69868e+6 
            290      2.35888e+6 
            296      2.87496e+6 
            301      5.01885e+6 
            308      1.03277e+7 
            318      2.31293e+7 
            328      3.21528e+7 
            338      5.81958e+7 
            348      8.62965e+7 
            357      1.67057e+8 
            366      3.81634e+8 
            375      4.21026e+8 
            385      5.88661e+8 
            395      1.17538e+9 
            405      1.55205e+9 
            414      1.86299e+9 
            422      1.96797e+9 
            430       1.9519e+9 
            441      2.28888e+9 
            451      2.44002e+9 
            460      2.28014e+9 
            470      2.56582e+9 
            480      2.93192e+9 
            490      2.58784e+9 
            500      3.40458e+9 
            506      3.98688e+9 
            512     2.11269e+10 
            520     1.97128e+10 
            530     1.75691e+10 
            540     1.67009e+10 
            550     1.63258e+10 
            560     2.26734e+10 
            570     2.66134e+10 
            580     2.47752e+10 
            590     2.55107e+10 
            600     1.69455e+10 
            610     2.15691e+10 
            620     2.82821e+10 
            630     2.71105e+10 
            640     2.84423e+10 
            650      2.6223e+10 
            658     1.84282e+10 
            665     2.50849e+10 
            675     3.00573e+10 
            685     2.24998e+10 
            695      2.9452e+10 
            705     2.01673e+10 
            716     3.14997e+10 
            726      3.0981e+10 
            735     3.11272e+10 
            745     2.69543e+10 
            755     2.72291e+10 
            765     2.75737e+10 
            775     2.92659e+10 
            785     2.76618e+10 
            795     2.95733e+10 
            805     2.76804e+10 
            815     2.76059e+10 
            825     2.93629e+10 
            835     2.19848e+10 
            845     2.78844e+10 
            855     2.72138e+10 
            865     2.82251e+10 
            875     2.81436e+10 
            885     2.81374e+10 
            895     2.80469e+10 
            905      2.7028e+10 
            915     2.73026e+10 
            925      6.1263e+10 
            935     8.63798e+10 
            945     9.89847e+10 
            955     1.07666e+11 
            965       1.155e+11 
            975     6.54048e+10 
            985     9.63621e+10 
            995     8.70033e+10 
           1005     8.75893e+10 
           1015     9.21688e+10 
           1025      8.1214e+10 
           1035     9.11452e+10 
           1045     9.94619e+10 
           1055     9.53987e+10 
           1065     8.53618e+10 
           1075     8.67606e+10 
           1085     8.12262e+10 
           1095     8.48236e+10 
           1105     8.12219e+10 
           1115     7.94352e+10 
           1125     6.59561e+10 
           1135     7.63592e+10 
           1145     7.42956e+10 
           1155     6.90978e+10 
           1165     6.82109e+10 
           1175      4.9774e+10 
           1185     6.23623e+10 
           1195     5.98298e+10 
           1205      5.8143e+10 
           1215     4.96896e+10 
           1225      5.6029e+10 
           1235     5.86994e+10 
           1245     5.67078e+10 
           1255     5.65109e+10 
           1265     5.72854e+10 
           1275     5.85039e+10 
           1285     5.80509e+10 
           1295     5.51338e+10 
           1305     5.42721e+10 
           1315     5.60816e+10 
           1325     5.44379e+10 
           1335      5.2839e+10 
           1345     5.24852e+10 
           1355     5.09665e+10 
           1365     4.92196e+10 
           1375     4.76435e+10 
           1385     4.64552e+10 
           1395     3.74924e+10 
           1405     3.79187e+10 
           1415     4.45834e+10 
           1425     4.02494e+10 
           1435     4.24273e+10 
           1442     4.16196e+10 
           1447     4.14692e+10 
           1455      3.9573e+10 
           1465     3.89574e+10 
           1475     3.89764e+10 
           1485     3.89282e+10 
           1495     3.76978e+10 
           1505      3.7142e+10 
           1512     3.67791e+10 
           1517     3.67302e+10 
           1525      3.5484e+10 
           1535     3.17439e+10 
           1545      2.6344e+10 
           1555     2.67712e+10 
           1565      2.9791e+10 
           1575      3.1007e+10 
           1585     3.07385e+10 
           1595     3.06652e+10 
           1605     2.88219e+10 
           1615     2.76962e+10 
           1625     2.80782e+10 
           1635     2.81065e+10 
           1645     2.77254e+10 
           1655     2.80351e+10 
           1665     2.72767e+10 
           1672       2.546e+10 
           1677     2.89949e+10 
           1685     2.78338e+10 
           1695     2.70081e+10 
           1705     2.65976e+10 
           1715     2.54724e+10 
           1725     2.46627e+10 
           1735     2.54004e+10 
           1745     2.51237e+10 
           1755     2.45863e+10 
           1765     2.42262e+10 
           1775     2.35499e+10 
           1785     2.37148e+10 
           1795     2.30584e+10 
           1805     2.29401e+10 
           1815      2.2473e+10 
           1825     2.20272e+10 
           1835     2.20003e+10 
           1845     2.12833e+10 
           1855     2.12657e+10 
           1865     2.11087e+10 
           1875     2.04919e+10 
           1885     1.98892e+10 
           1895     1.97574e+10 
           1905     1.98776e+10 
           1915     1.93983e+10 
           1925     1.83656e+10 
           1935     1.90537e+10 
           1945     1.90156e+10 
           1955     1.77284e+10 
           1967     1.81574e+10 
           1976     1.81872e+10 
           1984     1.78313e+10 
           1995     1.73465e+10 
           2005     1.75337e+10 
           2015     1.73527e+10 
           2025     1.71367e+10 
           2035     1.67013e+10 
           2045     1.63996e+10 
           2055     1.29763e+10 
           2065     1.25143e+10 
           2074     1.30321e+10 
           2078     1.31451e+10 
           2085     1.42235e+10 
           2095     1.49343e+10 
           2105     1.49365e+10 
           2115     1.50389e+10 
           2125      1.4655e+10 
           2135     1.46073e+10 
           2145     1.43772e+10 
           2155     1.43252e+10 
           2165     1.36491e+10 
           2175     1.39459e+10 
           2185     1.35013e+10 
           2195      1.3689e+10 
           2205      1.3466e+10 
           2215     1.29461e+10 
           2225     1.30522e+10 
           2235     1.28738e+10 
           2245     1.26637e+10 
           2255     1.22649e+10 
           2265     1.23228e+10 
           2275      1.2198e+10 
           2285     1.18526e+10 
           2295       1.104e+10 
           2305     1.13763e+10 
           2315     1.13267e+10 
           2325     1.12894e+10 
           2335     1.11432e+10 
           2345     1.09641e+10 
           2355     1.07632e+10 
           2365     1.05868e+10 
           2375     1.03703e+10 
           2385      9.93181e+9 
           2395     1.00008e+10 
           2405       9.9842e+9 
           2415       9.8203e+9 
           2425      9.76125e+9 
           2435      9.59292e+9 
           2445      9.47995e+9 
           2455      9.32475e+9 
           2465      9.22134e+9 
           2475      9.09962e+9 
           2485      8.78068e+9 
           2495      6.41557e+9 
           2505      8.34325e+9 
           2513       8.1894e+9 
           2518       8.3209e+9 
           2525      8.49168e+9 
           2535       8.4342e+9 
           2545      8.27964e+9 
           2555      8.18841e+9 
           2565      8.08231e+9 
           2575      8.00091e+9 
           2585      7.90417e+9 
           2595      7.72309e+9 
           2605      7.70943e+9 
           2615      7.55197e+9 
           2625      7.50438e+9 
           2635        7.428e+9 
           2645      7.30355e+9 
           2655      7.23421e+9 
           2665      7.10257e+9 
           2675      6.92479e+9 
           2685       6.9334e+9 
           2695      6.82914e+9 
           2705       6.7844e+9 
           2715       6.6783e+9 
           2725      6.59183e+9 
           2735      6.41478e+9 
           2745      6.46963e+9 
           2755      6.37112e+9 
           2765      6.28422e+9 
           2775      6.23608e+9 
           2785      6.11852e+9 
           2795      5.94991e+9 
           2805      5.97651e+9 
           2815        5.927e+9 
           2825      5.84876e+9 
           2835      5.76914e+9 
           2845       5.7361e+9 
           2855      5.65162e+9 
           2865      5.56496e+9 
           2875      5.49988e+9 
           2885      5.44598e+9 
           2895       5.3792e+9 
           2910      5.25404e+9 
           2930      5.16852e+9 
           2950      5.03677e+9 
           2970      4.91748e+9 
           2990      4.77185e+9 
           3010      4.64378e+9 
           3030      4.51251e+9 
           3050      4.45474e+9 
           3070      4.36851e+9 
           3090       4.2569e+9 
           3110      4.19103e+9 
           3130      4.08112e+9 
           3150      4.01123e+9 
           3170      3.91916e+9 
           3190      3.83982e+9 
           3210      3.71827e+9 
           3230      3.66983e+9 
           3250      3.60697e+9 
           3270      3.49263e+9 
           3290      3.44093e+9 
           3310      3.36406e+9 
           3330      3.28613e+9 
           3350      3.20112e+9 
           3370      3.14652e+9 
           3390      3.10012e+9 
           3410      3.03328e+9 
           3430      2.98309e+9 
           3450      2.90024e+9 
           3470      2.85792e+9 
           3490      2.80414e+9 
           3510      2.75047e+9 
           3530      2.69666e+9 
           3550       2.6411e+9 
           3570      2.59175e+9 
           3590      2.53665e+9 
           3610      2.48558e+9 
           3630      2.43577e+9 
           3640      2.39394e+9 
           3650      2.24132e+9 
           3670      2.20431e+9 
           3690      2.16435e+9 
           3710       2.1084e+9 
           3730       2.0894e+9 
           3750      2.10968e+9 
           3770       2.0885e+9 
           3790      2.12681e+9 
           3810      2.14949e+9 
           3830      1.99802e+9 
           3850      2.11591e+9 
           3870       2.0535e+9 
           3890      1.88685e+9 
           3910      2.03205e+9 
           3930      1.97057e+9 
           3950      1.92833e+9 
           3970      1.73549e+9 
           3990      1.88643e+9 
           4010      1.84838e+9 
           4030       1.7893e+9 
           4050      1.79181e+9 
           4070      1.72792e+9 
           4090      1.65591e+9 
           4110      1.55267e+9 
           4130      1.64682e+9 
           4150      1.62456e+9 
           4170      1.61142e+9 
           4190      1.57815e+9 
           4210      1.54304e+9 
           4230      1.53185e+9 
           4250      1.49465e+9 
           4270      1.46599e+9 
           4290      1.43893e+9 
           4310      1.40648e+9 
           4330      1.35152e+9 
           4350      1.27195e+9 
           4370       1.3453e+9 
           4390      1.31595e+9 
           4410      1.29716e+9 
           4430      1.28611e+9 
           4450      1.26284e+9 
           4470      1.22907e+9 
           4490      1.22476e+9 
           4510      1.19842e+9 
           4530      1.18483e+9 
           4550      1.15535e+9 
           4570      1.15005e+9 
           4590      1.12738e+9 
           4610      1.10893e+9 
           4630      1.08584e+9 
           4650      1.03676e+9 
           4670      1.05319e+9 
           4690      1.02268e+9 
           4710      1.01773e+9 
           4730      1.01936e+9 
           4750      1.00251e+9 
           4770      9.88842e+8 
           4790      9.73657e+8 
           4810      9.57223e+8 
           4830      9.41044e+8 
           4850      9.09388e+8 
           4870      8.42224e+8 
           4890      8.98069e+8 
           4910      8.84829e+8 
           4930      8.64598e+8 
           4950      8.56518e+8 
           4970      8.49196e+8 
           4990      8.36729e+8 
           5010      8.14708e+8 
           5030      8.08689e+8 
           5050       7.9686e+8 
           5070      7.88519e+8 
           5090      7.76794e+8 
           5110      7.65445e+8 
           5130      7.54077e+8 
           5150      7.43274e+8 
           5170      7.31855e+8 
           5190      7.22057e+8 
           5210      7.12083e+8 
           5230      7.02281e+8 
           5250      6.90777e+8 
           5270      6.80348e+8 
           5290      6.72952e+8 
           5310      6.63282e+8 
           5330      6.54137e+8 
           5350      6.45215e+8 
           5370      6.36211e+8 
           5390      6.26985e+8 
           5410      6.11739e+8 
           5430      6.10359e+8 
           5450      6.01943e+8 
           5470      5.93583e+8 
           5490      5.85616e+8 
           5510      5.77067e+8 
           5530      5.69894e+8 
           5550      5.62382e+8 
           5570      5.54513e+8 
           5590      5.45369e+8 
           5610      5.40134e+8 
           5630      5.32964e+8 
           5650      5.25822e+8 
           5670      5.18569e+8 
           5690      5.05132e+8 
           5710       4.8637e+8 
           5730      4.80388e+8 
           5750      4.73782e+8 
           5770      4.68489e+8 
           5790      4.62628e+8 
           5810      4.56145e+8 
           5830      4.51547e+8 
           5850      4.48057e+8 
           5870      4.36908e+8 
           5890      4.39256e+8 
           5910      4.35533e+8 
           5930      4.31786e+8 
           5950      4.28388e+8 
           5970      4.25163e+8 
           5990      4.21121e+8 
           6010        4.168e+8 
           6030      4.11336e+8 
           6050      4.06387e+8 
           6070      4.01403e+8 
           6090      3.96719e+8 
           6110      3.91452e+8 
           6130      3.86716e+8 
           6150      3.81884e+8 
           6170      3.76641e+8 
           6190      3.73032e+8 
           6210       3.6864e+8 
           6230      3.63326e+8 
           6250      3.59452e+8 
           6270      3.55389e+8 
           6290      3.51143e+8 
           6310      3.45666e+8 
           6330      3.42817e+8 
           6350      3.38531e+8 
           6370      3.34765e+8 
           6390        3.308e+8 
           6410      3.25823e+8 
           6430       3.2308e+8 
           6450      3.19114e+8 
           6470      3.15119e+8 
           6490      3.11463e+8 
           6510      3.07454e+8 
           6530      3.02685e+8 
           6550        2.973e+8 
           6570      2.73194e+8 
           6590      2.93312e+8 
           6610      2.90746e+8 
           6630      2.87581e+8 
           6650       2.8415e+8 
           6670      2.78553e+8 
           6690      2.74558e+8 
           6710      2.73987e+8 
           6730      2.70897e+8 
           6750      2.68235e+8 
           6770       2.6556e+8 
           6790      2.62519e+8 
           6810      2.59769e+8 
           6830       2.5682e+8 
           6850      2.53966e+8 
           6870       2.5106e+8 
           6890      2.46685e+8 
           6910      2.45125e+8 
           6930      2.43068e+8 
           6950        2.404e+8 
           6970      2.37797e+8 
           6990      2.35189e+8 
           7010      2.32354e+8 
           7030      2.29654e+8 
           7050      2.27277e+8 
           7070      2.22624e+8 
           7090      2.22786e+8 
           7110      2.20283e+8 
           7130      2.17981e+8 
           7150      2.15754e+8 
           7170      2.12529e+8 
           7190      2.10788e+8 
           7210      2.08975e+8 
           7230      2.06256e+8 
           7250       2.0441e+8 
           7270       2.0246e+8 
           7290      1.99331e+8 
           7310      1.98108e+8 
           7330      1.96187e+8 
           7350      1.94144e+8 
           7370      1.92093e+8 
           7390      1.90179e+8 
           7410      1.88152e+8 
           7430      1.86287e+8 
           7450      1.84223e+8 
           7470      1.82265e+8 
           7490      1.80172e+8 
           7510      1.78712e+8 
           7530      1.76914e+8 
           7550      1.75185e+8 
           7570      1.73392e+8 
           7590      1.70433e+8 
           7610      1.69668e+8 
           7630      1.68146e+8 
           7650      1.66457e+8 
           7670      1.64924e+8 
           7690      1.62857e+8 
           7710        1.615e+8 
           7730      1.59536e+8 
           7750      1.58413e+8 
           7770      1.56937e+8 
           7790      1.55393e+8 
           7810      1.53845e+8 
           7830       1.5236e+8 
           7850      1.50722e+8 
           7870      1.49185e+8 
           7890      1.47794e+8 
           7910      1.46548e+8 
           7930      1.45133e+8 
           7950      1.43795e+8 
           7970      1.42244e+8 
           7990      1.40996e+8 
           8010       1.3967e+8 
           8030      1.38251e+8 
           8050       1.3703e+8 
           8070      1.35727e+8 
           8090       1.3436e+8 
           8110      1.32782e+8 
           8130      1.31918e+8 
           8150      1.30574e+8 
           8170      1.29371e+8 
           8190      1.27746e+8 
           8210      1.24498e+8 
           8230      1.22909e+8 
           8250      1.22286e+8 
           8270      1.20858e+8 
           8290        1.201e+8 
           8310      1.19092e+8 
           8330      1.17755e+8 
           8350      1.16494e+8 
           8370      1.15702e+8 
           8390      1.14851e+8 
           8410      1.13805e+8 
           8430      1.12847e+8 
           8450      1.11606e+8 
           8470       1.1088e+8 
           8490      1.09945e+8 
           8510       1.0854e+8 
           8530      1.08187e+8 
           8550      1.06635e+8 
           8570      1.06835e+8 
           8590      1.04557e+8 
