# Kurucz ODFNEW /NOVER (2003)
# teff = 30000 K (value for the effective temperature for the model. Temperatures are given in K)
# logg = 5 log(cm/s2) (value for Log(G) for the model.)
# meta = -2.5  (value for the Metallicity for the model.)
# lh = 1.25  (l/Hp where l is the  mixing length of the convective element and Hp is the pressure scale height)
# vtur = 2 km/s (Microturbulence velocity)
# alpha = 0.4  (Alpha)
#
# column 1: WAVELENGTH (ANGSTROM), Wavelength in Angstrom
# column 2: FLUX (ERG/CM2/S/A), Flux in erg/cm2/s/A
          147.2      1.45035e-8 
            151      4.98649e-8 
          155.2      1.82038e-7 
          158.8      5.22963e-7 
            162      1.28447e-6 
            166      3.76388e-6 
          170.3      1.12785e-5 
          173.4      2.40465e-5 
          176.8       5.3467e-5 
          180.2     0.000115268 
          181.7     0.000160255 
          186.1     0.000408664 
            191      0.00110124 
          193.9      0.00193058 
          198.4       0.0044637 
          201.8      0.00819654 
            205       0.0142498 
          210.5       0.0353959 
          216.2       0.0865046 
          219.8        0.148213 
            223        0.235625 
          226.8        0.401424 
            230          14.132 
            234         37.6626 
            240         71.9056 
          246.5         140.065 
          252.4         250.978 
          256.8         339.636 
            260          498.23 
            264         695.557 
          268.5         1019.26 
          273.5         1523.64 
          278.5         2245.59 
            284         3397.23 
            290         5210.15 
            296         7823.45 
            301         10676.8 
            308         15487.1 
            318         30739.2 
            328         53338.3 
            338         90258.2 
            348          147084 
            357          222572 
            366          331406 
            375          476507 
            385          706897 
            395      1.01792e+6 
            405       1.4379e+6 
            414      1.93743e+6 
            422      2.47889e+6 
            430      3.13894e+6 
            441      4.30327e+6 
            451      5.64943e+6 
            460      7.09216e+6 
            470      9.07186e+6 
            480       1.1432e+7 
            490      1.42514e+7 
            500      1.76038e+7 
            506      8.63413e+7 
            512      3.33395e+8 
            520      3.54131e+8 
            530      4.13517e+8 
            540      3.96793e+8 
            550      4.69585e+8 
            560      4.93256e+8 
            570      5.27908e+8 
            580      5.10892e+8 
            590      5.80884e+8 
            600      6.13284e+8 
            610      6.53217e+8 
            620      6.82876e+8 
            630      7.25088e+8 
            640       7.5058e+8 
            650      7.99924e+8 
            658      8.30666e+8 
            665      8.57944e+8 
            675      8.87448e+8 
            685      9.13673e+8 
            695      9.87557e+8 
            705       1.0106e+9 
            716      1.07084e+9 
            726       1.1133e+9 
            735      1.16514e+9 
            745        1.212e+9 
            755      1.25697e+9 
            765      1.30189e+9 
            775      1.35513e+9 
            785      1.40574e+9 
            795      1.44785e+9 
            805      1.49895e+9 
            815      1.54441e+9 
            825      1.59559e+9 
            835      1.59477e+9 
            845      1.68773e+9 
            855      1.73228e+9 
            865      1.78258e+9 
            875      1.83103e+9 
            885      1.87844e+9 
            895      1.92427e+9 
            905      1.95843e+9 
            915      2.21995e+9 
            925      8.91866e+9 
            935      1.9375e+10 
            945     4.56492e+10 
            955     5.92506e+10 
            965     7.94137e+10 
            975      3.8119e+10 
            985     8.74431e+10 
            995     8.10595e+10 
           1005      8.5978e+10 
           1015     7.78563e+10 
           1025     3.03732e+10 
           1035     7.11802e+10 
           1045     7.89527e+10 
           1055     7.74326e+10 
           1065     7.32351e+10 
           1075     7.23125e+10 
           1085     6.60575e+10 
           1095     6.97296e+10 
           1105     6.68411e+10 
           1115     6.51688e+10 
           1125      6.2018e+10 
           1135     6.25969e+10 
           1145      6.0152e+10 
           1155     5.91262e+10 
           1165     5.78657e+10 
           1175     5.16159e+10 
           1185     5.45365e+10 
           1195     5.20236e+10 
           1205     4.66389e+10 
           1215     2.00785e+10 
           1225     4.42799e+10 
           1235     4.77968e+10 
           1245     4.66845e+10 
           1255     4.61851e+10 
           1265     4.51188e+10 
           1275     4.41473e+10 
           1285     4.31047e+10 
           1295     4.08556e+10 
           1305      4.0369e+10 
           1315     4.01211e+10 
           1325     3.89835e+10 
           1335     3.76492e+10 
           1345     3.73059e+10 
           1355     3.65665e+10 
           1365     3.56101e+10 
           1375     3.48768e+10 
           1385     3.41177e+10 
           1395     3.24281e+10 
           1405     3.19109e+10 
           1415     3.18058e+10 
           1425     3.11216e+10 
           1435     3.04918e+10 
           1442     3.00769e+10 
           1447     2.97399e+10 
           1455     2.92144e+10 
           1465     2.85853e+10 
           1475     2.79704e+10 
           1485     2.73883e+10 
           1495     2.68023e+10 
           1505     2.61263e+10 
           1512     2.58223e+10 
           1517     2.55574e+10 
           1525     2.51134e+10 
           1535     2.44339e+10 
           1545     2.37241e+10 
           1555      2.3247e+10 
           1565     2.30416e+10 
           1575     2.26376e+10 
           1585     2.22014e+10 
           1595     2.17713e+10 
           1605     2.12259e+10 
           1615      2.0792e+10 
           1625     2.04227e+10 
           1635      1.9913e+10 
           1645     1.90061e+10 
           1655     1.93342e+10 
           1665     1.89681e+10 
           1672     1.87045e+10 
           1677     1.85838e+10 
           1685     1.82896e+10 
           1695     1.79342e+10 
           1705     1.75819e+10 
           1715     1.72058e+10 
           1725     1.68739e+10 
           1735     1.66387e+10 
           1745      1.6326e+10 
           1755     1.60304e+10 
           1765     1.57042e+10 
           1775     1.54345e+10 
           1785     1.51698e+10 
           1795     1.49171e+10 
           1805     1.46609e+10 
           1815     1.43888e+10 
           1825     1.41377e+10 
           1835     1.38934e+10 
           1845     1.35971e+10 
           1855      1.3267e+10 
           1865     1.30839e+10 
           1875     1.29383e+10 
           1885     1.26593e+10 
           1895     1.23645e+10 
           1905     1.22652e+10 
           1915     1.19679e+10 
           1925     1.17646e+10 
           1935     1.16202e+10 
           1945     1.14751e+10 
           1955     1.12023e+10 
           1967     1.10601e+10 
           1976     1.09239e+10 
           1984     1.07432e+10 
           1995     1.04982e+10 
           2005     1.04078e+10 
           2015     1.02537e+10 
           2025     1.00976e+10 
           2035      9.92216e+9 
           2045       9.7641e+9 
           2055      9.24378e+9 
           2065      9.04933e+9 
           2074      8.98761e+9 
           2078       8.8719e+9 
           2085      8.87742e+9 
           2095      8.83751e+9 
           2105      8.85917e+9 
           2115      8.76549e+9 
           2125      8.64314e+9 
           2135      8.50864e+9 
           2145      8.37381e+9 
           2155      8.25409e+9 
           2165      8.12015e+9 
           2175      8.00982e+9 
           2185      7.87654e+9 
           2195      7.77499e+9 
           2205      7.66015e+9 
           2215       7.5291e+9 
           2225      7.43562e+9 
           2235      7.32625e+9 
           2245      7.22069e+9 
           2255      7.09522e+9 
           2265      7.01303e+9 
           2275      6.91213e+9 
           2285       6.8123e+9 
           2295      6.65643e+9 
           2305      6.60014e+9 
           2315      6.52574e+9 
           2325      6.43384e+9 
           2335       6.3425e+9 
           2345      6.25482e+9 
           2355      6.16785e+9 
           2365      6.08212e+9 
           2375      5.99755e+9 
           2385      5.89696e+9 
           2395      5.83304e+9 
           2405      5.75383e+9 
           2415      5.67501e+9 
           2425      5.59851e+9 
           2435      5.52181e+9 
           2445      5.44781e+9 
           2455      5.37476e+9 
           2465      5.30309e+9 
           2475       5.2321e+9 
           2485       5.1628e+9 
           2495      5.00712e+9 
           2505      5.02588e+9 
           2513      4.93726e+9 
           2518      4.93871e+9 
           2525      4.89606e+9 
           2535      4.83247e+9 
           2545      4.76438e+9 
           2555      4.70633e+9 
           2565      4.64691e+9 
           2575      4.58754e+9 
           2585        4.529e+9 
           2595      4.47128e+9 
           2605      4.43746e+9 
           2615      4.38117e+9 
           2625      4.32571e+9 
           2635      4.26934e+9 
           2645      4.21423e+9 
           2655      4.15737e+9 
           2665      4.09817e+9 
           2675      4.03989e+9 
           2685      4.01101e+9 
           2695      3.93394e+9 
           2705      3.91242e+9 
           2715      3.86454e+9 
           2725      3.78661e+9 
           2735      3.76184e+9 
           2745      3.72458e+9 
           2755      3.67953e+9 
           2765      3.60309e+9 
           2775      3.59155e+9 
           2785      3.54827e+9 
           2795      3.49761e+9 
           2805      3.46218e+9 
           2815      3.42299e+9 
           2825      3.34517e+9 
           2835      3.32049e+9 
           2845      3.30314e+9 
           2855      3.26419e+9 
           2865      3.22602e+9 
           2875      3.18844e+9 
           2885      3.15153e+9 
           2895      3.11496e+9 
           2910      3.06109e+9 
           2930      2.99118e+9 
           2950      2.89903e+9 
           2970      2.85747e+9 
           2990      2.79337e+9 
           3010      2.73109e+9 
           3030      2.67082e+9 
           3050      2.61206e+9 
           3070      2.55495e+9 
           3090      2.49815e+9 
           3110      2.44529e+9 
           3130      2.39449e+9 
           3150      2.34337e+9 
           3170      2.29361e+9 
           3190      2.22315e+9 
           3210      2.19509e+9 
           3230      2.15026e+9 
           3250      2.10519e+9 
           3270      2.06384e+9 
           3290      2.01853e+9 
           3310      1.98015e+9 
           3330      1.93982e+9 
           3350      1.89716e+9 
           3370      1.86233e+9 
           3390      1.82515e+9 
           3410      1.78883e+9 
           3430      1.74639e+9 
           3450      1.70591e+9 
           3470      1.67729e+9 
           3490      1.64467e+9 
           3510      1.61445e+9 
           3530      1.58469e+9 
           3550      1.55508e+9 
           3570      1.53566e+9 
           3590      1.49393e+9 
           3610      1.47259e+9 
           3630      1.43843e+9 
           3640      1.43747e+9 
           3650      1.41982e+9 
           3670      1.39913e+9 
           3690      1.37421e+9 
           3710      1.32987e+9 
           3730      1.28803e+9 
           3750      1.26774e+9 
           3770      1.22792e+9 
           3790      1.26533e+9 
           3810      1.31182e+9 
           3830      1.14871e+9 
           3850      1.34245e+9 
           3870      1.36823e+9 
           3890      1.07504e+9 
           3910      1.34119e+9 
           3930      1.33809e+9 
           3950      1.29842e+9 
           3970      9.96507e+8 
           3990      1.24012e+9 
           4010      1.24573e+9 
           4030      1.16364e+9 
           4050      1.21863e+9 
           4070      1.18896e+9 
           4090      1.07066e+9 
           4110      9.33856e+8 
           4130      1.11067e+9 
           4150       1.1043e+9 
           4170      1.09748e+9 
           4190      1.08117e+9 
           4210      1.06244e+9 
           4230      1.04452e+9 
           4250      1.02629e+9 
           4270      1.00783e+9 
           4290      9.88183e+8 
           4310      9.63093e+8 
           4330      8.54171e+8 
           4350      7.79659e+8 
           4370      9.11537e+8 
           4390      8.77956e+8 
           4410      8.94089e+8 
           4430      8.77549e+8 
           4450      8.66026e+8 
           4470      8.05275e+8 
           4490      8.36855e+8 
           4510       8.2517e+8 
           4530      8.11842e+8 
           4550      7.98315e+8 
           4570      7.85787e+8 
           4590      7.73196e+8 
           4610      7.61025e+8 
           4630      7.48999e+8 
           4650      7.36262e+8 
           4670      7.25426e+8 
           4690      7.11991e+8 
           4710      6.93288e+8 
           4730      6.92153e+8 
           4750      6.81394e+8 
           4770       6.7099e+8 
           4790      6.60275e+8 
           4810      6.48103e+8 
           4830      6.32751e+8 
           4850      5.73138e+8 
           4870      5.12289e+8 
           4890      6.00729e+8 
           4910      5.98705e+8 
           4930      5.74885e+8 
           4950      5.84824e+8 
           4970      5.76345e+8 
           4990      5.67815e+8 
           5010      5.51884e+8 
           5030      5.51211e+8 
           5050      5.39882e+8 
           5070      5.35308e+8 
           5090      5.27547e+8 
           5110       5.1992e+8 
           5130      5.12438e+8 
           5150      5.05085e+8 
           5170      4.97859e+8 
           5190      4.90784e+8 
           5210      4.83817e+8 
           5230      4.76984e+8 
           5250      4.70268e+8 
           5270      4.63667e+8 
           5290      4.57179e+8 
           5310      4.50802e+8 
           5330      4.44547e+8 
           5350        4.384e+8 
           5370      4.32345e+8 
           5390      4.26406e+8 
           5410      4.20415e+8 
           5430      4.14832e+8 
           5450       4.0918e+8 
           5470      4.03637e+8 
           5490      3.98189e+8 
           5510      3.92822e+8 
           5530      3.87559e+8 
           5550      3.82374e+8 
           5570      3.77277e+8 
           5590      3.72267e+8 
           5610      3.67332e+8 
           5630      3.62492e+8 
           5650      3.57723e+8 
           5670      3.53025e+8 
           5690      3.48395e+8 
           5710      3.43878e+8 
           5730      3.39417e+8 
           5750      3.35009e+8 
           5770       3.3071e+8 
           5790      3.26463e+8 
           5810      3.22288e+8 
           5830      3.18174e+8 
           5850       3.1412e+8 
           5870      2.99268e+8 
           5890      3.05372e+8 
           5910       3.0236e+8 
           5930      2.98556e+8 
           5950      2.94818e+8 
           5970      2.91144e+8 
           5990      2.87523e+8 
           6010      2.83954e+8 
           6030      2.80447e+8 
           6050       2.7699e+8 
           6070      2.73583e+8 
           6090      2.70235e+8 
           6110      2.66935e+8 
           6130      2.63692e+8 
           6150      2.60486e+8 
           6170      2.57335e+8 
           6190       2.5423e+8 
           6210      2.51178e+8 
           6230      2.48171e+8 
           6250      2.45196e+8 
           6270      2.42273e+8 
           6290      2.39402e+8 
           6310      2.36562e+8 
           6330      2.33772e+8 
           6350      2.31013e+8 
           6370      2.28302e+8 
           6390      2.25629e+8 
           6410      2.22995e+8 
           6430      2.20398e+8 
           6450      2.17838e+8 
           6470      2.15314e+8 
           6490      2.12836e+8 
           6510      2.09859e+8 
           6530      2.06304e+8 
           6550       1.9486e+8 
           6570      1.72878e+8 
           6590      1.97655e+8 
           6610       1.9784e+8 
           6630      1.96254e+8 
           6650      1.94292e+8 
           6670      1.89707e+8 
           6690      1.87632e+8 
           6710      1.87846e+8 
           6730      1.85749e+8 
           6750      1.83683e+8 
           6770      1.81646e+8 
           6790      1.79637e+8 
           6810      1.77658e+8 
           6830      1.75706e+8 
           6850      1.73782e+8 
           6870      1.71878e+8 
           6890      1.70009e+8 
           6910      1.68158e+8 
           6930      1.66334e+8 
           6950      1.64536e+8 
           6970      1.62763e+8 
           6990      1.61008e+8 
           7010      1.59286e+8 
           7030       1.5758e+8 
           7050      1.55899e+8 
           7070      1.51627e+8 
           7090      1.52609e+8 
           7110      1.50991e+8 
           7130      1.49397e+8 
           7150      1.47825e+8 
           7170      1.46261e+8 
           7190      1.44742e+8 
           7210       1.4323e+8 
           7230      1.41711e+8 
           7250      1.40263e+8 
           7270      1.38808e+8 
           7290      1.36183e+8 
           7310      1.35947e+8 
           7330      1.34561e+8 
           7350      1.33181e+8 
           7370      1.31821e+8 
           7390      1.30474e+8 
           7410      1.29146e+8 
           7430      1.27838e+8 
           7450      1.26555e+8 
           7470      1.25277e+8 
           7490      1.24018e+8 
           7510      1.22731e+8 
           7530      1.21541e+8 
           7550      1.20323e+8 
           7570      1.19123e+8 
           7590       1.1794e+8 
           7610      1.16768e+8 
           7630      1.15613e+8 
           7650      1.14469e+8 
           7670      1.13341e+8 
           7690       1.1223e+8 
           7710      1.11129e+8 
           7730      1.10044e+8 
           7750      1.08968e+8 
           7770      1.07909e+8 
           7790      1.06859e+8 
           7810      1.05775e+8 
           7830      1.04805e+8 
           7850      1.03893e+8 
           7870      1.02891e+8 
           7890      1.01862e+8 
           7910      1.00932e+8 
           7930      9.99681e+7 
           7950      9.90127e+7 
           7970      9.79767e+7 
           7990      9.71387e+7 
           8010      9.61257e+7 
           8030      9.51509e+7 
           8050      9.42543e+7 
           8070      9.33885e+7 
           8090      9.23863e+7 
           8110      9.16333e+7 
           8130      9.08069e+7 
           8150       8.9908e+7 
           8170      8.91523e+7 
           8190      8.82232e+7 
           8210      8.73355e+7 
           8230      8.67169e+7 
           8250      8.59427e+7 
           8270       8.4828e+7 
           8290      8.43534e+7 
           8310       8.3626e+7 
           8330      8.28123e+7 
           8350      8.17244e+7 
           8370      8.12322e+7 
           8390      8.06045e+7 
           8410      7.98807e+7 
           8430      7.91204e+7 
           8450       7.7918e+7 
           8470      7.77185e+7 
           8490      7.68615e+7 
           8510      7.63082e+7 
           8530      7.54485e+7 
           8550      7.47197e+7 
           8570      7.44227e+7 
