# Kurucz ODFNEW /NOVER (2003)
# teff = 9500 K (value for the effective temperature for the model. Temperatures are given in K)
# logg = 4.5 log(cm/s2) (value for Log(G) for the model.)
# meta = -1  (value for the Metallicity for the model.)
# lh = 1.25  (l/Hp where l is the  mixing length of the convective element and Hp is the pressure scale height)
# vtur = 2 km/s (Microturbulence velocity)
# alpha = 0.4  (Alpha)
#
# column 1: WAVELENGTH (ANGSTROM), Wavelength in Angstrom
# column 2: FLUX (ERG/CM2/S/A), Flux in erg/cm2/s/A
          268.5      2.0772e-23 
          273.5     1.39119e-22 
          278.5      5.9898e-22 
            284      2.7314e-21 
            290     1.33033e-20 
            296     6.06527e-20 
            301     2.05053e-19 
            308     1.05492e-18 
            318     9.64884e-18 
            328     7.69294e-17 
            338     5.41035e-16 
            348     3.39356e-15 
            357     1.61866e-14 
            366     7.13884e-14 
            375     2.92516e-13 
            385     1.29464e-12 
            395     5.30041e-12 
            405     2.01931e-11 
            414     6.35663e-11 
            422     1.68822e-10 
            430     4.31721e-10 
            441      1.48177e-9 
            451      4.30477e-9 
            460      1.07836e-8 
            470      2.86649e-8 
            480      7.30093e-8 
            490      1.78668e-7 
            500      4.20973e-7 
            506      7.12801e-7 
            512       1.1711e-6 
            520      2.18904e-6 
            530      4.65648e-6 
            540      9.60427e-6 
            550       1.9296e-5 
            560      3.77342e-5 
            570      7.19751e-5 
            580     0.000133972 
            590     0.000244219 
            600     0.000435614 
            610     0.000761467 
            620      0.00130562 
            630      0.00219802 
            640      0.00363669 
            650      0.00591915 
            658      0.00864026 
            665       0.0119325 
            675       0.0186907 
            685        0.028865 
            695       0.0439861 
            705       0.0661699 
            716        0.102219 
            726         0.14992 
            735         0.20957 
            745        0.300969 
            755        0.427761 
            765        0.601879 
            775        0.838793 
            785         1.15814 
            795         1.58482 
            805         2.15065 
            815         2.89439 
            825         3.86457 
            835         5.12068 
            845         6.73552 
            855         8.79744 
            865         11.4118 
            875          14.706 
            885         18.8306 
            895         23.9646 
            905         30.3187 
            915         119.387 
            925         793.768 
            935         1455.77 
            945         2774.73 
            955         4233.13 
            965         5763.66 
            975         4244.73 
            985         9041.74 
            995         10472.4 
           1005         12667.5 
           1015           12938 
           1025         7513.97 
           1035         16442.8 
           1045         22054.4 
           1055         25731.1 
           1065         28819.4 
           1075         33750.4 
           1085         38337.8 
           1095         42124.3 
           1105          133361 
           1115      4.14539e+6 
           1125      5.97707e+6 
           1135      7.21159e+6 
           1145      5.36635e+6 
           1155      3.43823e+6 
           1165      1.65323e+6 
           1175          467233 
           1185          263617 
           1195          102757 
           1205         77485.1 
           1215         21854.9 
           1225         82770.6 
           1235          168747 
           1245          272262 
           1255          674754 
           1265      2.04182e+6 
           1275      7.02718e+6 
           1285      1.78923e+7 
           1295      2.51778e+7 
           1305      2.01203e+7 
           1315      3.70624e+7 
           1325      4.55863e+7 
           1335      5.06829e+7 
           1345      5.92554e+7 
           1355      5.61085e+7 
           1365      5.51984e+7 
           1375      5.47711e+7 
           1385      4.68696e+7 
           1395      4.69783e+7 
           1405       6.1255e+7 
           1415      7.40429e+7 
           1425      7.96918e+7 
           1435      7.23739e+7 
           1442      8.28134e+7 
           1447      8.49644e+7 
           1455      8.78977e+7 
           1465      8.22416e+7 
           1475      8.05762e+7 
           1485      8.14233e+7 
           1495      8.62372e+7 
           1505      8.73836e+7 
           1512      8.39661e+7 
           1517      8.72098e+7 
           1525      8.26217e+7 
           1535      8.45098e+7 
           1545      9.27452e+7 
           1555      7.63266e+7 
           1565      6.32921e+7 
           1575      8.20744e+7 
           1585      8.96092e+7 
           1595      9.34691e+7 
           1605      9.13458e+7 
           1615      9.40457e+7 
           1625      8.72322e+7 
           1635      9.09204e+7 
           1645       1.0292e+8 
           1655      8.59703e+7 
           1665      1.02463e+8 
           1672      8.66917e+7 
           1677      9.78203e+7 
           1685      1.04417e+8 
           1695      9.37383e+7 
           1705      9.48282e+7 
           1715      9.95343e+7 
           1725       9.7886e+7 
           1735      1.02224e+8 
           1745      9.87246e+7 
           1755       1.0371e+8 
           1765      9.25478e+7 
           1775      1.01171e+8 
           1785      1.00114e+8 
           1795      1.04998e+8 
           1805      9.93781e+7 
           1815      9.88956e+7 
           1825      9.54168e+7 
           1835      9.53732e+7 
           1845      8.93785e+7 
           1855      9.31525e+7 
           1865      9.41069e+7 
           1875      9.52233e+7 
           1885      9.55102e+7 
           1895      9.42268e+7 
           1905      8.99535e+7 
           1915      9.28329e+7 
           1925      9.38899e+7 
           1935      9.08161e+7 
           1945      9.48898e+7 
           1955      9.39807e+7 
           1967      9.43408e+7 
           1976       9.1465e+7 
           1984      9.02493e+7 
           1995      8.96847e+7 
           2005      8.77727e+7 
           2015       8.5459e+7 
           2025      8.45583e+7 
           2035      8.72762e+7 
           2045      8.77769e+7 
           2055      8.42422e+7 
           2065      8.43621e+7 
           2074      8.59822e+7 
           2078      8.76372e+7 
           2085      8.68157e+7 
           2095      8.46628e+7 
           2105      8.37294e+7 
           2115      8.33505e+7 
           2125      8.33178e+7 
           2135      7.69794e+7 
           2145       8.2297e+7 
           2155      8.10978e+7 
           2165      7.82542e+7 
           2175      7.78962e+7 
           2185      7.80355e+7 
           2195      8.08033e+7 
           2205      7.79335e+7 
           2215      7.34258e+7 
           2225       7.3838e+7 
           2235      7.87665e+7 
           2245      7.42833e+7 
           2255       7.2425e+7 
           2265      7.16753e+7 
           2275      7.51548e+7 
           2285       7.6158e+7 
           2295      7.25846e+7 
           2305      7.25943e+7 
           2315        7.161e+7 
           2325      7.17062e+7 
           2335      7.04991e+7 
           2345      6.58311e+7 
           2355      7.04412e+7 
           2365      6.63847e+7 
           2375       6.8672e+7 
           2385      6.30043e+7 
           2395      6.70242e+7 
           2405      6.51588e+7 
           2415      6.58347e+7 
           2425      6.75222e+7 
           2435      6.47449e+7 
           2445      6.72791e+7 
           2455      6.57883e+7 
           2465      6.50572e+7 
           2475      6.29827e+7 
           2485       6.5332e+7 
           2495      6.37139e+7 
           2505      6.71206e+7 
           2513      6.38902e+7 
           2518      6.33277e+7 
           2525      6.03476e+7 
           2535      5.98373e+7 
           2545      6.01415e+7 
           2555      6.28515e+7 
           2565      6.27517e+7 
           2575      6.51288e+7 
           2585      6.54716e+7 
           2595      6.52868e+7 
           2605       6.3221e+7 
           2615      6.28266e+7 
           2625      6.37867e+7 
           2635      6.40305e+7 
           2645      6.77152e+7 
           2655      6.71366e+7 
           2665      6.44112e+7 
           2675      6.55152e+7 
           2685      6.60732e+7 
           2695      6.40381e+7 
           2705      6.42091e+7 
           2715      6.23468e+7 
           2725      6.23111e+7 
           2735      6.43392e+7 
           2745      5.94166e+7 
           2755      5.95618e+7 
           2765       6.1226e+7 
           2775        6.285e+7 
           2785       6.1666e+7 
           2795      5.03076e+7 
           2805      5.50776e+7 
           2815      6.32635e+7 
           2825      6.30288e+7 
           2835      6.16662e+7 
           2845      6.03026e+7 
           2855      5.88363e+7 
           2865      6.06386e+7 
           2875      5.98984e+7 
           2885      6.06833e+7 
           2895      6.04446e+7 
           2910      6.24479e+7 
           2930      6.05319e+7 
           2950       6.0281e+7 
           2970      6.02876e+7 
           2990      6.00653e+7 
           3010      6.03384e+7 
           3030      5.99877e+7 
           3050      5.93858e+7 
           3070      5.85626e+7 
           3090      5.86828e+7 
           3110       5.8059e+7 
           3130      5.77001e+7 
           3150      5.75545e+7 
           3170      5.72204e+7 
           3190       5.5824e+7 
           3210      5.62018e+7 
           3230      5.52118e+7 
           3250      5.54403e+7 
           3270      5.55217e+7 
           3290      5.55135e+7 
           3310      5.53467e+7 
           3330      5.44155e+7 
           3350      5.36535e+7 
           3370      5.36687e+7 
           3390      5.32045e+7 
           3410      5.34927e+7 
           3430      5.31877e+7 
           3450       5.2807e+7 
           3470      5.23815e+7 
           3490      5.21478e+7 
           3510      5.20017e+7 
           3530      5.18041e+7 
           3550      5.15598e+7 
           3570      5.09838e+7 
           3590      5.06891e+7 
           3610      5.04094e+7 
           3630      5.01214e+7 
           3640      4.99231e+7 
           3650      5.02042e+7 
           3670      5.00445e+7 
           3690      4.86126e+7 
           3710      4.81966e+7 
           3730      4.74185e+7 
           3750      5.67056e+7 
           3770      5.96972e+7 
           3790      7.29062e+7 
           3810      8.65932e+7 
           3830      6.88873e+7 
           3850      9.76434e+7 
           3870      1.13442e+8 
           3890      5.95439e+7 
           3910       1.1395e+8 
           3930      1.24872e+8 
           3950       1.1401e+8 
           3970      5.73213e+7 
           3990      1.07273e+8 
           4010      1.28539e+8 
           4030      1.30322e+8 
           4050      1.28046e+8 
           4070      1.18921e+8 
           4090      8.38538e+7 
           4110      6.32399e+7 
           4130      1.10044e+8 
           4150        1.197e+8 
           4170      1.20275e+8 
           4190       1.1958e+8 
           4210      1.18251e+8 
           4230      1.15963e+8 
           4250      1.14734e+8 
           4270      1.12336e+8 
           4290      1.09117e+8 
           4310      9.98441e+7 
           4330      6.88883e+7 
           4350      5.84252e+7 
           4370      9.48861e+7 
           4390      1.01377e+8 
           4410       1.0249e+8 
           4430      1.02081e+8 
           4450      1.01263e+8 
           4470       1.0014e+8 
           4490      9.80108e+7 
           4510      9.78825e+7 
           4530      9.65611e+7 
           4550      9.49698e+7 
           4570      9.43262e+7 
           4590      9.30876e+7 
           4610      9.23667e+7 
           4630      9.09255e+7 
           4650       9.0084e+7 
           4670      8.89548e+7 
           4690      8.74972e+7 
           4710      8.54023e+7 
           4730       8.5441e+7 
           4750      8.42855e+7 
           4770      8.29676e+7 
           4790      8.13551e+7 
           4810      7.87846e+7 
           4830      7.28448e+7 
           4850      5.34428e+7 
           4870      4.34296e+7 
           4890      6.76415e+7 
           4910      7.36235e+7 
           4930      7.43387e+7 
           4950      7.44341e+7 
           4970      7.39476e+7 
           4990       7.3173e+7 
           5010      7.20856e+7 
           5030      7.16356e+7 
           5050      7.06394e+7 
           5070      7.01594e+7 
           5090      6.93663e+7 
           5110      6.85835e+7 
           5130      6.77792e+7 
           5150      6.69839e+7 
           5170      6.55576e+7 
           5190      6.49945e+7 
           5210      6.47533e+7 
           5230      6.38637e+7 
           5250      6.33739e+7 
           5270      6.23824e+7 
           5290      6.19655e+7 
           5310      6.11869e+7 
           5330       6.0417e+7 
           5350      5.99595e+7 
           5370      5.92694e+7 
           5390      5.86333e+7 
           5410      5.79225e+7 
           5430      5.73599e+7 
           5450      5.67786e+7 
           5470      5.61665e+7 
           5490      5.55643e+7 
           5510      5.49854e+7 
           5530      5.43556e+7 
           5550      5.38361e+7 
           5570      5.32523e+7 
           5590      5.26658e+7 
           5610      5.21353e+7 
           5630      5.16075e+7 
           5650      5.10598e+7 
           5670      5.05139e+7 
           5690      5.00047e+7 
           5710       4.9484e+7 
           5730      4.89889e+7 
           5750      4.84686e+7 
           5770      4.79804e+7 
           5790      4.74877e+7 
           5810      4.70051e+7 
           5830      4.65269e+7 
           5850      4.60519e+7 
           5870      4.55571e+7 
           5890      4.49833e+7 
           5910      4.46707e+7 
           5930      4.42242e+7 
           5950      4.37646e+7 
           5970      4.33408e+7 
           5990      4.28901e+7 
           6010      4.24727e+7 
           6030      4.20567e+7 
           6050      4.16381e+7 
           6070      4.12394e+7 
           6090      4.08339e+7 
           6110      4.04298e+7 
           6130       4.0022e+7 
           6150      3.95201e+7 
           6170      3.92267e+7 
           6190      3.88842e+7 
           6210      3.85081e+7 
           6230      3.81292e+7 
           6250      3.77207e+7 
           6270      3.74105e+7 
           6290       3.7053e+7 
           6310      3.66898e+7 
           6330      3.63436e+7 
           6350      3.58497e+7 
           6370       3.5572e+7 
           6390      3.53045e+7 
           6410      3.48984e+7 
           6430      3.45495e+7 
           6450      3.41055e+7 
           6470      3.37537e+7 
           6490      3.32428e+7 
           6510      3.25091e+7 
           6530      3.09258e+7 
           6550      2.60341e+7 
           6570      2.11638e+7 
           6590      2.87578e+7 
           6610      3.06836e+7 
           6630      3.10541e+7 
           6650      3.10141e+7 
           6670      3.08402e+7 
           6690      3.06208e+7 
           6710      3.03774e+7 
           6730      3.01497e+7 
           6750      2.98853e+7 
           6770      2.96392e+7 
           6790      2.93717e+7 
           6810        2.911e+7 
           6830      2.88453e+7 
           6850      2.85904e+7 
           6870      2.83372e+7 
           6890      2.80864e+7 
           6910      2.78381e+7 
           6930      2.75913e+7 
           6950      2.73493e+7 
           6970      2.71088e+7 
           6990       2.6873e+7 
           7010      2.66163e+7 
           7030      2.64003e+7 
           7050      2.61734e+7 
           7070      2.59472e+7 
           7090      2.57245e+7 
           7110      2.54578e+7 
           7130      2.52752e+7 
           7150      2.50507e+7 
           7170      2.48459e+7 
           7190      2.46335e+7 
           7210      2.44232e+7 
           7230      2.42147e+7 
           7250      2.39996e+7 
           7270      2.38064e+7 
           7290      2.36001e+7 
           7310      2.34042e+7 
           7330      2.32058e+7 
           7350      2.30142e+7 
           7370      2.28221e+7 
           7390      2.26284e+7 
           7410      2.24316e+7 
           7430      2.22333e+7 
           7450      2.20604e+7 
           7470      2.18662e+7 
           7490      2.16925e+7 
           7510       2.1521e+7 
           7530      2.13457e+7 
           7550      2.11726e+7 
           7570      2.09971e+7 
           7590      2.08264e+7 
           7610      2.06559e+7 
           7630       2.0487e+7 
           7650      2.03182e+7 
           7670      2.01509e+7 
           7690       1.9987e+7 
           7710      1.98276e+7 
           7730      1.96709e+7 
           7750      1.95106e+7 
           7770      1.90858e+7 
           7790      1.92009e+7 
           7810      1.90464e+7 
           7830      1.88921e+7 
           7850      1.87373e+7 
           7870      1.85594e+7 
           7890      1.83892e+7 
           7910      1.82951e+7 
           7930      1.81473e+7 
           7950      1.79863e+7 
           7970      1.78719e+7 
           7990      1.76615e+7 
           8010      1.75911e+7 
           8030      1.74515e+7 
           8050      1.73173e+7 
           8070      1.71818e+7 
           8090      1.70486e+7 
           8110      1.69159e+7 
           8130      1.67866e+7 
           8150      1.66573e+7 
           8170      1.65284e+7 
           8190      1.63748e+7 
           8210      1.62945e+7 
           8230      1.61676e+7 
           8250      1.60478e+7 
           8270      1.59807e+7 
           8290      1.58675e+7 
           8310      1.57558e+7 
           8330      1.56178e+7 
           8350      1.55333e+7 
           8370      1.54199e+7 
           8390      1.52962e+7 
           8410      1.51718e+7 
           8430      1.50438e+7 
           8450      1.48249e+7 
           8470      1.47035e+7 
           8490       1.4708e+7 
           8510       1.4255e+7 
           8530      1.45341e+7 
           8550      1.36092e+7 
           8570      1.44932e+7 
           8590      1.36727e+7 
           8610      1.34136e+7 
           8630      1.44426e+7 
           8650      1.37968e+7 
           8670       1.1925e+7 
           8690      1.40178e+7 
           8710      1.44913e+7 
           8730      1.37829e+7 
           8750       1.1116e+7 
           8770      1.30403e+7 
           8790      1.43233e+7 
           8810      1.44952e+7 
           8830      1.40286e+7 
           8850       1.2239e+7 
           8870      1.05151e+7 
           8890      1.31311e+7 
           8910      1.40175e+7 
           8930      1.42321e+7 
           8950      1.42104e+7 
           8970      1.38161e+7 
           8990      1.28135e+7 
           9010      1.01876e+7 
           9030      1.10315e+7 
           9050      1.28852e+7 
           9070      1.34059e+7 
           9090      1.34924e+7 
           9110      1.36026e+7 
           9130      1.35593e+7 
           9150      1.34079e+7 
           9170      1.31362e+7 
