# Kurucz ODFNEW /NOVER (2003)
# teff = 29000 K (value for the effective temperature for the model. Temperatures are given in K)
# logg = 3.5 log(cm/s2) (value for Log(G) for the model.)
# meta = 0.2  (value for the Metallicity for the model.)
# lh = 1.25  (l/Hp where l is the  mixing length of the convective element and Hp is the pressure scale height)
# vtur = 2 km/s (Microturbulence velocity)
# alpha = 0  (Alpha)
#
# column 1: WAVELENGTH (ANGSTROM), Wavelength in Angstrom
# column 2: FLUX (ERG/CM2/S/A), Flux in erg/cm2/s/A
          147.2      1.38611e-9 
            151      4.52782e-9 
          155.2      1.56826e-8 
          158.8      4.32342e-8 
            162      1.02721e-7 
            166      2.89684e-7 
          170.3      8.35461e-7 
          173.4       1.7441e-6 
          176.8      3.79197e-6 
          180.2      8.00166e-6 
          181.7      1.10486e-5 
          186.1      2.75282e-5 
            191      7.26248e-5 
          193.9     0.000126033 
          198.4     0.000287831 
          201.8     0.000524151 
            205     0.000905226 
          210.5      0.00223367 
          216.2      0.00541974 
          219.8      0.00930594 
            223       0.0148096 
          226.8       0.0257868 
            230         7.30741 
            234         15.8663 
            240         29.0271 
          246.5         56.5024 
          252.4         102.382 
          256.8         150.112 
            260         272.644 
            264         450.231 
          268.5         703.269 
          273.5         1048.16 
          278.5         1466.95 
            284         3548.14 
            290         5521.93 
            296          8000.6 
            301         11533.4 
            308         33361.7 
            318         76177.4 
            328          121881 
            338          230917 
            348          384961 
            357       1.1845e+6 
            366      2.65026e+6 
            375      3.36558e+6 
            385      5.27891e+6 
            395      1.08242e+7 
            405      1.40207e+7 
            414      1.98869e+7 
            422      2.35937e+7 
            430      2.93845e+7 
            441      3.83275e+7 
            451      4.39256e+7 
            460      4.89107e+7 
            470      6.24443e+7 
            480       7.6793e+7 
            490      8.88052e+7 
            500      1.09505e+8 
            506      2.41529e+8 
            512      2.18282e+9 
            520      2.10726e+9 
            530      1.90443e+9 
            540      1.80109e+9 
            550      2.27706e+9 
            560      3.09384e+9 
            570      3.38651e+9 
            580      3.03679e+9 
            590      3.33797e+9 
            600        2.495e+9 
            610      3.37912e+9 
            620      4.14608e+9 
            630      3.98276e+9 
            640      3.68672e+9 
            650      2.90327e+9 
            658      2.81274e+9 
            665      3.77185e+9 
            675      4.43981e+9 
            685      3.31074e+9 
            695      4.94286e+9 
            705      3.67607e+9 
            716      5.45831e+9 
            726       5.2568e+9 
            735      5.30681e+9 
            745      5.07931e+9 
            755      5.16579e+9 
            765      5.35149e+9 
            775      5.72698e+9 
            785       6.0034e+9 
            795      6.05843e+9 
            805      5.73025e+9 
            815      5.64965e+9 
            825      6.19372e+9 
            835       4.6319e+9 
            845      5.86495e+9 
            855      5.80381e+9 
            865      6.05959e+9 
            875       6.1871e+9 
            885      6.42998e+9 
            895       6.5246e+9 
            905      6.30301e+9 
            915      8.88159e+9 
            925     3.11546e+10 
            935     4.60836e+10 
            945     5.20066e+10 
            955     5.32983e+10 
            965     5.55491e+10 
            975     1.82586e+10 
            985     4.02347e+10 
            995     4.07619e+10 
           1005      4.4826e+10 
           1015     4.75672e+10 
           1025     4.21327e+10 
           1035     4.48006e+10 
           1045     5.38552e+10 
           1055     5.05172e+10 
           1065     4.32389e+10 
           1075     4.57145e+10 
           1085       4.261e+10 
           1095      4.5106e+10 
           1105     4.32443e+10 
           1115     4.23024e+10 
           1125     3.29275e+10 
           1135     4.09622e+10 
           1145     3.95314e+10 
           1155     3.81438e+10 
           1165     3.69672e+10 
           1175     2.15015e+10 
           1185      3.3428e+10 
           1195     3.30477e+10 
           1205     3.06671e+10 
           1215      2.7518e+10 
           1225     3.13158e+10 
           1235      3.3545e+10 
           1245     3.17201e+10 
           1255     3.19772e+10 
           1265     3.29639e+10 
           1275     3.40803e+10 
           1285     3.40562e+10 
           1295     3.07624e+10 
           1305     3.11444e+10 
           1315     3.35309e+10 
           1325     3.21941e+10 
           1335      3.1071e+10 
           1345     3.12812e+10 
           1355     3.05545e+10 
           1365     2.94917e+10 
           1375     2.84586e+10 
           1385     2.73146e+10 
           1395     1.91512e+10 
           1405     2.07561e+10 
           1415     2.58582e+10 
           1425     2.35578e+10 
           1435     2.51296e+10 
           1442     2.50022e+10 
           1447     2.48351e+10 
           1455     2.36338e+10 
           1465      2.2712e+10 
           1475     2.32362e+10 
           1485     2.31293e+10 
           1495       2.244e+10 
           1505     2.14642e+10 
           1512     2.05277e+10 
           1517      2.0959e+10 
           1525     2.03071e+10 
           1535     1.74069e+10 
           1545     1.48588e+10 
           1555     1.48479e+10 
           1565     1.70628e+10 
           1575     1.81969e+10 
           1585     1.83429e+10 
           1595     1.81196e+10 
           1605      1.7311e+10 
           1615     1.65282e+10 
           1625     1.68932e+10 
           1635     1.73537e+10 
           1645     1.74399e+10 
           1655     1.72614e+10 
           1665     1.71512e+10 
           1672     1.57398e+10 
           1677     1.86039e+10 
           1685     1.75293e+10 
           1695     1.67684e+10 
           1705      1.6663e+10 
           1715     1.56828e+10 
           1725     1.52559e+10 
           1735     1.57939e+10 
           1745     1.55911e+10 
           1755     1.54678e+10 
           1765      1.5368e+10 
           1775     1.46656e+10 
           1785     1.49357e+10 
           1795     1.47089e+10 
           1805     1.47522e+10 
           1815     1.40389e+10 
           1825     1.40484e+10 
           1835     1.39594e+10 
           1845     1.29862e+10 
           1855     1.33557e+10 
           1865     1.34132e+10 
           1875      1.3248e+10 
           1885     1.23232e+10 
           1895     1.18442e+10 
           1905     1.23856e+10 
           1915     1.19833e+10 
           1925     1.12237e+10 
           1935     1.19985e+10 
           1945      1.2221e+10 
           1955     1.09489e+10 
           1967     1.16444e+10 
           1976     1.20576e+10 
           1984     1.14399e+10 
           1995     1.11759e+10 
           2005     1.14377e+10 
           2015     1.14256e+10 
           2025     1.15308e+10 
           2035     1.08228e+10 
           2045     1.07775e+10 
           2055      9.25181e+9 
           2065       9.0617e+9 
           2074      9.65936e+9 
           2078      9.34302e+9 
           2085     1.00343e+10 
           2095      9.84864e+9 
           2105     1.00537e+10 
           2115     1.01534e+10 
           2125     1.00864e+10 
           2135      9.96821e+9 
           2145      9.66014e+9 
           2155      9.79621e+9 
           2165      9.51624e+9 
           2175      9.53804e+9 
           2185       9.3452e+9 
           2195      9.42835e+9 
           2205      9.29886e+9 
           2215       9.0907e+9 
           2225      8.98862e+9 
           2235      8.82239e+9 
           2245      8.75593e+9 
           2255      8.56953e+9 
           2265      8.54911e+9 
           2275      8.47193e+9 
           2285       8.3027e+9 
           2295      7.24416e+9 
           2305      7.97914e+9 
           2315      7.88013e+9 
           2325      7.84454e+9 
           2335      7.69804e+9 
           2345      7.66746e+9 
           2355      7.52504e+9 
           2365      7.41641e+9 
           2375      7.25925e+9 
           2385      7.06406e+9 
           2395      7.03212e+9 
           2405      7.00177e+9 
           2415      6.91032e+9 
           2425      6.87266e+9 
           2435      6.73627e+9 
           2445      6.68128e+9 
           2455      6.60883e+9 
           2465      6.50882e+9 
           2475      6.40467e+9 
           2485       6.1574e+9 
           2495      4.35915e+9 
           2505      5.82749e+9 
           2513      5.81341e+9 
           2518      5.92635e+9 
           2525      6.01822e+9 
           2535       5.9808e+9 
           2545      5.82977e+9 
           2555      5.79115e+9 
           2565      5.73578e+9 
           2575      5.67285e+9 
           2585      5.60757e+9 
           2595       5.5265e+9 
           2605      5.49426e+9 
           2615       5.3824e+9 
           2625      5.34765e+9 
           2635      5.29791e+9 
           2645      5.20887e+9 
           2655      5.15806e+9 
           2665      5.02219e+9 
           2675      4.93912e+9 
           2685      4.96432e+9 
           2695      4.82869e+9 
           2705      4.77477e+9 
           2715      4.72704e+9 
           2725      4.70403e+9 
           2735      4.61762e+9 
           2745      4.60658e+9 
           2755      4.55866e+9 
           2765      4.48618e+9 
           2775      4.48394e+9 
           2785      4.40153e+9 
           2795      4.25801e+9 
           2805      4.28521e+9 
           2815      4.27308e+9 
           2825      4.21758e+9 
           2835      4.11466e+9 
           2845      4.12311e+9 
           2855      4.05791e+9 
           2865      4.00824e+9 
           2875      3.96641e+9 
           2885      3.92557e+9 
           2895      3.88096e+9 
           2910      3.78945e+9 
           2930      3.73978e+9 
           2950      3.63275e+9 
           2970      3.56046e+9 
           2990      3.46107e+9 
           3010      3.35493e+9 
           3030      3.29011e+9 
           3050      3.24601e+9 
           3070      3.19302e+9 
           3090      3.08273e+9 
           3110      3.06051e+9 
           3130      2.98045e+9 
           3150      2.92894e+9 
           3170      2.85858e+9 
           3190      2.80305e+9 
           3210      2.73799e+9 
           3230      2.67891e+9 
           3250      2.64148e+9 
           3270      2.56762e+9 
           3290      2.52376e+9 
           3310      2.47117e+9 
           3330      2.41178e+9 
           3350      2.35887e+9 
           3370      2.31377e+9 
           3390      2.28527e+9 
           3410      2.23862e+9 
           3430      2.19735e+9 
           3450      2.14333e+9 
           3470      2.10624e+9 
           3490      2.06318e+9 
           3510      2.02692e+9 
           3530      1.99495e+9 
           3550      1.95376e+9 
           3570      1.91777e+9 
           3590       1.8715e+9 
           3610      1.83495e+9 
           3630      1.80349e+9 
           3640      1.78712e+9 
           3650      1.71416e+9 
           3670      1.68902e+9 
           3690      1.65294e+9 
           3710      1.60402e+9 
           3730      1.57192e+9 
           3750      1.61917e+9 
           3770      1.59718e+9 
           3790      1.61966e+9 
           3810      1.64464e+9 
           3830      1.51594e+9 
           3850      1.61951e+9 
           3870      1.56503e+9 
           3890       1.4429e+9 
           3910       1.5521e+9 
           3930      1.49941e+9 
           3950      1.47596e+9 
           3970      1.33062e+9 
           3990      1.44029e+9 
           4010      1.41383e+9 
           4030      1.37102e+9 
           4050      1.36723e+9 
           4070      1.31548e+9 
           4090      1.26661e+9 
           4110      1.18692e+9 
           4130      1.25598e+9 
           4150      1.24117e+9 
           4170      1.23185e+9 
           4190      1.21155e+9 
           4210      1.19229e+9 
           4230        1.175e+9 
           4250      1.14499e+9 
           4270      1.11891e+9 
           4290        1.102e+9 
           4310      1.07437e+9 
           4330      1.03545e+9 
           4350      9.72498e+8 
           4370      1.02645e+9 
           4390      1.01299e+9 
           4410       9.9751e+8 
           4430      9.91058e+8 
           4450      9.72353e+8 
           4470      9.47004e+8 
           4490      9.44753e+8 
           4510      9.25557e+8 
           4530      9.15365e+8 
           4550      8.98073e+8 
           4570      8.88263e+8 
           4590      8.71867e+8 
           4610      8.56111e+8 
           4630      8.39785e+8 
           4650      8.00065e+8 
           4670      8.14578e+8 
           4690      8.01411e+8 
           4710      7.85551e+8 
           4730      7.87443e+8 
           4750      7.73996e+8 
           4770      7.68182e+8 
           4790      7.56066e+8 
           4810      7.42692e+8 
           4830      7.29837e+8 
           4850      7.09175e+8 
           4870      6.54343e+8 
           4890      6.98928e+8 
           4910      6.88511e+8 
           4930      6.71559e+8 
           4950      6.65897e+8 
           4970      6.61388e+8 
           4990      6.51406e+8 
           5010      6.30141e+8 
           5030      6.30441e+8 
           5050      6.20213e+8 
           5070      6.14758e+8 
           5090      6.05327e+8 
           5110      5.96226e+8 
           5130      5.86275e+8 
           5150       5.7835e+8 
           5170      5.70741e+8 
           5190      5.63554e+8 
           5210      5.56001e+8 
           5230      5.48121e+8 
           5250       5.3921e+8 
           5270      5.31341e+8 
           5290      5.25702e+8 
           5310      5.18208e+8 
           5330      5.11356e+8 
           5350      5.04421e+8 
           5370      4.97535e+8 
           5390      4.90219e+8 
           5410      4.81812e+8 
           5430      4.77771e+8 
           5450      4.71164e+8 
           5470      4.64665e+8 
           5490      4.58448e+8 
           5510      4.52521e+8 
           5530      4.46223e+8 
           5550      4.40884e+8 
           5570      4.34725e+8 
           5590      4.28473e+8 
           5610      4.23747e+8 
           5630      4.18234e+8 
           5650      4.12399e+8 
           5670      4.05827e+8 
           5690      3.96265e+8 
           5710      3.90109e+8 
           5730       3.8552e+8 
           5750      3.79629e+8 
           5770      3.76255e+8 
           5790      3.71334e+8 
           5810       3.6645e+8 
           5830      3.61645e+8 
           5850      3.58604e+8 
           5870      3.48107e+8 
           5890      3.49244e+8 
           5910       3.4628e+8 
           5930      3.42223e+8 
           5950      3.38671e+8 
           5970        3.363e+8 
           5990      3.31212e+8 
           6010       3.2777e+8 
           6030      3.23227e+8 
           6050      3.19488e+8 
           6070      3.15934e+8 
           6090      3.12237e+8 
           6110      3.08249e+8 
           6130      3.04687e+8 
           6150      3.00208e+8 
           6170      2.96702e+8 
           6190      2.93755e+8 
           6210      2.90449e+8 
           6230      2.86831e+8 
           6250      2.83252e+8 
           6270      2.80059e+8 
           6290        2.769e+8 
           6310      2.73151e+8 
           6330       2.7045e+8 
           6350       2.6703e+8 
           6370      2.64204e+8 
           6390      2.61058e+8 
           6410      2.57818e+8 
           6430      2.55114e+8 
           6450      2.51995e+8 
           6470      2.48496e+8 
           6490      2.45777e+8 
           6510       2.4314e+8 
           6530      2.40027e+8 
           6550      2.35455e+8 
           6570      2.15067e+8 
           6590      2.31148e+8 
           6610      2.29674e+8 
           6630      2.27331e+8 
           6650      2.24611e+8 
           6670       2.2048e+8 
           6690      2.17909e+8 
           6710      2.17056e+8 
           6730      2.14146e+8 
           6750      2.12324e+8 
           6770      2.10225e+8 
           6790       2.0706e+8 
           6810      2.05545e+8 
           6830      2.03253e+8 
           6850      2.01136e+8 
           6870       1.9885e+8 
           6890      1.96181e+8 
           6910        1.941e+8 
           6930      1.92613e+8 
           6950      1.90523e+8 
           6970      1.88478e+8 
           6990      1.86429e+8 
           7010      1.84339e+8 
           7030      1.82118e+8 
           7050      1.80374e+8 
           7070      1.76235e+8 
           7090      1.76711e+8 
           7110      1.74108e+8 
           7130      1.72421e+8 
           7150        1.712e+8 
           7170      1.69176e+8 
           7190      1.67573e+8 
           7210      1.65884e+8 
           7230      1.62546e+8 
           7250      1.62095e+8 
           7270      1.60755e+8 
           7290      1.58074e+8 
           7310      1.57393e+8 
           7330      1.55778e+8 
           7350       1.5422e+8 
           7370      1.52656e+8 
           7390      1.51114e+8 
           7410      1.49558e+8 
           7430      1.48051e+8 
           7450      1.46511e+8 
           7470      1.44613e+8 
           7490      1.43305e+8 
           7510      1.42095e+8 
           7530      1.40637e+8 
           7550      1.39331e+8 
           7570      1.37912e+8 
           7590      1.36244e+8 
           7610      1.34957e+8 
           7630      1.33784e+8 
           7650      1.32481e+8 
           7670      1.31246e+8 
           7690      1.29787e+8 
           7710      1.28557e+8 
           7730      1.27193e+8 
           7750      1.26148e+8 
           7770      1.24913e+8 
           7790      1.23745e+8 
           7810        1.225e+8 
           7830      1.21353e+8 
           7850      1.20173e+8 
           7870       1.1887e+8 
           7890      1.17663e+8 
           7910      1.16689e+8 
           7930      1.15544e+8 
           7950      1.14534e+8 
           7970      1.13385e+8 
           7990      1.12352e+8 
           8010       1.1121e+8 
           8030      1.10131e+8 
           8050      1.09201e+8 
           8070       1.0818e+8 
           8090      1.07076e+8 
           8110      1.05575e+8 
           8130      1.05204e+8 
           8150      1.04087e+8 
           8170      1.03268e+8 
           8190      1.01899e+8 
           8210       1.0042e+8 
           8230      9.93093e+7 
           8250      9.88283e+7 
           8270      9.72658e+7 
           8290      9.69395e+7 
           8310      9.61571e+7 
           8330      9.51638e+7 
           8350      9.39791e+7 
           8370      9.33423e+7 
           8390       9.2689e+7 
           8410      9.17747e+7 
           8430      9.09633e+7 
           8450      8.98157e+7 
           8470      8.91505e+7 
           8490      8.86212e+7 
           8510      8.70139e+7 
           8530       8.7269e+7 
           8550      8.49854e+7 
           8570      8.64307e+7 
