# Kurucz ODFNEW /NOVER (2003)
# teff = 7500 K (value for the effective temperature for the model. Temperatures are given in K)
# logg = 1 log(cm/s2) (value for Log(G) for the model.)
# meta = -0.5  (value for the Metallicity for the model.)
# lh = 1.25  (l/Hp where l is the  mixing length of the convective element and Hp is the pressure scale height)
# vtur = 2 km/s (Microturbulence velocity)
# alpha = 0  (Alpha)
#
# column 1: WAVELENGTH (ANGSTROM), Wavelength in Angstrom
# column 2: FLUX (ERG/CM2/S/A), Flux in erg/cm2/s/A
            385     9.37395e-24 
            395     1.09227e-22 
            405     7.83041e-22 
            414     4.18588e-21 
            422     1.74305e-20 
            430     6.86956e-20 
            441     4.16302e-19 
            451     1.97902e-18 
            460     7.58159e-18 
            470     3.16749e-17 
            480     1.24401e-16 
            490     4.61066e-16 
            500     1.32628e-16 
            506     2.72119e-15 
            512     6.71575e-15 
            520     1.68762e-14 
            530     5.20756e-14 
            540     1.49116e-13 
            550      4.2322e-13 
            560     1.13786e-12 
            570     2.95029e-12 
            580     5.08428e-13 
            590     1.16547e-12 
            600     2.56406e-12 
            610     5.48601e-12 
            620     1.14224e-11 
            630     2.31866e-11 
            640     4.59534e-11 
            650      8.9025e-11 
            658     1.48694e-10 
            665     2.30242e-10 
            675     4.22896e-10 
            685     7.61552e-10 
            695      1.34617e-9 
            705      2.33363e-9 
            716      4.20192e-9 
            726      7.04204e-9 
            735      1.10601e-8 
            745      1.80062e-8 
            755      2.88972e-8 
            765      4.57418e-8 
            775      7.14477e-8 
            785      1.10202e-7 
            795      1.67131e-7 
            805      2.52352e-7 
            815      3.76006e-7 
            825      5.53671e-7 
            835      8.06762e-7 
            845      1.16381e-6 
            855       1.6624e-6 
            865      2.35259e-6 
            875      3.29539e-6 
            885      4.58593e-6 
            895       6.3219e-6 
            905      8.62495e-6 
            915       0.0123882 
            925         0.04051 
            935        0.052401 
            945       0.0717074 
            955        0.102549 
            965        0.134785 
            975        0.166524 
            985        0.223799 
            995        0.276159 
           1005        0.379033 
           1015        0.478708 
           1025        0.589069 
           1035        0.761213 
           1045        0.971367 
           1055          1.2162 
           1065         1.47128 
           1075         1.85198 
           1085         2.28884 
           1095         2.73766 
           1105         8.46282 
           1115         27.4432 
           1125         39.4582 
           1135           52.73 
           1145         62.8962 
           1155         65.0707 
           1165         79.1139 
           1175         79.7786 
           1185         101.668 
           1195         29.0773 
           1205         20.5171 
           1215         5.45434 
           1225         24.5575 
           1235         66.2724 
           1245         154.255 
           1255         323.671 
           1265          395.51 
           1275          700.61 
           1285         1129.12 
           1295         1555.26 
           1305         1372.95 
           1315         2403.65 
           1325         3171.98 
           1335         3610.82 
           1345         5022.99 
           1355         5509.49 
           1365          6263.1 
           1375         7265.68 
           1385         8576.17 
           1395         10295.8 
           1405         11981.9 
           1415         12570.1 
           1425         15079.9 
           1435         15496.4 
           1442           18498 
           1447         20853.4 
           1455         25466.8 
           1465         26680.7 
           1475         30190.3 
           1485           35163 
           1495         42006.1 
           1505           47346 
           1512         46867.4 
           1517         53504.9 
           1525         62154.2 
           1535          364462 
           1545      1.01907e+6 
           1555          879104 
           1565          697355 
           1575      1.18745e+6 
           1585       1.3997e+6 
           1595       1.9285e+6 
           1605      1.58895e+6 
           1615       1.4597e+6 
           1625      1.27635e+6 
           1635      1.51976e+6 
           1645      2.02925e+6 
           1655      1.08908e+6 
           1665       1.8256e+6 
           1672          499995 
           1677      2.29534e+6 
           1685       3.2604e+6 
           1695      3.33795e+6 
           1705      2.87061e+6 
           1715      3.61151e+6 
           1725      3.85095e+6 
           1735      4.62104e+6 
           1745      4.16255e+6 
           1755      5.27344e+6 
           1765      4.14929e+6 
           1775      5.17476e+6 
           1785      4.60982e+6 
           1795      6.37407e+6 
           1805      5.38865e+6 
           1815      6.03195e+6 
           1825      5.17312e+6 
           1835      4.88697e+6 
           1845      4.52946e+6 
           1855      5.09156e+6 
           1865      5.49807e+6 
           1875      5.42319e+6 
           1885      5.64041e+6 
           1895      6.09907e+6 
           1905      5.49841e+6 
           1915      5.97892e+6 
           1925      6.15211e+6 
           1935       4.8836e+6 
           1945      6.62185e+6 
           1955      6.74067e+6 
           1967      7.24844e+6 
           1976      7.11425e+6 
           1984      6.89056e+6 
           1995      6.70498e+6 
           2005      6.40492e+6 
           2015      5.98874e+6 
           2025      5.68472e+6 
           2035      6.54606e+6 
           2045      7.22286e+6 
           2055      6.45878e+6 
           2065       6.1483e+6 
           2074       7.7055e+6 
           2078      8.04081e+6 
           2085      7.68481e+6 
           2095      7.29361e+6 
           2105      6.79274e+6 
           2115      6.90181e+6 
           2125      7.13793e+6 
           2135      5.43371e+6 
           2145      6.66368e+6 
           2155      6.89637e+6 
           2165      6.24053e+6 
           2175      6.27032e+6 
           2185      6.53453e+6 
           2195      7.29012e+6 
           2205      6.94993e+6 
           2215      5.92573e+6 
           2225      5.75479e+6 
           2235      7.21674e+6 
           2245      6.38366e+6 
           2255      5.69322e+6 
           2265      5.74014e+6 
           2275      6.59681e+6 
           2285      6.93041e+6 
           2295      6.33077e+6 
           2305       6.6234e+6 
           2315      6.28301e+6 
           2325      5.99289e+6 
           2335      4.48505e+6 
           2345      3.58347e+6 
           2355      5.67849e+6 
           2365      3.61559e+6 
           2375      4.86148e+6 
           2385      2.87881e+6 
           2395      3.82429e+6 
           2405      3.62184e+6 
           2415      4.41755e+6 
           2425      6.37015e+6 
           2435      6.20547e+6 
           2445      6.67435e+6 
           2455       6.5632e+6 
           2465       6.4028e+6 
           2475      6.03831e+6 
           2485      6.33004e+6 
           2495      6.09301e+6 
           2505      7.56758e+6 
           2513      6.03646e+6 
           2518      6.53123e+6 
           2525      5.57044e+6 
           2535      5.38524e+6 
           2545      5.49428e+6 
           2555      6.26437e+6 
           2565      5.75124e+6 
           2575       6.5447e+6 
           2585      6.09839e+6 
           2595      5.59123e+6 
           2605      4.98746e+6 
           2615      4.68803e+6 
           2625      5.93145e+6 
           2635      6.79263e+6 
           2645      9.21896e+6 
           2655      9.22126e+6 
           2665      7.79904e+6 
           2675      8.43316e+6 
           2685      8.29625e+6 
           2695       7.8935e+6 
           2705      8.24302e+6 
           2715       7.3243e+6 
           2725      7.47307e+6 
           2735      8.14527e+6 
           2745      5.27219e+6 
           2755      6.12642e+6 
           2765      6.82232e+6 
           2775      8.10587e+6 
           2785      7.05691e+6 
           2795       2.8992e+6 
           2805       3.7387e+6 
           2815      8.12056e+6 
           2825      9.26644e+6 
           2835      8.82339e+6 
           2845      8.51153e+6 
           2855      7.88121e+6 
           2865      9.06274e+6 
           2875      8.72725e+6 
           2885      9.01039e+6 
           2895      8.49965e+6 
           2910       1.0085e+7 
           2930      9.64412e+6 
           2950      9.58782e+6 
           2970      1.01271e+7 
           2990      1.03304e+7 
           3010      1.06789e+7 
           3030      1.06094e+7 
           3050      1.05841e+7 
           3070      1.06225e+7 
           3090      1.10567e+7 
           3110      1.06642e+7 
           3130       1.0621e+7 
           3150      1.11513e+7 
           3170      1.11577e+7 
           3190      1.04855e+7 
           3210      1.10173e+7 
           3230      1.06513e+7 
           3250      1.11194e+7 
           3270       1.1278e+7 
           3290      1.15085e+7 
           3310      1.17656e+7 
           3330      1.14997e+7 
           3350      1.13548e+7 
           3370      1.13133e+7 
           3390       1.1467e+7 
           3410      1.18321e+7 
           3430      1.20282e+7 
           3450      1.19623e+7 
           3470      1.17791e+7 
           3490      1.16949e+7 
           3510      1.21195e+7 
           3530      1.22818e+7 
           3550      1.25232e+7 
           3570      1.20823e+7 
           3590      1.21144e+7 
           3610      1.22109e+7 
           3630      1.23901e+7 
           3640      1.21834e+7 
           3650      1.26463e+7 
           3670      1.25872e+7 
           3690      1.39214e+7 
           3710      1.87419e+7 
           3730      2.79604e+7 
           3750      4.27081e+7 
           3770      4.37564e+7 
           3790      5.17645e+7 
           3810      5.70748e+7 
           3830       4.5722e+7 
           3850       5.8734e+7 
           3870      6.10413e+7 
           3890      4.38992e+7 
           3910      5.85716e+7 
           3930        4.532e+7 
           3950      5.78163e+7 
           3970      3.76397e+7 
           3990      5.84211e+7 
           4010      5.86785e+7 
           4030      5.76243e+7 
           4050      5.72679e+7 
           4070       5.6031e+7 
           4090      5.35881e+7 
           4110      4.25212e+7 
           4130      5.45739e+7 
           4150       5.5075e+7 
           4170      5.33347e+7 
           4190      5.30693e+7 
           4210      5.26406e+7 
           4230      5.17314e+7 
           4250         5.14e+7 
           4270      5.02956e+7 
           4290      5.02453e+7 
           4310      4.77014e+7 
           4330      4.41171e+7 
           4350      3.82971e+7 
           4370      4.85488e+7 
           4390      4.72981e+7 
           4410      4.61611e+7 
           4430      4.66744e+7 
           4450      4.64746e+7 
           4470      4.59616e+7 
           4490      4.54988e+7 
           4510      4.57926e+7 
           4530      4.43445e+7 
           4550      4.32149e+7 
           4570      4.43491e+7 
           4590      4.28656e+7 
           4610      4.39569e+7 
           4630      4.25182e+7 
           4650      4.28833e+7 
           4670      4.23717e+7 
           4690      4.16034e+7 
           4710      4.02455e+7 
           4730      4.11688e+7 
           4750      4.11067e+7 
           4770       4.0372e+7 
           4790        3.996e+7 
           4810      3.94639e+7 
           4830      3.87874e+7 
           4850      3.47092e+7 
           4870      2.82092e+7 
           4890      3.73215e+7 
           4910      3.73743e+7 
           4930      3.65199e+7 
           4950      3.67174e+7 
           4970      3.67382e+7 
           4990      3.57483e+7 
           5010      3.46395e+7 
           5030      3.50718e+7 
           5050      3.46587e+7 
           5070      3.46759e+7 
           5090       3.4276e+7 
           5110      3.39534e+7 
           5130      3.32383e+7 
           5150      3.27704e+7 
           5170      3.19493e+7 
           5190       3.1642e+7 
           5210       3.1691e+7 
           5230      3.11475e+7 
           5250      3.14806e+7 
           5270      3.02139e+7 
           5290      3.08528e+7 
           5310      3.01733e+7 
           5330      2.96886e+7 
           5350      3.01699e+7 
           5370      2.96778e+7 
           5390      2.93465e+7 
           5410      2.89021e+7 
           5430       2.8632e+7 
           5450      2.86988e+7 
           5470      2.84213e+7 
           5490      2.82546e+7 
           5510      2.79084e+7 
           5530      2.75443e+7 
           5550      2.75712e+7 
           5570       2.7212e+7 
           5590      2.69514e+7 
           5610      2.67619e+7 
           5630      2.65757e+7 
           5650       2.6166e+7 
           5670      2.59173e+7 
           5690      2.58367e+7 
           5710      2.56132e+7 
           5730      2.54485e+7 
           5750      2.51761e+7 
           5770      2.49656e+7 
           5790      2.47047e+7 
           5810      2.44992e+7 
           5830      2.42726e+7 
           5850      2.40574e+7 
           5870      2.38511e+7 
           5890      2.33506e+7 
           5910       2.3415e+7 
           5930      2.32027e+7 
           5950      2.29746e+7 
           5970      2.28072e+7 
           5990       2.2526e+7 
           6010      2.23398e+7 
           6030      2.21815e+7 
           6050      2.19816e+7 
           6070      2.18227e+7 
           6090      2.15963e+7 
           6110      2.13794e+7 
           6130      2.11349e+7 
           6150      2.07197e+7 
           6170      2.07657e+7 
           6190      2.06849e+7 
           6210      2.05235e+7 
           6230      2.02794e+7 
           6250      1.97978e+7 
           6270      2.00071e+7 
           6290      1.98296e+7 
           6310      1.95479e+7 
           6330      1.94585e+7 
           6350      1.91894e+7 
           6370      1.90338e+7 
           6390      1.89647e+7 
           6410      1.87191e+7 
           6430       1.8621e+7 
           6450      1.83092e+7 
           6470      1.83537e+7 
           6490      1.80127e+7 
           6510      1.79253e+7 
           6530      1.77397e+7 
           6550      1.63451e+7 
           6570      1.29161e+7 
           6590      1.70937e+7 
           6610      1.72094e+7 
           6630      1.71623e+7 
           6650      1.70498e+7 
           6670      1.69003e+7 
           6690      1.67801e+7 
           6710      1.66459e+7 
           6730       1.6503e+7 
           6750      1.63615e+7 
           6770      1.62609e+7 
           6790       1.6117e+7 
           6810      1.59989e+7 
           6830      1.58392e+7 
           6850      1.57299e+7 
           6870      1.56177e+7 
           6890      1.54963e+7 
           6910      1.53712e+7 
           6930      1.52449e+7 
           6950      1.51285e+7 
           6970      1.50038e+7 
           6990      1.48933e+7 
           7010      1.47242e+7 
           7030      1.46466e+7 
           7050      1.45416e+7 
           7070      1.44338e+7 
           7090      1.43241e+7 
           7110      1.40595e+7 
           7130       1.4066e+7 
           7150      1.39712e+7 
           7170      1.38706e+7 
           7190      1.37418e+7 
           7210      1.36411e+7 
           7230      1.35167e+7 
           7250      1.34393e+7 
           7270      1.33534e+7 
           7290      1.32214e+7 
           7310      1.30934e+7 
           7330      1.30228e+7 
           7350      1.29395e+7 
           7370      1.28652e+7 
           7390      1.27487e+7 
           7410      1.26265e+7 
           7430      1.25197e+7 
           7450      1.24376e+7 
           7470      1.22955e+7 
           7490      1.22386e+7 
           7510      1.21589e+7 
           7530       1.2097e+7 
           7550      1.20304e+7 
           7570      1.19248e+7 
           7590      1.18496e+7 
           7610      1.17646e+7 
           7630      1.16778e+7 
           7650      1.15711e+7 
           7670      1.14814e+7 
           7690      1.14135e+7 
           7710       1.1291e+7 
           7730      1.12547e+7 
           7750      1.11691e+7 
           7770      1.08758e+7 
           7790       1.1018e+7 
           7810      1.09357e+7 
           7830      1.08394e+7 
           7850      1.07402e+7 
           7870      1.06571e+7 
           7890       1.0565e+7 
           7910      1.05219e+7 
           7930      1.04503e+7 
           7950      1.03573e+7 
           7970      1.03291e+7 
           7990      1.01877e+7 
           8010      1.01733e+7 
           8030       1.0097e+7 
           8050      1.00329e+7 
           8070       9.9584e+6 
           8090      9.88907e+6 
           8110      9.82833e+6 
           8130      9.76351e+6 
           8150      9.69466e+6 
           8170      9.62694e+6 
           8190      9.48169e+6 
           8210      9.46908e+6 
           8230      9.40421e+6 
           8250      9.33099e+6 
           8270      9.33934e+6 
           8290      9.25706e+6 
           8310        9.158e+6 
           8330      8.98649e+6 
           8350      9.04291e+6 
           8370      8.80024e+6 
           8390      8.84129e+6 
           8410      8.79876e+6 
           8430      9.03961e+6 
           8450      8.88185e+6 
           8470      8.59052e+6 
           8490      9.39627e+6 
           8510      8.39499e+6 
           8530      9.57345e+6 
           8550      7.96619e+6 
           8570      9.80488e+6 
           8590       9.2043e+6 
           8610       8.9263e+6 
           8630      1.00782e+7 
           8650       9.8902e+6 
           8670      7.85645e+6 
           8690      9.85723e+6 
           8710      1.00519e+7 
           8730      9.86745e+6 
           8750       7.9831e+6 
           8770      9.57095e+6 
           8790       9.8039e+6 
           8810       9.7012e+6 
           8830      9.55535e+6 
           8850      9.11924e+6 
           8870      7.74701e+6 
           8890      9.37532e+6 
           8910      9.34752e+6 
           8930      9.29152e+6 
           8950      9.30601e+6 
           8970       9.2182e+6 
           8990      9.07282e+6 
           9010      7.60651e+6 
           9030       8.3883e+6 
           9050      8.93636e+6 
           9070      8.72984e+6 
           9090      8.60529e+6 
           9110      8.72416e+6 
           9130      8.72756e+6 
           9150      8.69305e+6 
           9170      8.61619e+6 
           9190      8.50959e+6 
           9210      8.26837e+6 
           9230      6.71271e+6 
           9250      8.02574e+6 
           9270      8.12047e+6 
           9290      8.27369e+6 
           9310      8.22861e+6 
           9330      8.16611e+6 
           9350      8.11914e+6 
           9370      8.06907e+6 
           9390      7.97919e+6 
           9410      7.78747e+6 
           9430      7.86674e+6 
           9450      7.83516e+6 
           9470      7.79286e+6 
           9490      7.74499e+6 
