# Kurucz ODFNEW /NOVER (2003)
# teff = 25000 K (value for the effective temperature for the model. Temperatures are given in K)
# logg = 5 log(cm/s2) (value for Log(G) for the model.)
# meta = 0.2  (value for the Metallicity for the model.)
# lh = 1.25  (l/Hp where l is the  mixing length of the convective element and Hp is the pressure scale height)
# vtur = 2 km/s (Microturbulence velocity)
# alpha = 0  (Alpha)
#
# column 1: WAVELENGTH (ANGSTROM), Wavelength in Angstrom
# column 2: FLUX (ERG/CM2/S/A), Flux in erg/cm2/s/A
          147.2     2.60451e-13 
            151     1.02633e-12 
          155.2       4.333e-12 
          158.8     1.40542e-11 
            162     3.83936e-11 
            166     1.28034e-10 
          170.3     4.39105e-10 
          173.4       1.0341e-9 
          176.8      2.55482e-9 
          180.2       6.1128e-9 
          181.7      8.89194e-9 
          186.1      2.59139e-8 
            191      8.08727e-8 
          193.9      1.54471e-7 
          198.4      4.07264e-7 
          201.8      8.24983e-7 
            205      1.57164e-6 
          210.5      4.56273e-6 
          216.2      1.30494e-5 
          219.8      2.46864e-5 
            223      4.28077e-5 
          226.8      8.07608e-5 
            230      0.00356412 
            234        0.008014 
            240       0.0183754 
          246.5       0.0431512 
          252.4       0.0913412 
          256.8        0.149638 
            260         0.23248 
            264        0.361443 
          268.5        0.591231 
          273.5         0.99649 
          278.5         1.66191 
            284         2.95691 
            290         5.15058 
            296         8.81068 
            301         13.4686 
            308          24.289 
            318         55.1362 
            328         111.782 
            338         228.721 
            348         435.791 
            357         1026.56 
            366         1801.53 
            375          2809.7 
            385         4667.15 
            395            7749 
            405         11989.2 
            414         17796.4 
            422         24408.2 
            430         34076.8 
            441           51399 
            451         72752.5 
            460           97355 
            470          136078 
            480          185176 
            490          251221 
            500          333632 
            506      1.54158e+6 
            512      1.18661e+7 
            520      1.38004e+7 
            530      1.67912e+7 
            540       1.8259e+7 
            550       2.5168e+7 
            560      2.88349e+7 
            570      3.46605e+7 
            580      3.41453e+7 
            590      4.35279e+7 
            600      4.83752e+7 
            610      5.61024e+7 
            620      6.03777e+7 
            630      6.40241e+7 
            640      5.98591e+7 
            650        5.136e+7 
            658      6.99078e+7 
            665       8.4301e+7 
            675      9.31767e+7 
            685       9.7702e+7 
            695      1.23683e+8 
            705       1.2865e+8 
            716      1.44429e+8 
            726      1.51921e+8 
            735      1.58718e+8 
            745      1.78311e+8 
            755      1.90921e+8 
            765       2.0528e+8 
            775      2.20208e+8 
            785      2.35547e+8 
            795      2.44233e+8 
            805      2.55259e+8 
            815      2.65431e+8 
            825      2.87053e+8 
            835      2.71639e+8 
            845      3.01632e+8 
            855      3.11644e+8 
            865      3.32047e+8 
            875        3.527e+8 
            885      3.78824e+8 
            895      3.95902e+8 
            905      3.93443e+8 
            915      4.79357e+8 
            925      1.91868e+9 
            935      4.60405e+9 
            945     1.23153e+10 
            955     2.01565e+10 
            965     2.69618e+10 
            975      4.35054e+9 
            985     2.80956e+10 
            995     2.67327e+10 
           1005     3.19295e+10 
           1015     2.93024e+10 
           1025      8.54452e+9 
           1035     2.15605e+10 
           1045      3.8569e+10 
           1055         3.6e+10 
           1065     2.75091e+10 
           1075     3.28702e+10 
           1085     2.90807e+10 
           1095     3.30566e+10 
           1105     2.93828e+10 
           1115     2.78972e+10 
           1125     2.24712e+10 
           1135     2.94985e+10 
           1145     2.53246e+10 
           1155     2.68907e+10 
           1165     2.65488e+10 
           1175     1.58133e+10 
           1185     2.53337e+10 
           1195     2.20512e+10 
           1205     1.39919e+10 
           1215      7.20526e+9 
           1225     1.71795e+10 
           1235      2.3438e+10 
           1245     2.32587e+10 
           1255     2.27646e+10 
           1265     2.30083e+10 
           1275      2.3726e+10 
           1285     2.36433e+10 
           1295     1.60949e+10 
           1305     1.67342e+10 
           1315      2.2518e+10 
           1325     2.05936e+10 
           1335     1.95934e+10 
           1345     2.01551e+10 
           1355     1.99182e+10 
           1365     1.77416e+10 
           1375     1.72824e+10 
           1385     1.70545e+10 
           1395     1.28173e+10 
           1405     1.37919e+10 
           1415     1.48782e+10 
           1425     1.47326e+10 
           1435     1.50922e+10 
           1442     1.55916e+10 
           1447     1.52899e+10 
           1455     1.48174e+10 
           1465     1.35227e+10 
           1475     1.37288e+10 
           1485     1.33923e+10 
           1495      1.3213e+10 
           1505     1.17159e+10 
           1512     1.05067e+10 
           1517     1.08604e+10 
           1525     1.13061e+10 
           1535      9.58202e+9 
           1545      9.37915e+9 
           1555      9.09454e+9 
           1565      9.74946e+9 
           1575     1.03339e+10 
           1585     1.03279e+10 
           1595     1.02487e+10 
           1605     1.04195e+10 
           1615     1.01708e+10 
           1625      9.95785e+9 
           1635     1.05186e+10 
           1645     1.04434e+10 
           1655     1.02169e+10 
           1665     1.05342e+10 
           1672     1.00352e+10 
           1677      1.0746e+10 
           1685     1.04996e+10 
           1695      9.90371e+9 
           1705      9.50083e+9 
           1715      8.99983e+9 
           1725      8.77779e+9 
           1735      9.18888e+9 
           1745      8.92328e+9 
           1755       9.0122e+9 
           1765      8.68894e+9 
           1775      8.27457e+9 
           1785      8.38808e+9 
           1795      8.70294e+9 
           1805      8.74056e+9 
           1815      7.77995e+9 
           1825      8.10518e+9 
           1835      7.75908e+9 
           1845      7.04393e+9 
           1855      7.04548e+9 
           1865      7.14137e+9 
           1875      7.55329e+9 
           1885      6.68644e+9 
           1895        6.215e+9 
           1905       6.7462e+9 
           1915      6.29306e+9 
           1925       5.9928e+9 
           1935      6.34455e+9 
           1945      6.48462e+9 
           1955      5.84597e+9 
           1967      6.35469e+9 
           1976      6.63704e+9 
           1984      6.07944e+9 
           1995      5.98154e+9 
           2005      6.19632e+9 
           2015      6.06111e+9 
           2025      6.29382e+9 
           2035      5.71531e+9 
           2045      5.81918e+9 
           2055      5.61683e+9 
           2065      5.64843e+9 
           2074      5.87006e+9 
           2078      5.32846e+9 
           2085      5.59129e+9 
           2095      5.25942e+9 
           2105      5.45978e+9 
           2115      5.45712e+9 
           2125      5.51526e+9 
           2135      5.37817e+9 
           2145      5.11067e+9 
           2155      5.31766e+9 
           2165      5.27404e+9 
           2175      5.19627e+9 
           2185      5.02619e+9 
           2195       5.0895e+9 
           2205      5.03352e+9 
           2215      4.94356e+9 
           2225      4.79817e+9 
           2235      4.75691e+9 
           2245      4.77682e+9 
           2255       4.6043e+9 
           2265       4.6741e+9 
           2275      4.59765e+9 
           2285      4.59639e+9 
           2295      4.26968e+9 
           2305      4.42132e+9 
           2315      4.28205e+9 
           2325      4.23171e+9 
           2335      4.08457e+9 
           2345      4.08475e+9 
           2355      4.08253e+9 
           2365      4.01393e+9 
           2375      3.94507e+9 
           2385      3.90894e+9 
           2395      3.89207e+9 
           2405      3.78675e+9 
           2415       3.7698e+9 
           2425      3.77151e+9 
           2435      3.64427e+9 
           2445      3.65592e+9 
           2455      3.65545e+9 
           2465      3.57929e+9 
           2475      3.52749e+9 
           2485      3.48823e+9 
           2495      3.21269e+9 
           2505      3.39505e+9 
           2513      3.22076e+9 
           2518      3.35278e+9 
           2525      3.28659e+9 
           2535      3.23908e+9 
           2545      3.13969e+9 
           2555      3.18759e+9 
           2565      3.14005e+9 
           2575      3.14548e+9 
           2585      3.11736e+9 
           2595      3.08476e+9 
           2605      3.04985e+9 
           2615      3.01473e+9 
           2625      2.98716e+9 
           2635      2.96154e+9 
           2645      2.93881e+9 
           2655      2.92505e+9 
           2665      2.81138e+9 
           2675      2.82367e+9 
           2685      2.81057e+9 
           2695      2.71065e+9 
           2705      2.67612e+9 
           2715      2.66554e+9 
           2725       2.6416e+9 
           2735      2.64045e+9 
           2745       2.5466e+9 
           2755      2.54577e+9 
           2765      2.51748e+9 
           2775      2.54418e+9 
           2785      2.50132e+9 
           2795       2.4007e+9 
           2805      2.42728e+9 
           2815      2.43522e+9 
           2825      2.38525e+9 
           2835      2.29031e+9 
           2845      2.33237e+9 
           2855      2.30197e+9 
           2865      2.30084e+9 
           2875      2.27206e+9 
           2885      2.24447e+9 
           2895      2.21618e+9 
           2910      2.17369e+9 
           2930      2.13578e+9 
           2950      2.06782e+9 
           2970      2.04643e+9 
           2990       1.9939e+9 
           3010      1.93818e+9 
           3030      1.92466e+9 
           3050      1.88634e+9 
           3070      1.85257e+9 
           3090      1.78814e+9 
           3110      1.77153e+9 
           3130      1.73247e+9 
           3150      1.70154e+9 
           3170      1.65663e+9 
           3190      1.61504e+9 
           3210       1.6009e+9 
           3230      1.56529e+9 
           3250      1.53873e+9 
           3270      1.50693e+9 
           3290       1.4761e+9 
           3310      1.45044e+9 
           3330      1.41989e+9 
           3350      1.39228e+9 
           3370      1.36585e+9 
           3390      1.34319e+9 
           3410      1.31783e+9 
           3430      1.28681e+9 
           3450      1.25801e+9 
           3470      1.23701e+9 
           3490      1.21304e+9 
           3510      1.19207e+9 
           3530      1.17367e+9 
           3550      1.15274e+9 
           3570      1.13992e+9 
           3590      1.10279e+9 
           3610      1.08766e+9 
           3630      1.06901e+9 
           3640      1.07054e+9 
           3650      1.04828e+9 
           3670      1.03636e+9 
           3690      1.01926e+9 
           3710      9.82489e+8 
           3730       9.4837e+8 
           3750      9.40424e+8 
           3770      9.14357e+8 
           3790      9.54799e+8 
           3810      9.96032e+8 
           3830      8.63615e+8 
           3850       1.0265e+9 
           3870      1.04518e+9 
           3890      8.07951e+8 
           3910      1.04312e+9 
           3930      1.02643e+9 
           3950      1.00602e+9 
           3970      7.51504e+8 
           3990      9.60962e+8 
           4010       9.7696e+8 
           4030      9.02361e+8 
           4050      9.52728e+8 
           4070      9.06817e+8 
           4090      8.15229e+8 
           4110       7.1117e+8 
           4130      8.57845e+8 
           4150       8.6014e+8 
           4170      8.59166e+8 
           4190      8.50834e+8 
           4210      8.43024e+8 
           4230      8.24291e+8 
           4250      8.02243e+8 
           4270       7.7615e+8 
           4290      7.71489e+8 
           4310      7.44126e+8 
           4330       6.5398e+8 
           4350      5.95381e+8 
           4370      7.02724e+8 
           4390      6.89787e+8 
           4410      6.99759e+8 
           4430      6.92533e+8 
           4450       6.8343e+8 
           4470      6.33492e+8 
           4490      6.58507e+8 
           4510       6.5718e+8 
           4530        6.448e+8 
           4550       6.3605e+8 
           4570      6.25372e+8 
           4590      6.15356e+8 
           4610      6.00917e+8 
           4630      5.90728e+8 
           4650      5.76876e+8 
           4670      5.75746e+8 
           4690      5.70606e+8 
           4710       5.4563e+8 
           4730      5.47559e+8 
           4750      5.39502e+8 
           4770      5.38977e+8 
           4790      5.28164e+8 
           4810       5.1533e+8 
           4830      5.02254e+8 
           4850      4.50506e+8 
           4870      3.99033e+8 
           4890      4.79087e+8 
           4910      4.79208e+8 
           4930      4.58231e+8 
           4950      4.67543e+8 
           4970       4.6397e+8 
           4990      4.56174e+8 
           5010      4.34888e+8 
           5030      4.41904e+8 
           5050      4.29444e+8 
           5070      4.30899e+8 
           5090      4.24001e+8 
           5110      4.16836e+8 
           5130      4.06764e+8 
           5150      4.01864e+8 
           5170      4.00438e+8 
           5190       3.9519e+8 
           5210      3.87429e+8 
           5230      3.84099e+8 
           5250      3.78992e+8 
           5270      3.73041e+8 
           5290      3.68866e+8 
           5310      3.63474e+8 
           5330      3.58218e+8 
           5350      3.52294e+8 
           5370      3.49257e+8 
           5390      3.44362e+8 
           5410      3.39864e+8 
           5430      3.34567e+8 
           5450      3.30124e+8 
           5470      3.25637e+8 
           5490      3.21706e+8 
           5510      3.17911e+8 
           5530      3.13213e+8 
           5550      3.09737e+8 
           5570      3.05464e+8 
           5590      3.01812e+8 
           5610      2.97497e+8 
           5630      2.94092e+8 
           5650      2.88142e+8 
           5670      2.83512e+8 
           5690      2.79951e+8 
           5710      2.78167e+8 
           5730      2.75012e+8 
           5750      2.70972e+8 
           5770      2.68587e+8 
           5790      2.65027e+8 
           5810      2.61665e+8 
           5830      2.57989e+8 
           5850      2.55017e+8 
           5870      2.41813e+8 
           5890       2.4544e+8 
           5910      2.44936e+8 
           5930      2.41755e+8 
           5950      2.38312e+8 
           5970      2.36898e+8 
           5990      2.33061e+8 
           6010      2.31023e+8 
           6030      2.27845e+8 
           6050      2.25291e+8 
           6070      2.22787e+8 
           6090      2.20016e+8 
           6110      2.17437e+8 
           6130      2.14988e+8 
           6150      2.11022e+8 
           6170       2.0936e+8 
           6190      2.07262e+8 
           6210      2.04923e+8 
           6230      2.02522e+8 
           6250      1.99521e+8 
           6270      1.97531e+8 
           6290      1.95391e+8 
           6310      1.92944e+8 
           6330      1.90955e+8 
           6350      1.87783e+8 
           6370       1.8616e+8 
           6390      1.84212e+8 
           6410      1.82102e+8 
           6430      1.80251e+8 
           6450      1.78057e+8 
           6470      1.75293e+8 
           6490      1.73481e+8 
           6510      1.71341e+8 
           6530      1.68093e+8 
           6550      1.57339e+8 
           6570       1.3733e+8 
           6590      1.59555e+8 
           6610      1.61488e+8 
           6630      1.60404e+8 
           6650      1.58947e+8 
           6670      1.55014e+8 
           6690      1.53457e+8 
           6710      1.53916e+8 
           6730       1.5198e+8 
           6750      1.50634e+8 
           6770      1.49014e+8 
           6790      1.45996e+8 
           6810      1.45497e+8 
           6830      1.43984e+8 
           6850      1.42599e+8 
           6870      1.41067e+8 
           6890      1.39456e+8 
           6910      1.37908e+8 
           6930      1.36509e+8 
           6950       1.3514e+8 
           6970      1.33722e+8 
           6990      1.32279e+8 
           7010      1.30858e+8 
           7030      1.29475e+8 
           7050      1.28051e+8 
           7070      1.24238e+8 
           7090      1.25351e+8 
           7110      1.23619e+8 
           7130      1.22363e+8 
           7150      1.21422e+8 
           7170      1.20305e+8 
           7190       1.1912e+8 
           7210      1.17887e+8 
           7230      1.14735e+8 
           7250      1.15336e+8 
           7270      1.14289e+8 
           7290      1.12053e+8 
           7310      1.11963e+8 
           7330      1.10819e+8 
           7350      1.09729e+8 
           7370      1.08628e+8 
           7390      1.07537e+8 
           7410      1.06457e+8 
           7430      1.05297e+8 
           7450      1.04312e+8 
           7470      1.02964e+8 
           7490      1.02207e+8 
           7510      1.01182e+8 
           7530      1.00154e+8 
           7550      9.92672e+7 
           7570      9.82963e+7 
           7590      9.73146e+7 
           7610      9.63094e+7 
           7630      9.54169e+7 
           7650      9.45066e+7 
           7670      9.35854e+7 
           7690      9.26787e+7 
           7710      9.17739e+7 
           7730      9.08709e+7 
           7750      9.00262e+7 
           7770      8.85836e+7 
           7790      8.83094e+7 
           7810      8.74192e+7 
           7830      8.66352e+7 
           7850      8.57174e+7 
           7870      8.48809e+7 
           7890       8.3852e+7 
           7910      8.33924e+7 
           7930      8.26188e+7 
           7950      8.16731e+7 
           7970      8.09672e+7 
           7990      7.99959e+7 
           8010      7.94383e+7 
           8030      7.86809e+7 
           8050      7.79416e+7 
           8070       7.7226e+7 
           8090       7.6459e+7 
           8110      7.55898e+7 
           8130      7.51442e+7 
           8150      7.44242e+7 
           8170      7.38176e+7 
           8190      7.29464e+7 
           8210      7.21387e+7 
           8230      7.14326e+7 
           8250      7.10756e+7 
           8270      6.99335e+7 
           8290      6.97719e+7 
           8310       6.9191e+7 
           8330      6.85605e+7 
           8350      6.76219e+7 
           8370      6.72023e+7 
           8390      6.67646e+7 
           8410      6.61491e+7 
           8430      6.55335e+7 
           8450      6.42845e+7 
           8470      6.44013e+7 
           8490      6.36383e+7 
           8510      6.31939e+7 
           8530      6.25251e+7 
           8550      6.18464e+7 
           8570      6.17274e+7 
           8590      5.99188e+7 
