# Kurucz ODFNEW /NOVER (2003)
# teff = 27000 K (value for the effective temperature for the model. Temperatures are given in K)
# logg = 4.5 log(cm/s2) (value for Log(G) for the model.)
# meta = 0.5  (value for the Metallicity for the model.)
# lh = 1.25  (l/Hp where l is the  mixing length of the convective element and Hp is the pressure scale height)
# vtur = 2 km/s (Microturbulence velocity)
# alpha = 0.4  (Alpha)
#
# column 1: WAVELENGTH (ANGSTROM), Wavelength in Angstrom
# column 2: FLUX (ERG/CM2/S/A), Flux in erg/cm2/s/A
          147.2     6.45546e-12 
            151     2.35247e-11 
          155.2     9.15085e-11 
          158.8     2.77661e-10 
            162     7.16438e-10 
            166      2.23104e-9 
          170.3      7.09486e-9 
          173.4      1.59938e-8 
          176.8      3.75124e-8 
          180.2      8.53453e-8 
          181.7      1.21309e-7 
          186.1      3.31846e-7 
            191      9.70031e-7 
          193.9      1.78459e-6 
          198.4      4.44083e-6 
          201.8      8.61913e-6 
            205      1.57872e-5 
          210.5      4.29602e-5 
          216.2     0.000115157 
          219.8     0.000209458 
            223     0.000351093 
          226.8     0.000649111 
            230       0.0100869 
            234       0.0217887 
            240       0.0483568 
          246.5         0.10935 
          252.4        0.225538 
          256.8        0.367399 
            260        0.565484 
            264        0.856365 
          268.5          1.4137 
          273.5          2.3706 
          278.5         3.87205 
            284         7.30376 
            290         12.5355 
            296         21.1936 
            301         32.1485 
            308         61.3599 
            318         138.399 
            328         275.081 
            338         565.767 
            348         1075.25 
            357         7191.46 
            366         18000.4 
            375         26112.7 
            385         44190.9 
            395          121341 
            405          173965 
            414          280861 
            422          385839 
            430          538301 
            441          770811 
            451          994865 
            460      1.23842e+6 
            470      1.70782e+6 
            480      2.24582e+6 
            490      2.93664e+6 
            500        3.693e+6 
            506      1.15983e+7 
            512      1.10212e+8 
            520      1.12722e+8 
            530      1.21724e+8 
            540      1.18935e+8 
            550      1.86397e+8 
            560      2.24152e+8 
            570      2.52324e+8 
            580      2.30596e+8 
            590      2.99619e+8 
            600      2.95827e+8 
            610      3.55104e+8 
            620      3.78866e+8 
            630        3.771e+8 
            640      3.13184e+8 
            650      2.33652e+8 
            658      3.31593e+8 
            665      4.27694e+8 
            675      4.62766e+8 
            685      4.43284e+8 
            695      6.45679e+8 
            705      5.98394e+8 
            716      7.24225e+8 
            726      7.09307e+8 
            735      7.57329e+8 
            745      8.54968e+8 
            755      8.86928e+8 
            765      9.48092e+8 
            775      1.00306e+9 
            785      1.06338e+9 
            795      1.06207e+9 
            805      1.08119e+9 
            815      1.09277e+9 
            825      1.19363e+9 
            835      8.99104e+8 
            845      1.17062e+9 
            855      1.16555e+9 
            865      1.23573e+9 
            875      1.29051e+9 
            885      1.38975e+9 
            895      1.43802e+9 
            905      1.38084e+9 
            915      1.67296e+9 
            925      8.04159e+9 
            935      1.7157e+10 
            945     3.12234e+10 
            955     3.92213e+10 
            965     4.53989e+10 
            975      7.46543e+9 
            985     3.36493e+10 
            995     3.28564e+10 
           1005     3.93355e+10 
           1015     4.21845e+10 
           1025     2.31382e+10 
           1035     3.42815e+10 
           1045     5.23097e+10 
           1055     4.73829e+10 
           1065     3.32546e+10 
           1075     4.03616e+10 
           1085     3.74641e+10 
           1095     4.20992e+10 
           1105     3.63732e+10 
           1115     3.30904e+10 
           1125     2.21214e+10 
           1135     3.59585e+10 
           1145     3.20717e+10 
           1155     3.25015e+10 
           1165     3.26232e+10 
           1175     1.66805e+10 
           1185     3.01469e+10 
           1195     2.73098e+10 
           1205       1.617e+10 
           1215     1.57684e+10 
           1225     2.54739e+10 
           1235     3.03389e+10 
           1245     2.90271e+10 
           1255     2.85114e+10 
           1265     2.96562e+10 
           1275     3.07455e+10 
           1285     3.08255e+10 
           1295     1.84833e+10 
           1305     2.06842e+10 
           1315      3.0117e+10 
           1325     2.76256e+10 
           1335     2.71583e+10 
           1345     2.66039e+10 
           1355     2.67626e+10 
           1365     2.34604e+10 
           1375     2.22177e+10 
           1385     2.03072e+10 
           1395     1.09031e+10 
           1405     1.33861e+10 
           1415     1.82846e+10 
           1425     1.81617e+10 
           1435     1.93851e+10 
           1442     2.00543e+10 
           1447     1.97936e+10 
           1455     1.87989e+10 
           1465     1.69156e+10 
           1475     1.77125e+10 
           1485     1.73483e+10 
           1495     1.68894e+10 
           1505      1.4659e+10 
           1512     1.33427e+10 
           1517     1.38276e+10 
           1525     1.43073e+10 
           1535     1.15892e+10 
           1545     1.07213e+10 
           1555     1.06187e+10 
           1565     1.18338e+10 
           1575     1.27799e+10 
           1585     1.28825e+10 
           1595     1.27804e+10 
           1605     1.32119e+10 
           1615      1.2748e+10 
           1625     1.24959e+10 
           1635      1.3458e+10 
           1645     1.36607e+10 
           1655     1.33196e+10 
           1665     1.35776e+10 
           1672     1.26626e+10 
           1677     1.46401e+10 
           1685      1.3972e+10 
           1695     1.30462e+10 
           1705     1.27304e+10 
           1715     1.19215e+10 
           1725     1.14852e+10 
           1735     1.21756e+10 
           1745     1.19994e+10 
           1755     1.19547e+10 
           1765     1.19091e+10 
           1775      1.0846e+10 
           1785     1.11648e+10 
           1795     1.15928e+10 
           1805     1.17238e+10 
           1815     1.02985e+10 
           1825     1.07519e+10 
           1835     1.03528e+10 
           1845      9.33317e+9 
           1855      9.64436e+9 
           1865      9.73259e+9 
           1875     1.00879e+10 
           1885      8.92696e+9 
           1895      8.34957e+9 
           1905      9.15345e+9 
           1915      8.45314e+9 
           1925      7.90073e+9 
           1935      8.59081e+9 
           1945      8.77456e+9 
           1955      7.73266e+9 
           1967      8.59885e+9 
           1976      9.04037e+9 
           1984      8.28588e+9 
           1995      8.20299e+9 
           2005      8.58244e+9 
           2015      8.43558e+9 
           2025      8.60438e+9 
           2035      7.83629e+9 
           2045      8.04099e+9 
           2055      7.48477e+9 
           2065      7.43286e+9 
           2074      7.70883e+9 
           2078      7.01507e+9 
           2085      7.51583e+9 
           2095      7.12537e+9 
           2105       7.5121e+9 
           2115      7.59998e+9 
           2125      7.58669e+9 
           2135      7.44735e+9 
           2145      7.05449e+9 
           2155      7.40256e+9 
           2165      7.32839e+9 
           2175       7.2465e+9 
           2185      6.95544e+9 
           2195      7.08237e+9 
           2205      7.09831e+9 
           2215      6.93662e+9 
           2225       6.7286e+9 
           2235      6.63044e+9 
           2245      6.69813e+9 
           2255      6.41889e+9 
           2265      6.54871e+9 
           2275      6.42459e+9 
           2285      6.34936e+9 
           2295      5.52481e+9 
           2305      6.11372e+9 
           2315        5.929e+9 
           2325      5.88843e+9 
           2335      5.69652e+9 
           2345      5.78786e+9 
           2355      5.72333e+9 
           2365      5.67907e+9 
           2375      5.52054e+9 
           2385      5.47978e+9 
           2395      5.40646e+9 
           2405      5.31763e+9 
           2415      5.25134e+9 
           2425      5.24303e+9 
           2435      5.06936e+9 
           2445      5.08696e+9 
           2455      5.08361e+9 
           2465      4.99377e+9 
           2475      4.89378e+9 
           2485       4.6847e+9 
           2495      3.46808e+9 
           2505       4.4377e+9 
           2513      4.37555e+9 
           2518      4.52254e+9 
           2525      4.54761e+9 
           2535      4.53167e+9 
           2545      4.27063e+9 
           2555      4.38223e+9 
           2565      4.28131e+9 
           2575      4.34408e+9 
           2585      4.28314e+9 
           2595      4.24672e+9 
           2605      4.20358e+9 
           2615       4.1262e+9 
           2625      4.10565e+9 
           2635      4.06201e+9 
           2645      4.00195e+9 
           2655      3.98063e+9 
           2665      3.75413e+9 
           2675      3.79687e+9 
           2685       3.8024e+9 
           2695       3.6332e+9 
           2705      3.51453e+9 
           2715      3.54695e+9 
           2725      3.56754e+9 
           2735      3.53299e+9 
           2745       3.4522e+9 
           2755      3.43776e+9 
           2765      3.39475e+9 
           2775      3.44841e+9 
           2785      3.37337e+9 
           2795      3.20802e+9 
           2805      3.26544e+9 
           2815      3.29234e+9 
           2825      3.24802e+9 
           2835      3.10126e+9 
           2845      3.15351e+9 
           2855       3.0801e+9 
           2865       3.0887e+9 
           2875       3.0441e+9 
           2885      3.00384e+9 
           2895      2.94829e+9 
           2910      2.86201e+9 
           2930      2.86743e+9 
           2950      2.77665e+9 
           2970      2.73315e+9 
           2990      2.65566e+9 
           3010       2.5177e+9 
           3030      2.52052e+9 
           3050      2.49826e+9 
           3070       2.4808e+9 
           3090      2.34289e+9 
           3110      2.36384e+9 
           3130      2.28474e+9 
           3150      2.26026e+9 
           3170      2.18861e+9 
           3190      2.15692e+9 
           3210      2.12742e+9 
           3230      2.06382e+9 
           3250      2.04242e+9 
           3270      1.98725e+9 
           3290      1.94948e+9 
           3310      1.91073e+9 
           3330      1.86345e+9 
           3350      1.83512e+9 
           3370      1.78919e+9 
           3390       1.7726e+9 
           3410        1.737e+9 
           3430      1.70585e+9 
           3450      1.66277e+9 
           3470      1.63105e+9 
           3490      1.59521e+9 
           3510      1.56788e+9 
           3530      1.55213e+9 
           3550       1.5187e+9 
           3570      1.49463e+9 
           3590      1.44511e+9 
           3610       1.4264e+9 
           3630      1.40163e+9 
           3640      1.40085e+9 
           3650      1.37837e+9 
           3670      1.36403e+9 
           3690      1.33935e+9 
           3710      1.27992e+9 
           3730      1.23504e+9 
           3750      1.24317e+9 
           3770      1.21083e+9 
           3790      1.26467e+9 
           3810      1.30725e+9 
           3830      1.14727e+9 
           3850      1.30816e+9 
           3870      1.28557e+9 
           3890      1.07835e+9 
           3910      1.31061e+9 
           3930      1.26279e+9 
           3950      1.23432e+9 
           3970      1.00079e+9 
           3990      1.20335e+9 
           4010      1.20365e+9 
           4030      1.13307e+9 
           4050      1.15397e+9 
           4070      1.07668e+9 
           4090      1.00427e+9 
           4110      9.06268e+8 
           4130      1.04362e+9 
           4150      1.03802e+9 
           4170      1.04455e+9 
           4190      1.03282e+9 
           4210      1.02707e+9 
           4230       9.9835e+8 
           4250       9.5671e+8 
           4270      9.29607e+8 
           4290      9.10786e+8 
           4310      8.74021e+8 
           4330      8.10187e+8 
           4350      7.50094e+8 
           4370      8.35883e+8 
           4390      8.45076e+8 
           4410      8.34833e+8 
           4430      8.34837e+8 
           4450      8.16886e+8 
           4470      7.82857e+8 
           4490      7.94548e+8 
           4510      7.92999e+8 
           4530      7.82175e+8 
           4550      7.72966e+8 
           4570      7.58477e+8 
           4590      7.44103e+8 
           4610      7.19597e+8 
           4630      7.09668e+8 
           4650      6.80979e+8 
           4670      6.89894e+8 
           4690      6.86095e+8 
           4710      6.51784e+8 
           4730      6.65969e+8 
           4750      6.54111e+8 
           4770      6.58704e+8 
           4790      6.45268e+8 
           4810      6.26642e+8 
           4830      6.13082e+8 
           4850      5.71568e+8 
           4870       5.1213e+8 
           4890      5.88881e+8 
           4910      5.83922e+8 
           4930       5.6343e+8 
           4950      5.63668e+8 
           4970      5.65516e+8 
           4990      5.55031e+8 
           5010      5.25438e+8 
           5030      5.34847e+8 
           5050      5.22199e+8 
           5070      5.24302e+8 
           5090      5.12643e+8 
           5110      5.03213e+8 
           5130      4.91023e+8 
           5150      4.87188e+8 
           5170      4.83976e+8 
           5190      4.78644e+8 
           5210      4.68773e+8 
           5230      4.65318e+8 
           5250      4.59155e+8 
           5270      4.49966e+8 
           5290      4.46691e+8 
           5310      4.39619e+8 
           5330      4.33713e+8 
           5350      4.26462e+8 
           5370      4.22677e+8 
           5390      4.15928e+8 
           5410      4.10864e+8 
           5430      4.04585e+8 
           5450      3.98336e+8 
           5470      3.92935e+8 
           5490      3.88477e+8 
           5510      3.84806e+8 
           5530       3.7779e+8 
           5550      3.74669e+8 
           5570      3.69251e+8 
           5590      3.64937e+8 
           5610      3.59359e+8 
           5630      3.55694e+8 
           5650      3.47503e+8 
           5670      3.41201e+8 
           5690      3.35641e+8 
           5710      3.34138e+8 
           5730      3.31614e+8 
           5750      3.25357e+8 
           5770      3.24249e+8 
           5790       3.1945e+8 
           5810       3.1538e+8 
           5830       3.1015e+8 
           5850      3.07064e+8 
           5870      2.94424e+8 
           5890      2.95577e+8 
           5910      2.93591e+8 
           5930      2.89857e+8 
           5950      2.85592e+8 
           5970      2.85531e+8 
           5990      2.79291e+8 
           6010      2.77884e+8 
           6030      2.73298e+8 
           6050      2.70372e+8 
           6070      2.67909e+8 
           6090      2.64699e+8 
           6110      2.61455e+8 
           6130       2.5872e+8 
           6150      2.52796e+8 
           6170      2.50675e+8 
           6190      2.49019e+8 
           6210      2.46499e+8 
           6230      2.43832e+8 
           6250      2.39506e+8 
           6270      2.37204e+8 
           6290      2.34917e+8 
           6310      2.31396e+8 
           6330      2.29588e+8 
           6350      2.25323e+8 
           6370      2.23966e+8 
           6390       2.2133e+8 
           6410      2.18759e+8 
           6430      2.16762e+8 
           6450      2.14007e+8 
           6470      2.09753e+8 
           6490      2.07925e+8 
           6510      2.05654e+8 
           6530      2.01781e+8 
           6550      1.93868e+8 
           6570      1.70748e+8 
           6590      1.93586e+8 
           6610      1.94124e+8 
           6630      1.92715e+8 
           6650      1.90228e+8 
           6670      1.86413e+8 
           6690      1.84576e+8 
           6710      1.84423e+8 
           6730      1.81507e+8 
           6750      1.80665e+8 
           6770      1.78687e+8 
           6790      1.74383e+8 
           6810      1.74181e+8 
           6830      1.71902e+8 
           6850      1.70772e+8 
           6870      1.68821e+8 
           6890      1.66525e+8 
           6910      1.64048e+8 
           6930      1.63463e+8 
           6950      1.61884e+8 
           6970      1.60181e+8 
           6990      1.58302e+8 
           7010      1.56518e+8 
           7030      1.54783e+8 
           7050      1.53231e+8 
           7070      1.48846e+8 
           7090      1.49596e+8 
           7110      1.46646e+8 
           7130      1.45284e+8 
           7150      1.44796e+8 
           7170      1.43748e+8 
           7190      1.42476e+8 
           7210      1.40991e+8 
           7230      1.36882e+8 
           7250      1.37454e+8 
           7270       1.3662e+8 
           7290      1.34028e+8 
           7310      1.33761e+8 
           7330      1.32296e+8 
           7350      1.31047e+8 
           7370      1.29789e+8 
           7390      1.28467e+8 
           7410      1.27163e+8 
           7430      1.25661e+8 
           7450      1.24464e+8 
           7470      1.21706e+8 
           7490      1.21695e+8 
           7510      1.20714e+8 
           7530      1.19216e+8 
           7550      1.18427e+8 
           7570      1.17276e+8 
           7590      1.15998e+8 
           7610      1.14433e+8 
           7630      1.13724e+8 
           7650      1.12576e+8 
           7670      1.11574e+8 
           7690      1.10427e+8 
           7710      1.09323e+8 
           7730      1.08051e+8 
           7750      1.07281e+8 
           7770      1.05238e+8 
           7790       1.0522e+8 
           7810      1.04157e+8 
           7830      1.03208e+8 
           7850      1.02041e+8 
           7870       1.0072e+8 
           7890      9.93624e+7 
           7910      9.90352e+7 
           7930      9.80451e+7 
           7950      9.69444e+7 
           7970      9.61975e+7 
           7990      9.50261e+7 
           8010      9.44229e+7 
           8030      9.35208e+7 
           8050      9.26905e+7 
           8070      9.19077e+7 
           8090       9.0953e+7 
           8110      8.90558e+7 
           8130       8.9325e+7 
           8150      8.85241e+7 
           8170       8.7809e+7 
           8190       8.5926e+7 
           8210      8.54129e+7 
           8230      8.42474e+7 
           8250      8.44317e+7 
           8270      8.21785e+7 
           8290       8.2665e+7 
           8310      8.21421e+7 
           8330      8.15038e+7 
           8350      8.03034e+7 
           8370       7.9662e+7 
           8390      7.92773e+7 
           8410      7.84106e+7 
           8430      7.78429e+7 
           8450      7.62349e+7 
           8470       7.6453e+7 
           8490      7.54869e+7 
           8510      7.47944e+7 
           8530      7.42369e+7 
           8550       7.3117e+7 
           8570      7.33917e+7 
