# Kurucz ODFNEW /NOVER (2003)
# teff = 22000 K (value for the effective temperature for the model. Temperatures are given in K)
# logg = 5 log(cm/s2) (value for Log(G) for the model.)
# meta = -0.5  (value for the Metallicity for the model.)
# lh = 1.25  (l/Hp where l is the  mixing length of the convective element and Hp is the pressure scale height)
# vtur = 2 km/s (Microturbulence velocity)
# alpha = 0  (Alpha)
#
# column 1: WAVELENGTH (ANGSTROM), Wavelength in Angstrom
# column 2: FLUX (ERG/CM2/S/A), Flux in erg/cm2/s/A
          147.2     7.52804e-17 
            151     3.86114e-16 
          155.2     2.14382e-15 
          158.8     8.66879e-15 
            162     2.85231e-14 
            166     1.18602e-13 
          170.3     5.09691e-13 
          173.4      1.3959e-12 
          176.8      4.0482e-12 
          180.2     1.12893e-11 
          181.7     1.75351e-11 
          186.1     6.13893e-11 
            191     2.31969e-10 
          193.9     4.93542e-10 
          198.4      1.52721e-9 
          201.8      3.47392e-9 
            205      7.35315e-9 
          210.5      2.53133e-8 
          216.2      8.54891e-8 
          219.8      1.78664e-7 
            223      3.37245e-7 
          226.8      7.01221e-7 
            230      4.66397e-6 
            234      1.11486e-5 
            240       3.0884e-5 
          246.5       8.7334e-5 
          252.4     0.000215284 
          256.8     0.000401658 
            260     0.000643226 
            264      0.00111452 
          268.5      0.00202374 
          273.5      0.00383225 
          278.5       0.0071084 
            284       0.0136719 
            290       0.0270385 
            296       0.0518768 
            301       0.0876281 
            308        0.174672 
            318        0.458711 
            328         1.11092 
            338         2.56908 
            348         5.62649 
            357          11.009 
            366         20.8124 
            375         37.7332 
            385         70.9565 
            395         128.623 
            405         226.233 
            414         367.419 
            422         552.558 
            430         816.784 
            441         1374.28 
            451         2150.16 
            460         3150.39 
            470         4737.34 
            480         6981.27 
            490         10127.3 
            500         14440.3 
            506         98308.1 
            512          358142 
            520          453691 
            530          622965 
            540          711988 
            550      1.00567e+6 
            560      1.21236e+6 
            570      1.52153e+6 
            580      1.59001e+6 
            590      2.11254e+6 
            600      2.58122e+6 
            610      3.12328e+6 
            620       3.6148e+6 
            630      4.24075e+6 
            640      4.70305e+6 
            650       5.2727e+6 
            658      6.24292e+6 
            665      6.86926e+6 
            675      7.67647e+6 
            685      8.63814e+6 
            695      1.01688e+7 
            705      1.13195e+7 
            716      1.28681e+7 
            726      1.42164e+7 
            735      1.56543e+7 
            745      1.76206e+7 
            755      1.95428e+7 
            765      2.15284e+7 
            775      2.37858e+7 
            785      2.61548e+7 
            795       2.8284e+7 
            805      3.07604e+7 
            815      3.32102e+7 
            825      3.63431e+7 
            835       3.8367e+7 
            845        4.171e+7 
            855      4.47241e+7 
            865      4.84138e+7 
            875       5.2271e+7 
            885       5.6397e+7 
            895      6.01714e+7 
            905      6.25747e+7 
            915      8.50721e+7 
            925      2.90596e+8 
            935      7.24048e+8 
            945      2.86467e+9 
            955      6.93584e+9 
            965      9.94916e+9 
            975      2.20721e+9 
            985     1.58159e+10 
            995     1.63104e+10 
           1005     1.79643e+10 
           1015     1.31816e+10 
           1025      1.81124e+9 
           1035      9.35788e+9 
           1045     1.94301e+10 
           1055     1.92524e+10 
           1065     1.62493e+10 
           1075     1.86258e+10 
           1085     1.67483e+10 
           1095     1.83054e+10 
           1105     1.66486e+10 
           1115     1.62801e+10 
           1125     1.47474e+10 
           1135     1.65402e+10 
           1145     1.46608e+10 
           1155     1.55055e+10 
           1165     1.56041e+10 
           1175     1.19672e+10 
           1185     1.49313e+10 
           1195     1.20525e+10 
           1205        7.371e+9 
           1215      1.69564e+9 
           1225      7.09488e+9 
           1235     1.23023e+10 
           1245     1.30796e+10 
           1255     1.28222e+10 
           1265     1.23809e+10 
           1275      1.2862e+10 
           1285     1.27553e+10 
           1295     1.01284e+10 
           1305       9.8353e+9 
           1315     1.20115e+10 
           1325     1.13281e+10 
           1335     1.05953e+10 
           1345     1.10502e+10 
           1355     1.08944e+10 
           1365     1.02115e+10 
           1375     1.00809e+10 
           1385     1.00886e+10 
           1395      9.01526e+9 
           1405      9.27537e+9 
           1415      9.27606e+9 
           1425      9.20699e+9 
           1435      9.14608e+9 
           1442      9.29031e+9 
           1447       9.1269e+9 
           1455      8.93178e+9 
           1465      8.51151e+9 
           1475      8.41017e+9 
           1485       8.1326e+9 
           1495      8.08215e+9 
           1505      7.58141e+9 
           1512      7.07913e+9 
           1517       7.2596e+9 
           1525      7.30173e+9 
           1535      6.71221e+9 
           1545      6.81657e+9 
           1555      6.47569e+9 
           1565      6.58501e+9 
           1575      6.77517e+9 
           1585      6.67165e+9 
           1595      6.68022e+9 
           1605      6.50671e+9 
           1615      6.40515e+9 
           1625       6.2849e+9 
           1635      6.37455e+9 
           1645      6.26763e+9 
           1655      6.03009e+9 
           1665       6.2317e+9 
           1672       5.9876e+9 
           1677      6.12663e+9 
           1685      6.07536e+9 
           1695      5.86056e+9 
           1705      5.62523e+9 
           1715      5.41035e+9 
           1725      5.30754e+9 
           1735       5.4056e+9 
           1745      5.25227e+9 
           1755      5.31527e+9 
           1765      4.98359e+9 
           1775      5.00724e+9 
           1785      4.97943e+9 
           1795      5.04231e+9 
           1805      4.99943e+9 
           1815      4.72275e+9 
           1825      4.78424e+9 
           1835      4.63681e+9 
           1845      4.33236e+9 
           1855      4.24734e+9 
           1865      4.27654e+9 
           1875      4.41311e+9 
           1885      4.07209e+9 
           1895      3.86347e+9 
           1905      4.05814e+9 
           1915      3.87606e+9 
           1925      3.76971e+9 
           1935      3.85088e+9 
           1945      3.90589e+9 
           1955      3.64258e+9 
           1967      3.80119e+9 
           1976      3.89902e+9 
           1984      3.66981e+9 
           1995       3.5754e+9 
           2005       3.6252e+9 
           2015      3.58346e+9 
           2025      3.65546e+9 
           2035      3.45733e+9 
           2045      3.44351e+9 
           2055      3.33541e+9 
           2065      3.36839e+9 
           2074      3.42811e+9 
           2078      3.27865e+9 
           2085      3.31465e+9 
           2095      3.18102e+9 
           2105      3.22714e+9 
           2115      3.19762e+9 
           2125      3.22716e+9 
           2135      3.14948e+9 
           2145      3.05631e+9 
           2155      3.09283e+9 
           2165      3.04279e+9 
           2175      2.99926e+9 
           2185      2.95388e+9 
           2195       2.9515e+9 
           2205      2.89457e+9 
           2215      2.84922e+9 
           2225       2.7828e+9 
           2235       2.7799e+9 
           2245      2.75564e+9 
           2255      2.69043e+9 
           2265      2.69566e+9 
           2275      2.65884e+9 
           2285      2.64767e+9 
           2295      2.56185e+9 
           2305      2.55966e+9 
           2315      2.50702e+9 
           2325      2.48215e+9 
           2335      2.41243e+9 
           2345      2.36662e+9 
           2355      2.37842e+9 
           2365      2.32192e+9 
           2375      2.31048e+9 
           2385      2.26519e+9 
           2395      2.26825e+9 
           2405      2.22116e+9 
           2415      2.19821e+9 
           2425      2.20139e+9 
           2435       2.1458e+9 
           2445      2.13716e+9 
           2455      2.12998e+9 
           2465      2.08483e+9 
           2475      2.06433e+9 
           2485      2.05299e+9 
           2495       1.9893e+9 
           2505      2.00761e+9 
           2513      1.94063e+9 
           2518      1.97731e+9 
           2525      1.93877e+9 
           2535      1.90533e+9 
           2545       1.8812e+9 
           2555      1.89634e+9 
           2565      1.86566e+9 
           2575      1.86313e+9 
           2585      1.84818e+9 
           2595      1.82708e+9 
           2605       1.8103e+9 
           2615      1.79329e+9 
           2625      1.77369e+9 
           2635      1.75499e+9 
           2645      1.75946e+9 
           2655      1.73988e+9 
           2665       1.7017e+9 
           2675      1.69363e+9 
           2685      1.68501e+9 
           2695      1.64603e+9 
           2705      1.64382e+9 
           2715       1.6213e+9 
           2725      1.58969e+9 
           2735       1.5945e+9 
           2745      1.54306e+9 
           2755      1.53664e+9 
           2765      1.52274e+9 
           2775      1.53175e+9 
           2785      1.51066e+9 
           2795      1.45729e+9 
           2805      1.47124e+9 
           2815      1.47093e+9 
           2825      1.43779e+9 
           2835      1.40352e+9 
           2845      1.41536e+9 
           2855      1.40551e+9 
           2865       1.3976e+9 
           2875      1.38019e+9 
           2885      1.36769e+9 
           2895      1.35431e+9 
           2910      1.33389e+9 
           2930      1.30249e+9 
           2950      1.26757e+9 
           2970      1.25594e+9 
           2990      1.22731e+9 
           3010      1.20598e+9 
           3030      1.18568e+9 
           3050       1.1622e+9 
           3070      1.13971e+9 
           3090      1.11593e+9 
           3110      1.09586e+9 
           3130      1.07667e+9 
           3150      1.05625e+9 
           3170      1.03543e+9 
           3190      1.00586e+9 
           3210      9.97424e+8 
           3230      9.79044e+8 
           3250      9.61217e+8 
           3270      9.44739e+8 
           3290      9.26362e+8 
           3310      9.11281e+8 
           3330      8.94728e+8 
           3350      8.77027e+8 
           3370      8.62933e+8 
           3390      8.47831e+8 
           3410       8.3299e+8 
           3430      8.15427e+8 
           3450      7.98594e+8 
           3470      7.86755e+8 
           3490      7.73217e+8 
           3510       7.6073e+8 
           3530      7.48688e+8 
           3550       7.3636e+8 
           3570      7.28251e+8 
           3590      7.10191e+8 
           3610       7.0087e+8 
           3630      6.87278e+8 
           3640      6.86806e+8 
           3650      6.77307e+8 
           3670       6.6919e+8 
           3690      6.58525e+8 
           3710      6.37184e+8 
           3730        6.109e+8 
           3750      6.13188e+8 
           3770       6.0336e+8 
           3790      6.43614e+8 
           3810      6.80761e+8 
           3830      5.83037e+8 
           3850      7.14471e+8 
           3870      7.43276e+8 
           3890      5.43705e+8 
           3910      7.38176e+8 
           3930      7.41024e+8 
           3950       7.1782e+8 
           3970      5.08484e+8 
           3990      6.82392e+8 
           4010      7.01186e+8 
           4030      6.45531e+8 
           4050      6.91492e+8 
           4070      6.69111e+8 
           4090       5.7822e+8 
           4110      4.92252e+8 
           4130      6.21739e+8 
           4150      6.27288e+8 
           4170      6.25987e+8 
           4190       6.1966e+8 
           4210      6.11108e+8 
           4230      6.00395e+8 
           4250      5.89335e+8 
           4270      5.73352e+8 
           4290      5.67302e+8 
           4310      5.48826e+8 
           4330      4.64459e+8 
           4350      4.19265e+8 
           4370      5.18413e+8 
           4390        5.007e+8 
           4410      5.15908e+8 
           4430       5.0673e+8 
           4450      5.01539e+8 
           4470      4.59559e+8 
           4490       4.8272e+8 
           4510      4.80392e+8 
           4530       4.7236e+8 
           4550      4.65177e+8 
           4570      4.58138e+8 
           4590      4.51383e+8 
           4610      4.44125e+8 
           4630      4.36939e+8 
           4650      4.29774e+8 
           4670      4.24546e+8 
           4690       4.1874e+8 
           4710      4.04154e+8 
           4730      4.04229e+8 
           4750      3.97977e+8 
           4770      3.94315e+8 
           4790      3.87384e+8 
           4810      3.79463e+8 
           4830       3.6814e+8 
           4850      3.20875e+8 
           4870      2.82743e+8 
           4890      3.48952e+8 
           4910      3.51616e+8 
           4930      3.36493e+8 
           4950      3.45218e+8 
           4970      3.41286e+8 
           4990      3.36362e+8 
           5010      3.24646e+8 
           5030      3.26567e+8 
           5050      3.18076e+8 
           5070      3.17975e+8 
           5090      3.13533e+8 
           5110      3.08977e+8 
           5130      3.04325e+8 
           5150      3.00048e+8 
           5170       2.9666e+8 
           5190       2.9263e+8 
           5210      2.87653e+8 
           5230      2.84741e+8 
           5250      2.80922e+8 
           5270      2.77098e+8 
           5290       2.7354e+8 
           5310      2.69866e+8 
           5330      2.66148e+8 
           5350      2.62306e+8 
           5370      2.59336e+8 
           5390      2.55911e+8 
           5410      2.52516e+8 
           5430      2.48884e+8 
           5450      2.45817e+8 
           5470      2.42613e+8 
           5490      2.39661e+8 
           5510       2.3651e+8 
           5530      2.33496e+8 
           5550      2.30569e+8 
           5570      2.27581e+8 
           5590      2.24737e+8 
           5610      2.21761e+8 
           5630      2.19131e+8 
           5650      2.15729e+8 
           5670      2.13085e+8 
           5690      2.10566e+8 
           5710      2.08261e+8 
           5730      2.05708e+8 
           5750      2.03118e+8 
           5770      2.00705e+8 
           5790      1.98219e+8 
           5810      1.95763e+8 
           5830      1.93347e+8 
           5850      1.91015e+8 
           5870      1.81078e+8 
           5890      1.85172e+8 
           5910      1.84104e+8 
           5930      1.81911e+8 
           5950      1.79551e+8 
           5970      1.77621e+8 
           5990      1.75376e+8 
           6010      1.73429e+8 
           6030      1.71358e+8 
           6050      1.69342e+8 
           6070      1.67348e+8 
           6090      1.65357e+8 
           6110      1.63449e+8 
           6130      1.61552e+8 
           6150      1.59447e+8 
           6170      1.57782e+8 
           6190      1.55997e+8 
           6210      1.54183e+8 
           6230      1.52399e+8 
           6250      1.50547e+8 
           6270      1.48917e+8 
           6290       1.4722e+8 
           6310      1.45503e+8 
           6330      1.43908e+8 
           6350      1.41844e+8 
           6370      1.40435e+8 
           6390      1.39068e+8 
           6410      1.37496e+8 
           6430      1.36022e+8 
           6450      1.34455e+8 
           6470      1.32869e+8 
           6490      1.31157e+8 
           6510      1.29348e+8 
           6530      1.26666e+8 
           6550      1.17095e+8 
           6570      1.02533e+8 
           6590      1.20371e+8 
           6610      1.22101e+8 
           6630      1.21357e+8 
           6650      1.20288e+8 
           6670      1.17425e+8 
           6690      1.16295e+8 
           6710      1.16673e+8 
           6730      1.15415e+8 
           6750      1.14212e+8 
           6770      1.12995e+8 
           6790      1.11611e+8 
           6810      1.10575e+8 
           6830      1.09412e+8 
           6850      1.08276e+8 
           6870      1.07143e+8 
           6890      1.06022e+8 
           6910      1.04912e+8 
           6930      1.03782e+8 
           6950      1.02741e+8 
           6970      1.01679e+8 
           6990       1.0062e+8 
           7010      9.95793e+7 
           7030      9.85562e+7 
           7050      9.75203e+7 
           7070      9.48514e+7 
           7090      9.55761e+7 
           7110       9.4592e+7 
           7130      9.36323e+7 
           7150      9.26744e+7 
           7170      9.17478e+7 
           7190        9.083e+7 
           7210      8.99209e+7 
           7230      8.84296e+7 
           7250      8.81144e+7 
           7270      8.72524e+7 
           7290      8.56472e+7 
           7310      8.55176e+7 
           7330        8.468e+7 
           7350      8.38432e+7 
           7370      8.30211e+7 
           7390      8.22068e+7 
           7410         8.14e+7 
           7430      8.05802e+7 
           7450      7.98223e+7 
           7470      7.90241e+7 
           7490      7.82736e+7 
           7510      7.75033e+7 
           7530      7.67732e+7 
           7550      7.60431e+7 
           7570      7.53131e+7 
           7590      7.45898e+7 
           7610      7.38795e+7 
           7630      7.31756e+7 
           7650       7.2478e+7 
           7670      7.17932e+7 
           7690      7.11144e+7 
           7710      7.04418e+7 
           7730      6.97751e+7 
           7750      6.91206e+7 
           7770      6.82411e+7 
           7790      6.78353e+7 
           7810      6.71733e+7 
           7830      6.65786e+7 
           7850      6.59586e+7 
           7870      6.53501e+7 
           7890      6.46742e+7 
           7910      6.42031e+7 
           7930      6.36161e+7 
           7950      6.29745e+7 
           7970      6.24098e+7 
           7990      6.17967e+7 
           8010      6.13124e+7 
           8030      6.07152e+7 
           8050      6.01349e+7 
           8070      5.96173e+7 
           8090      5.89833e+7 
           8110      5.85152e+7 
           8130      5.80111e+7 
           8150      5.74545e+7 
           8170      5.69873e+7 
           8190      5.64004e+7 
           8210      5.58068e+7 
           8230      5.53957e+7 
           8250      5.49719e+7 
           8270       5.4291e+7 
           8290      5.39976e+7 
           8310       5.3553e+7 
           8330      5.30622e+7 
           8350      5.23998e+7 
           8370      5.20819e+7 
           8390      5.17119e+7 
           8410      5.12607e+7 
           8430      5.07839e+7 
           8450      4.99835e+7 
           8470      4.99042e+7 
           8490      4.93641e+7 
           8510        4.898e+7 
           8530      4.84943e+7 
           8550      4.78822e+7 
           8570      4.79108e+7 
           8590      4.65035e+7 
