# Kurucz ODFNEW /NOVER (2003)
# teff = 7500 K (value for the effective temperature for the model. Temperatures are given in K)
# logg = 1 log(cm/s2) (value for Log(G) for the model.)
# meta = 0.5  (value for the Metallicity for the model.)
# lh = 1.25  (l/Hp where l is the  mixing length of the convective element and Hp is the pressure scale height)
# vtur = 2 km/s (Microturbulence velocity)
# alpha = 0  (Alpha)
#
# column 1: WAVELENGTH (ANGSTROM), Wavelength in Angstrom
# column 2: FLUX (ERG/CM2/S/A), Flux in erg/cm2/s/A
            395     1.95332e-23 
            405     1.13383e-23 
            414      5.7801e-23 
            422     2.31093e-22 
            430      8.7477e-22 
            441     5.02077e-21 
            451     2.27185e-20 
            460     8.32953e-20 
            470     3.31655e-19 
            480     1.24205e-18 
            490     4.39319e-18 
            500     1.47099e-17 
            506     3.92803e-17 
            512     8.77369e-17 
            520     2.11882e-16 
            530     6.16635e-16 
            540     1.68831e-15 
            550     4.52063e-15 
            560     1.15837e-14 
            570     2.85997e-14 
            580     6.74294e-14 
            590     1.57607e-13 
            600     3.53058e-13 
            610     7.70842e-13 
            620     1.63305e-12 
            630     3.37177e-12 
            640     6.78573e-12 
            650     1.33697e-11 
            658     2.26083e-11 
            665     3.52702e-11 
            675     6.58215e-11 
            685     1.20327e-10 
            695      2.1591e-10 
            705     3.76635e-10 
            716     6.92868e-10 
            726      1.17627e-9 
            735      1.86745e-9 
            745      3.07221e-9 
            755      4.98616e-9 
            765      7.98617e-9 
            775      1.26148e-8 
            785      1.97105e-8 
            795      2.99262e-8 
            805      4.57203e-8 
            815      6.92686e-8 
            825      1.03046e-7 
            835      1.51589e-7 
            845       2.2088e-7 
            855      3.18534e-7 
            865       4.5492e-7 
            875      6.38884e-7 
            885      9.01871e-7 
            895      1.25408e-6 
            905       1.7105e-6 
            915     0.000785924 
            925       0.0023681 
            935      0.00322223 
            945      0.00441179 
            955      0.00640588 
            965      0.00875816 
            975       0.0115687 
            985       0.0151375 
            995       0.0193862 
           1005       0.0271768 
           1015       0.0356758 
           1025       0.0448723 
           1035       0.0590121 
           1045       0.0767034 
           1055       0.0983232 
           1065        0.122423 
           1075        0.157039 
           1085        0.198662 
           1095        0.243961 
           1105         0.84261 
           1115         3.05965 
           1125         4.64086 
           1135         6.56734 
           1145         8.43731 
           1155         9.54401 
           1165          13.404 
           1175         16.1173 
           1185         17.0993 
           1195         7.93914 
           1205         9.67285 
           1215         2.28073 
           1225         11.9778 
           1235         28.6322 
           1245         72.9604 
           1255         204.182 
           1265           169.3 
           1275           391.3 
           1285         668.073 
           1295          863.05 
           1305         458.993 
           1315         1184.03 
           1325         1572.67 
           1335         1562.62 
           1345         2447.56 
           1355         2502.06 
           1365          2702.1 
           1375         2992.12 
           1385         3422.97 
           1395         4129.06 
           1405         4787.49 
           1415         4678.86 
           1425         5758.48 
           1435         5752.59 
           1442         6919.27 
           1447         7926.79 
           1455         9746.27 
           1465          9873.8 
           1475           11196 
           1485           13021 
           1495         15854.3 
           1505         17881.6 
           1512         17658.7 
           1517         15463.6 
           1525         15763.1 
           1535         29196.9 
           1545          106618 
           1555           76995 
           1565         50225.5 
           1575          117928 
           1585          162945 
           1595          276058 
           1605          189284 
           1615          140668 
           1625          104255 
           1635          110846 
           1645          163735 
           1655         74980.7 
           1665          111261 
           1672         34875.6 
           1677          306050 
           1685          619743 
           1695          848624 
           1705          668673 
           1715       1.1741e+6 
           1725      1.65865e+6 
           1735      2.43066e+6 
           1745      1.65178e+6 
           1755      2.75426e+6 
           1765       1.9672e+6 
           1775        3.046e+6 
           1785      2.06335e+6 
           1795      4.10494e+6 
           1805      3.02341e+6 
           1815      3.82422e+6 
           1825      2.97334e+6 
           1835      2.45881e+6 
           1845      2.48868e+6 
           1855       3.1996e+6 
           1865      3.74961e+6 
           1875      3.36199e+6 
           1885      3.59572e+6 
           1895      4.28604e+6 
           1905      3.65017e+6 
           1915      3.69392e+6 
           1925      3.47651e+6 
           1935       1.9104e+6 
           1945      4.54731e+6 
           1955      4.74901e+6 
           1967       5.6401e+6 
           1976      5.30923e+6 
           1984      5.40049e+6 
           1995      5.25724e+6 
           2005      4.63965e+6 
           2015       3.7823e+6 
           2025       3.6991e+6 
           2035      4.78005e+6 
           2045      5.64217e+6 
           2055       4.2696e+6 
           2065      3.93619e+6 
           2074      5.97857e+6 
           2078      6.84189e+6 
           2085      6.45728e+6 
           2095      5.84069e+6 
           2105      5.50816e+6 
           2115      5.49982e+6 
           2125       5.6711e+6 
           2135       3.8905e+6 
           2145      5.29965e+6 
           2155       5.7502e+6 
           2165      4.31824e+6 
           2175      4.71152e+6 
           2185      5.00772e+6 
           2195      6.09911e+6 
           2205      5.31556e+6 
           2215      3.67252e+6 
           2225      3.47803e+6 
           2235      5.56049e+6 
           2245      4.82129e+6 
           2255      3.30031e+6 
           2265      3.15389e+6 
           2275      4.41357e+6 
           2285      4.78428e+6 
           2295      4.41344e+6 
           2305      4.58788e+6 
           2315      3.96755e+6 
           2325      3.60733e+6 
           2335      1.69556e+6 
           2345      1.13306e+6 
           2355      2.45566e+6 
           2365      1.09775e+6 
           2375      1.68501e+6 
           2385          820520 
           2395      1.16401e+6 
           2405      1.09286e+6 
           2415      1.91484e+6 
           2425      4.21751e+6 
           2435      3.94461e+6 
           2445      4.54468e+6 
           2455      4.58249e+6 
           2465      4.03184e+6 
           2475        3.838e+6 
           2485      3.95487e+6 
           2495      3.82096e+6 
           2505      5.54874e+6 
           2513      3.72782e+6 
           2518      4.40513e+6 
           2525       3.1261e+6 
           2535      3.14053e+6 
           2545      3.19117e+6 
           2555      4.34455e+6 
           2565      3.05702e+6 
           2575      3.75427e+6 
           2585      3.00646e+6 
           2595      2.40392e+6 
           2605      1.90712e+6 
           2615      1.79814e+6 
           2625      2.52112e+6 
           2635      4.14866e+6 
           2645       7.4134e+6 
           2655      7.87179e+6 
           2665       5.5712e+6 
           2675      6.41621e+6 
           2685      6.24414e+6 
           2695      5.96447e+6 
           2705      6.56661e+6 
           2715      4.99582e+6 
           2725      5.04897e+6 
           2735      5.22016e+6 
           2745      2.28982e+6 
           2755      2.97288e+6 
           2765      3.88702e+6 
           2775      4.87253e+6 
           2785      3.21075e+6 
           2795      1.08828e+6 
           2805      1.40871e+6 
           2815        4.235e+6 
           2825      6.60641e+6 
           2835      6.56176e+6 
           2845      6.56133e+6 
           2855      5.55225e+6 
           2865      7.22366e+6 
           2875      7.06958e+6 
           2885      7.50451e+6 
           2895      7.01269e+6 
           2910      9.04176e+6 
           2930      8.21793e+6 
           2950      8.03459e+6 
           2970      9.23534e+6 
           2990      9.32458e+6 
           3010      1.01608e+7 
           3030      1.00238e+7 
           3050      9.97457e+6 
           3070      9.94696e+6 
           3090      1.07541e+7 
           3110      1.02096e+7 
           3130       1.0023e+7 
           3150       1.0821e+7 
           3170      1.05691e+7 
           3190      9.55216e+6 
           3210      1.04916e+7 
           3230      9.56222e+6 
           3250      1.06412e+7 
           3270      1.11456e+7 
           3290      1.11612e+7 
           3310      1.16745e+7 
           3330       1.1266e+7 
           3350      1.10822e+7 
           3370      1.07148e+7 
           3390      1.12474e+7 
           3410      1.17411e+7 
           3430      1.19571e+7 
           3450      1.19382e+7 
           3470      1.16621e+7 
           3490      1.14574e+7 
           3510      1.21216e+7 
           3530      1.22628e+7 
           3550      1.29668e+7 
           3570      1.19901e+7 
           3590      1.21618e+7 
           3610      1.22575e+7 
           3630      1.25591e+7 
           3640      1.22235e+7 
           3650      1.30069e+7 
           3670      1.28538e+7 
           3690      1.40763e+7 
           3710      1.85689e+7 
           3730      2.69699e+7 
           3750       4.0305e+7 
           3770      4.16279e+7 
           3790      4.98263e+7 
           3810      5.49674e+7 
           3830      4.44148e+7 
           3850      5.50588e+7 
           3870      5.87674e+7 
           3890       4.3593e+7 
           3910      5.28891e+7 
           3930      2.79872e+7 
           3950      4.70595e+7 
           3970      2.81933e+7 
           3990       5.4287e+7 
           4010      5.62115e+7 
           4030      5.49428e+7 
           4050      5.41879e+7 
           4070      5.32951e+7 
           4090      5.38989e+7 
           4110      4.41649e+7 
           4130      5.29748e+7 
           4150      5.45807e+7 
           4170      5.23035e+7 
           4190      5.22753e+7 
           4210      5.15588e+7 
           4230      5.02575e+7 
           4250      5.08097e+7 
           4270      4.88162e+7 
           4290      5.01205e+7 
           4310      4.68131e+7 
           4330      4.52705e+7 
           4350      3.93005e+7 
           4370      4.90064e+7 
           4390      4.75327e+7 
           4410      4.60875e+7 
           4430      4.60812e+7 
           4450       4.6524e+7 
           4470      4.64687e+7 
           4490      4.62893e+7 
           4510      4.74058e+7 
           4530      4.49081e+7 
           4550      4.40484e+7 
           4570      4.61223e+7 
           4590      4.34235e+7 
           4610      4.55611e+7 
           4630      4.36992e+7 
           4650      4.46099e+7 
           4670      4.41975e+7 
           4690      4.27355e+7 
           4710      4.12407e+7 
           4730      4.27584e+7 
           4750       4.3107e+7 
           4770      4.19615e+7 
           4790      4.18417e+7 
           4810      4.12111e+7 
           4830       4.0793e+7 
           4850      3.63669e+7 
           4870      2.95212e+7 
           4890      3.90293e+7 
           4910      3.89589e+7 
           4930      3.75785e+7 
           4950      3.85516e+7 
           4970      3.88734e+7 
           4990       3.6585e+7 
           5010      3.45269e+7 
           5030      3.57165e+7 
           5050      3.54874e+7 
           5070      3.60595e+7 
           5090      3.54727e+7 
           5110      3.53081e+7 
           5130      3.40685e+7 
           5150      3.32377e+7 
           5170      3.26653e+7 
           5190      3.24057e+7 
           5210      3.22934e+7 
           5230       3.2022e+7 
           5250       3.2466e+7 
           5270      3.02274e+7 
           5290      3.19419e+7 
           5310      3.07852e+7 
           5330      3.01806e+7 
           5350       3.1219e+7 
           5370      3.10313e+7 
           5390       3.0306e+7 
           5410      2.96589e+7 
           5430      2.96299e+7 
           5450      3.01295e+7 
           5470      2.95822e+7 
           5490      2.94133e+7 
           5510      2.89569e+7 
           5530      2.88785e+7 
           5550      2.88431e+7 
           5570      2.84178e+7 
           5590      2.82401e+7 
           5610       2.8257e+7 
           5630      2.80435e+7 
           5650      2.74854e+7 
           5670      2.69883e+7 
           5690      2.72388e+7 
           5710      2.70229e+7 
           5730      2.71662e+7 
           5750      2.66619e+7 
           5770       2.6534e+7 
           5790        2.607e+7 
           5810      2.59333e+7 
           5830      2.57124e+7 
           5850      2.55666e+7 
           5870      2.53916e+7 
           5890      2.45962e+7 
           5910      2.48312e+7 
           5930      2.45911e+7 
           5950      2.42952e+7 
           5970      2.42278e+7 
           5990      2.37776e+7 
           6010      2.34193e+7 
           6030      2.34756e+7 
           6050      2.31796e+7 
           6070      2.31693e+7 
           6090       2.2801e+7 
           6110      2.24441e+7 
           6130      2.20482e+7 
           6150      2.14498e+7 
           6170      2.16732e+7 
           6190      2.18716e+7 
           6210      2.17417e+7 
           6230      2.12442e+7 
           6250      2.03687e+7 
           6270       2.1227e+7 
           6290      2.10312e+7 
           6310      2.04014e+7 
           6330      2.04833e+7 
           6350       2.0147e+7 
           6370      2.00291e+7 
           6390      1.99879e+7 
           6410      1.96149e+7 
           6430      1.96087e+7 
           6450      1.90518e+7 
           6470      1.94003e+7 
           6490      1.87237e+7 
           6510      1.88382e+7 
           6530      1.87937e+7 
           6550      1.72987e+7 
           6570      1.36126e+7 
           6590       1.8034e+7 
           6610      1.81061e+7 
           6630      1.81633e+7 
           6650       1.8021e+7 
           6670      1.77852e+7 
           6690      1.77161e+7 
           6710      1.75847e+7 
           6730      1.74096e+7 
           6750      1.71958e+7 
           6770      1.72366e+7 
           6790      1.70061e+7 
           6810      1.69421e+7 
           6830      1.66766e+7 
           6850      1.65714e+7 
           6870      1.65253e+7 
           6890      1.64065e+7 
           6910      1.62477e+7 
           6930       1.6089e+7 
           6950      1.59872e+7 
           6970      1.58196e+7 
           6990      1.57446e+7 
           7010      1.53666e+7 
           7030      1.54394e+7 
           7050       1.5336e+7 
           7070      1.52478e+7 
           7090      1.51402e+7 
           7110      1.45886e+7 
           7130      1.47196e+7 
           7150      1.46712e+7 
           7170      1.45661e+7 
           7190      1.43744e+7 
           7210      1.43157e+7 
           7230      1.41639e+7 
           7250      1.40414e+7 
           7270      1.40384e+7 
           7290      1.38204e+7 
           7310      1.36828e+7 
           7330      1.36482e+7 
           7350      1.35671e+7 
           7370       1.3565e+7 
           7390      1.33495e+7 
           7410      1.31589e+7 
           7430      1.29544e+7 
           7450      1.29616e+7 
           7470      1.27681e+7 
           7490      1.27671e+7 
           7510      1.26872e+7 
           7530      1.26651e+7 
           7550      1.26794e+7 
           7570      1.24928e+7 
           7590      1.24637e+7 
           7610      1.23852e+7 
           7630      1.22926e+7 
           7650      1.21048e+7 
           7670       1.1961e+7 
           7690       1.1948e+7 
           7710      1.18119e+7 
           7730      1.18164e+7 
           7750      1.17116e+7 
           7770      1.13363e+7 
           7790      1.15979e+7 
           7810      1.14922e+7 
           7830      1.13125e+7 
           7850      1.11461e+7 
           7870      1.11437e+7 
           7890       1.1005e+7 
           7910      1.09229e+7 
           7930      1.08882e+7 
           7950      1.07161e+7 
           7970      1.08528e+7 
           7990      1.05648e+7 
           8010      1.06519e+7 
           8030      1.05305e+7 
           8050      1.05126e+7 
           8070      1.04032e+7 
           8090      1.03329e+7 
           8110      1.03049e+7 
           8130      1.02622e+7 
           8150      1.01847e+7 
           8170      1.01129e+7 
           8190       9.8153e+6 
           8210      9.76642e+6 
           8230      9.70956e+6 
           8250      9.69077e+6 
           8270      9.79543e+6 
           8290      9.68902e+6 
           8310      9.57152e+6 
           8330      9.33613e+6 
           8350       9.4595e+6 
           8370      9.22076e+6 
           8390      9.24429e+6 
           8410      9.21156e+6 
           8430       9.4319e+6 
           8450      9.18787e+6 
           8470      8.97544e+6 
           8490      9.65133e+6 
           8510      8.54064e+6 
           8530      9.80903e+6 
           8550      7.58793e+6 
           8570      1.02373e+7 
           8590      9.59998e+6 
           8610      9.32878e+6 
           8630      1.05168e+7 
           8650      1.02235e+7 
           8670      7.60787e+6 
           8690      1.00288e+7 
           8710      1.04491e+7 
           8730      1.02456e+7 
           8750      8.31819e+6 
           8770      1.00539e+7 
           8790      1.02622e+7 
           8810      1.01395e+7 
           8830      9.78824e+6 
           8850      9.44776e+6 
           8870      8.03814e+6 
           8890      9.77097e+6 
           8910      9.77128e+6 
           8930       9.6619e+6 
           8950      9.71424e+6 
           8970      9.60261e+6 
           8990      9.44852e+6 
           9010       7.9179e+6 
           9030      8.74452e+6 
           9050      9.33883e+6 
           9070      8.98354e+6 
           9090      8.84284e+6 
           9110      9.02557e+6 
           9130      9.06607e+6 
           9150      9.10342e+6 
           9170      8.97191e+6 
           9190      8.79953e+6 
           9210       8.5615e+6 
           9230      6.93956e+6 
           9250      8.25337e+6 
           9270      8.34713e+6 
           9290      8.62552e+6 
           9310      8.59415e+6 
           9330      8.48939e+6 
           9350      8.48414e+6 
           9370      8.45526e+6 
           9390      8.27529e+6 
           9410      7.92276e+6 
           9430      8.13575e+6 
           9450      8.11949e+6 
           9470      8.11212e+6 
           9490      8.10348e+6 
           9510      7.99404e+6 
