# Kurucz ODFNEW /NOVER (2003)
# teff = 22000 K (value for the effective temperature for the model. Temperatures are given in K)
# logg = 4.5 log(cm/s2) (value for Log(G) for the model.)
# meta = 0  (value for the Metallicity for the model.)
# lh = 1.25  (l/Hp where l is the  mixing length of the convective element and Hp is the pressure scale height)
# vtur = 2 km/s (Microturbulence velocity)
# alpha = 0  (Alpha)
#
# column 1: WAVELENGTH (ANGSTROM), Wavelength in Angstrom
# column 2: FLUX (ERG/CM2/S/A), Flux in erg/cm2/s/A
          147.2     5.61256e-17 
            151     2.78173e-16 
          155.2     1.49336e-15 
          158.8     5.88935e-15 
            162     1.90001e-14 
            166     7.73159e-14 
          170.3      3.2538e-13 
          173.4     8.81395e-13 
          176.8     2.52878e-12 
          180.2     6.98466e-12 
          181.7     1.08049e-11 
          186.1     3.74628e-11 
            191     1.40433e-10 
          193.9     2.97829e-10 
          198.4     9.18084e-10 
          201.8      2.08378e-9 
            205      4.40386e-9 
          210.5      1.51541e-8 
          216.2      5.12298e-8 
          219.8      1.07205e-7 
            223      2.02709e-7 
          226.8      4.22458e-7 
            230      6.53423e-6 
            234       1.5761e-5 
            240      4.24919e-5 
          246.5     0.000117274 
          252.4     0.000284349 
          256.8     0.000520168 
            260     0.000834823 
            264      0.00142819 
          268.5      0.00255932 
          273.5      0.00477238 
          278.5      0.00875448 
            284       0.0167659 
            290       0.0326711 
            296       0.0618738 
            301        0.103292 
            308         0.20392 
            318        0.530388 
            328         1.25218 
            338         2.88582 
            348         6.23807 
            357         12.7776 
            366          24.131 
            375         42.8152 
            385         79.5929 
            395         143.093 
            405         248.558 
            414         401.466 
            422         596.179 
            430         880.088 
            441         1466.48 
            451         2278.15 
            460            3306 
            470         4957.17 
            480         7256.62 
            490         10501.7 
            500         14929.5 
            506          101108 
            512          618316 
            520          766207 
            530      1.02823e+6 
            540      1.17228e+6 
            550      1.68825e+6 
            560       2.0099e+6 
            570        2.552e+6 
            580       2.5875e+6 
            590      3.47282e+6 
            600      4.18672e+6 
            610      5.11708e+6 
            620      5.81853e+6 
            630       6.6845e+6 
            640      6.96775e+6 
            650      6.28581e+6 
            658      8.94742e+6 
            665      1.03335e+7 
            675      1.14848e+7 
            685      1.26397e+7 
            695      1.54046e+7 
            705      1.67655e+7 
            716      1.91151e+7 
            726      2.08243e+7 
            735      2.24988e+7 
            745      2.56456e+7 
            755      2.82938e+7 
            765      3.11529e+7 
            775      3.43188e+7 
            785       3.7554e+7 
            795      4.00831e+7 
            805      4.31065e+7 
            815      4.60407e+7 
            825      5.05859e+7 
            835      5.12035e+7 
            845      5.63122e+7 
            855      5.99706e+7 
            865      6.48404e+7 
            875      7.01867e+7 
            885      7.62766e+7 
            895      8.11236e+7 
            905       8.2556e+7 
            915      1.18856e+8 
            925      5.36326e+8 
            935      1.51179e+9 
            945       4.7826e+9 
            955      8.75046e+9 
            965     1.16984e+10 
            975      1.84963e+9 
            985     1.33118e+10 
            995     1.30547e+10 
           1005     1.56704e+10 
           1015     1.38778e+10 
           1025      3.31357e+9 
           1035       9.4254e+9 
           1045     1.86249e+10 
           1055     1.76324e+10 
           1065     1.38917e+10 
           1075     1.66838e+10 
           1085     1.46676e+10 
           1095     1.67495e+10 
           1105     1.47427e+10 
           1115      1.3945e+10 
           1125     1.21351e+10 
           1135     1.54365e+10 
           1145     1.33338e+10 
           1155     1.42155e+10 
           1165     1.43816e+10 
           1175      9.54959e+9 
           1185     1.41125e+10 
           1195     1.13096e+10 
           1205      6.59966e+9 
           1215      2.95366e+9 
           1225      8.69556e+9 
           1235     1.28067e+10 
           1245      1.3075e+10 
           1255       1.275e+10 
           1265     1.23458e+10 
           1275     1.29232e+10 
           1285     1.29638e+10 
           1295      8.70441e+9 
           1305      8.67991e+9 
           1315     1.22512e+10 
           1325     1.13434e+10 
           1335     1.04008e+10 
           1345     1.12849e+10 
           1355     1.10272e+10 
           1365       9.8973e+9 
           1375      9.80388e+9 
           1385      9.81562e+9 
           1395      8.03802e+9 
           1405      8.51237e+9 
           1415      8.68601e+9 
           1425      8.76007e+9 
           1435      8.84916e+9 
           1442      9.13631e+9 
           1447      8.95363e+9 
           1455      8.72286e+9 
           1465      8.05671e+9 
           1475      8.09813e+9 
           1485      7.89274e+9 
           1495      7.82628e+9 
           1505       7.1172e+9 
           1512      6.37615e+9 
           1517       6.6318e+9 
           1525      6.85544e+9 
           1535      5.99656e+9 
           1545      6.04023e+9 
           1555      5.77724e+9 
           1565      6.03988e+9 
           1575      6.37378e+9 
           1585      6.35629e+9 
           1595      6.35636e+9 
           1605      6.35944e+9 
           1615      6.28367e+9 
           1625      6.08902e+9 
           1635      6.38484e+9 
           1645      6.32513e+9 
           1655      6.06984e+9 
           1665      6.38105e+9 
           1672       6.1132e+9 
           1677       6.3561e+9 
           1685       6.3199e+9 
           1695      5.97805e+9 
           1705      5.70701e+9 
           1715      5.40241e+9 
           1725      5.31488e+9 
           1735      5.55265e+9 
           1745      5.35731e+9 
           1755      5.46901e+9 
           1765      5.17563e+9 
           1775      5.05937e+9 
           1785      5.10535e+9 
           1795      5.29323e+9 
           1805      5.30227e+9 
           1815      4.75923e+9 
           1825      4.95934e+9 
           1835      4.73828e+9 
           1845      4.34365e+9 
           1855      4.26442e+9 
           1865      4.33449e+9 
           1875      4.63343e+9 
           1885      4.13549e+9 
           1895      3.85707e+9 
           1905      4.17763e+9 
           1915      3.91058e+9 
           1925      3.76564e+9 
           1935      3.94486e+9 
           1945      4.01105e+9 
           1955      3.66387e+9 
           1967      3.96565e+9 
           1976      4.12045e+9 
           1984      3.80294e+9 
           1995      3.72203e+9 
           2005      3.84252e+9 
           2015      3.74194e+9 
           2025      3.91353e+9 
           2035      3.57742e+9 
           2045       3.6335e+9 
           2055      3.51945e+9 
           2065      3.55268e+9 
           2074      3.70049e+9 
           2078      3.38256e+9 
           2085      3.53286e+9 
           2095      3.32969e+9 
           2105      3.42073e+9 
           2115      3.41339e+9 
           2125      3.45976e+9 
           2135      3.36602e+9 
           2145      3.21745e+9 
           2155      3.33879e+9 
           2165      3.29966e+9 
           2175      3.25434e+9 
           2185      3.15707e+9 
           2195      3.19984e+9 
           2205      3.14585e+9 
           2215      3.08419e+9 
           2225      2.99085e+9 
           2235      3.00344e+9 
           2245      2.99835e+9 
           2255      2.88958e+9 
           2265       2.9388e+9 
           2275      2.90283e+9 
           2285      2.90713e+9 
           2295      2.75668e+9 
           2305       2.7921e+9 
           2315      2.70624e+9 
           2325        2.672e+9 
           2335      2.57032e+9 
           2345      2.55214e+9 
           2355       2.5674e+9 
           2365      2.50829e+9 
           2375      2.48995e+9 
           2385      2.44507e+9 
           2395      2.46587e+9 
           2405      2.38803e+9 
           2415       2.3845e+9 
           2425      2.39319e+9 
           2435      2.30998e+9 
           2445      2.32616e+9 
           2455      2.32369e+9 
           2465      2.27015e+9 
           2475      2.23764e+9 
           2485      2.23809e+9 
           2495      2.13231e+9 
           2505      2.19097e+9 
           2513      2.08308e+9 
           2518      2.15717e+9 
           2525      2.10002e+9 
           2535      2.06895e+9 
           2545      2.01771e+9 
           2555      2.05717e+9 
           2565      2.02547e+9 
           2575      2.03767e+9 
           2585      2.02425e+9 
           2595      2.00437e+9 
           2605       1.9819e+9 
           2615      1.96237e+9 
           2625       1.9428e+9 
           2635      1.92737e+9 
           2645        1.932e+9 
           2655       1.9187e+9 
           2665      1.85648e+9 
           2675      1.86406e+9 
           2685       1.8527e+9 
           2695      1.79946e+9 
           2705      1.79112e+9 
           2715      1.77069e+9 
           2725      1.74422e+9 
           2735      1.75229e+9 
           2745       1.6829e+9 
           2755      1.68103e+9 
           2765      1.67008e+9 
           2775      1.68605e+9 
           2785       1.6605e+9 
           2795      1.59704e+9 
           2805      1.61891e+9 
           2815      1.62031e+9 
           2825      1.58837e+9 
           2835      1.53064e+9 
           2845      1.54745e+9 
           2855      1.53746e+9 
           2865      1.53937e+9 
           2875       1.5177e+9 
           2885      1.50389e+9 
           2895      1.48749e+9 
           2910      1.46508e+9 
           2930      1.43282e+9 
           2950      1.39294e+9 
           2970      1.37949e+9 
           2990      1.34627e+9 
           3010      1.31883e+9 
           3030      1.30509e+9 
           3050      1.27843e+9 
           3070      1.25427e+9 
           3090      1.22175e+9 
           3110      1.20368e+9 
           3130      1.18223e+9 
           3150      1.16005e+9 
           3170      1.13357e+9 
           3190      1.10341e+9 
           3210      1.09395e+9 
           3230      1.07336e+9 
           3250      1.05456e+9 
           3270      1.03546e+9 
           3290      1.01518e+9 
           3310      9.98929e+8 
           3330      9.79831e+8 
           3350      9.60345e+8 
           3370      9.44204e+8 
           3390      9.28244e+8 
           3410       9.1188e+8 
           3430      8.91222e+8 
           3450      8.72309e+8 
           3470      8.59154e+8 
           3490      8.43799e+8 
           3510      8.30755e+8 
           3530      8.18859e+8 
           3550      8.05025e+8 
           3570      7.95912e+8 
           3590      7.74324e+8 
           3610       7.6279e+8 
           3630       7.5032e+8 
           3640      7.50041e+8 
           3650       7.3686e+8 
           3670      7.28459e+8 
           3690      7.15106e+8 
           3710      6.89379e+8 
           3730      6.59775e+8 
           3750      6.82948e+8 
           3770      6.81314e+8 
           3790      7.27725e+8 
           3810      7.64847e+8 
           3830      6.57926e+8 
           3850      7.93362e+8 
           3870      8.08249e+8 
           3890      6.18642e+8 
           3910      8.04906e+8 
           3930      7.88246e+8 
           3950      7.78305e+8 
           3970      5.76583e+8 
           3990      7.43397e+8 
           4010      7.50596e+8 
           4030      6.96934e+8 
           4050      7.34189e+8 
           4070      7.07205e+8 
           4090       6.3799e+8 
           4110      5.50706e+8 
           4130      6.64079e+8 
           4150      6.64146e+8 
           4170      6.61539e+8 
           4190      6.55646e+8 
           4210      6.47837e+8 
           4230       6.3503e+8 
           4250      6.21914e+8 
           4270      6.02589e+8 
           4290      5.99665e+8 
           4310      5.82654e+8 
           4330      5.12583e+8 
           4350      4.64518e+8 
           4370       5.5118e+8 
           4390      5.35417e+8 
           4410      5.44248e+8 
           4430      5.35659e+8 
           4450      5.30817e+8 
           4470       4.9378e+8 
           4490      5.10582e+8 
           4510      5.08545e+8 
           4530      4.98906e+8 
           4550      4.91964e+8 
           4570       4.8442e+8 
           4590      4.77186e+8 
           4610       4.6802e+8 
           4630      4.60066e+8 
           4650      4.51518e+8 
           4670      4.48056e+8 
           4690      4.43198e+8 
           4710      4.26179e+8 
           4730      4.25681e+8 
           4750      4.19449e+8 
           4770      4.18191e+8 
           4790        4.107e+8 
           4810      4.01543e+8 
           4830      3.92799e+8 
           4850      3.53595e+8 
           4870      3.12526e+8 
           4890      3.74853e+8 
           4910      3.73899e+8 
           4930      3.58301e+8 
           4950      3.65267e+8 
           4970      3.61281e+8 
           4990      3.55546e+8 
           5010      3.41096e+8 
           5030      3.44673e+8 
           5050      3.35064e+8 
           5070      3.36046e+8 
           5090      3.31157e+8 
           5110      3.25814e+8 
           5130      3.19342e+8 
           5150      3.15147e+8 
           5170      3.13221e+8 
           5190      3.09008e+8 
           5210      3.02573e+8 
           5230      3.00567e+8 
           5250      2.96627e+8 
           5270      2.92291e+8 
           5290      2.88941e+8 
           5310      2.84858e+8 
           5330      2.80748e+8 
           5350      2.76297e+8 
           5370      2.73877e+8 
           5390      2.70175e+8 
           5410      2.66559e+8 
           5430      2.62364e+8 
           5450      2.59186e+8 
           5470      2.55733e+8 
           5490      2.52848e+8 
           5510      2.49613e+8 
           5530      2.46271e+8 
           5550      2.43387e+8 
           5570      2.40112e+8 
           5590      2.37227e+8 
           5610      2.33911e+8 
           5630      2.31384e+8 
           5650      2.26763e+8 
           5670       2.2376e+8 
           5690      2.21306e+8 
           5710      2.19516e+8 
           5730      2.16896e+8 
           5750      2.14022e+8 
           5770      2.11772e+8 
           5790      2.09086e+8 
           5810      2.06466e+8 
           5830      2.03766e+8 
           5850      2.01407e+8 
           5870      1.91771e+8 
           5890      1.94684e+8 
           5910      1.93887e+8 
           5930       1.9151e+8 
           5950      1.88766e+8 
           5970      1.87261e+8 
           5990      1.84595e+8 
           6010      1.82826e+8 
           6030      1.80517e+8 
           6050      1.78451e+8 
           6070      1.76397e+8 
           6090      1.74215e+8 
           6110      1.72248e+8 
           6130      1.70284e+8 
           6150      1.67515e+8 
           6170      1.66134e+8 
           6190      1.64364e+8 
           6210      1.62467e+8 
           6230      1.60562e+8 
           6250      1.58369e+8 
           6270      1.56795e+8 
           6290      1.55028e+8 
           6310      1.53129e+8 
           6330       1.5157e+8 
           6350      1.49113e+8 
           6370      1.47751e+8 
           6390      1.46357e+8 
           6410      1.44702e+8 
           6430      1.43248e+8 
           6450      1.41546e+8 
           6470      1.39682e+8 
           6490      1.38223e+8 
           6510      1.36415e+8 
           6530      1.34132e+8 
           6550      1.26096e+8 
           6570      1.10431e+8 
           6590      1.27719e+8 
           6610       1.2887e+8 
           6630      1.27965e+8 
           6650      1.26754e+8 
           6670      1.23861e+8 
           6690      1.22599e+8 
           6710       1.2274e+8 
           6730      1.21338e+8 
           6750      1.20148e+8 
           6770       1.1888e+8 
           6790      1.16906e+8 
           6810      1.16213e+8 
           6830      1.15016e+8 
           6850      1.13872e+8 
           6870      1.12675e+8 
           6890      1.11466e+8 
           6910      1.10286e+8 
           6930      1.09077e+8 
           6950      1.08021e+8 
           6970      1.06906e+8 
           6990      1.05779e+8 
           7010       1.0467e+8 
           7030      1.03587e+8 
           7050      1.02455e+8 
           7070      9.96524e+7 
           7090      1.00447e+8 
           7110      9.91901e+7 
           7130      9.82046e+7 
           7150      9.73539e+7 
           7170      9.63791e+7 
           7190      9.54429e+7 
           7210      9.44793e+7 
           7230      9.23141e+7 
           7250      9.25151e+7 
           7270      9.16504e+7 
           7290      8.99501e+7 
           7310      8.98182e+7 
           7330       8.8936e+7 
           7350      8.80622e+7 
           7370      8.71965e+7 
           7390      8.63319e+7 
           7410      8.54823e+7 
           7430      8.45792e+7 
           7450      8.37999e+7 
           7470      8.28724e+7 
           7490      8.21551e+7 
           7510      8.13307e+7 
           7530      8.05603e+7 
           7550      7.98169e+7 
           7570      7.90538e+7 
           7590      7.82781e+7 
           7610      7.75289e+7 
           7630       7.6793e+7 
           7650      7.60636e+7 
           7670      7.53345e+7 
           7690      7.46182e+7 
           7710      7.39147e+7 
           7730      7.32049e+7 
           7750      7.25202e+7 
           7770      7.13861e+7 
           7790      7.11628e+7 
           7810      7.04591e+7 
           7830      6.98415e+7 
           7850      6.91132e+7 
           7870      6.84886e+7 
           7890      6.77001e+7 
           7910       6.7304e+7 
           7930      6.67013e+7 
           7950       6.5937e+7 
           7970      6.53396e+7 
           7990      6.45762e+7 
           8010      6.41367e+7 
           8030       6.3543e+7 
           8050      6.29544e+7 
           8070      6.23998e+7 
           8090      6.17693e+7 
           8110      6.12474e+7 
           8130      6.07583e+7 
           8150      6.01712e+7 
           8170      5.97133e+7 
           8190      5.90682e+7 
           8210      5.83783e+7 
           8230      5.79225e+7 
           8250      5.75645e+7 
           8270      5.67411e+7 
           8290      5.65115e+7 
           8310       5.6038e+7 
           8330      5.55358e+7 
           8350      5.47675e+7 
           8370      5.44523e+7 
           8390      5.40967e+7 
           8410       5.3616e+7 
           8430      5.30968e+7 
           8450      5.20992e+7 
           8470      5.21439e+7 
           8490      5.15483e+7 
           8510      5.10967e+7 
           8530      5.06839e+7 
           8550      4.97518e+7 
           8570      5.02975e+7 
           8590       4.8365e+7 
