# Kurucz ODFNEW /NOVER (2003)
# teff = 7000 K (value for the effective temperature for the model. Temperatures are given in K)
# logg = 4 log(cm/s2) (value for Log(G) for the model.)
# meta = -4  (value for the Metallicity for the model.)
# lh = 1.25  (l/Hp where l is the  mixing length of the convective element and Hp is the pressure scale height)
# vtur = 2 km/s (Microturbulence velocity)
# alpha = 0.4  (Alpha)
#
# column 1: WAVELENGTH (ANGSTROM), Wavelength in Angstrom
# column 2: FLUX (ERG/CM2/S/A), Flux in erg/cm2/s/A
          147.2     1.73866e-35 
            151     1.65225e-35 
          155.2     1.56403e-35 
          158.8     1.49392e-35 
            162     1.43549e-35 
            166     1.36714e-35 
          170.3     1.29897e-35 
          173.4     1.25294e-35 
          176.8     1.20522e-35 
          180.2     1.16017e-35 
          181.7     1.14109e-35 
          186.1     1.08777e-35 
            191     1.03267e-35 
          193.9     1.00201e-35 
          198.4     9.57076e-36 
          201.8     9.25097e-36 
            205     8.96441e-36 
          210.5     8.50208e-36 
          216.2     8.05969e-36 
          219.8     7.79784e-36 
            223     7.57565e-36 
          226.8     7.32392e-36 
            230     7.12154e-36 
            234     6.88015e-36 
            240     6.54044e-36 
          246.5     6.20006e-36 
          252.4     5.91358e-36 
          256.8     5.71267e-36 
            260     5.57292e-36 
            264     5.40532e-36 
          268.5     5.22566e-36 
          273.5     5.03634e-36 
          278.5     4.85712e-36 
            284     4.67082e-36 
            290     4.47954e-36 
            296     4.29978e-36 
            301     4.15812e-36 
            308     1.16743e-24 
            318     1.61296e-22 
            328     1.88162e-21 
            338     1.84724e-20 
            348      1.5823e-19 
            357     9.83022e-19 
            366     5.56505e-18 
            375     2.89034e-17 
            385     1.64172e-16 
            395     8.51151e-16 
            405     4.05565e-15 
            414     1.54597e-14 
            422     4.83192e-14 
            430     1.44492e-13 
            441     6.08967e-13 
            451      2.1133e-12 
            460      6.1701e-12 
            470     1.92969e-11 
            480     5.74234e-11 
            490     1.63087e-10 
            500      4.4335e-10 
            506     7.52367e-10 
            512       1.3713e-9 
            520      2.85431e-9 
            530      7.02321e-9 
            540      1.64167e-8 
            550      3.71474e-8 
            560      8.15038e-8 
            570      1.73685e-7 
            580      3.54074e-7 
            590       7.2716e-7 
            600      1.43251e-6 
            610      2.75607e-6 
            620      5.18513e-6 
            630      9.54875e-6 
            640      1.72315e-5 
            650      3.04995e-5 
            658      4.75188e-5 
            665       6.9392e-5 
            675     0.000117461 
            685     0.000195589 
            695     0.000320601 
            705      0.00051767 
            716      7.78362e-7 
            726       1.1584e-6 
            735      1.63969e-6 
            745      2.38557e-6 
            755      3.43093e-6 
            765      4.88047e-6 
            775      6.86941e-6 
            785       9.5713e-6 
            795      1.32071e-5 
            805      1.80538e-5 
            815      2.44581e-5 
            825      3.28527e-5 
            835      4.37713e-5 
            845      5.78528e-5 
            855      7.58741e-5 
            865      9.87711e-5 
            875     0.000127664 
            885     0.000163881 
            895     0.000208982 
            905     0.000264779 
            915        0.760276 
            925         2.33446 
            935         3.45166 
            945         5.18421 
            955          7.1176 
            965         8.81318 
            975          8.2719 
            985         15.3825 
            995         19.0913 
           1005         21.9214 
           1015         21.4385 
           1025         24.7676 
           1035         37.0039 
           1045         51.1781 
           1055         62.2283 
           1065         77.9649 
           1075         92.9513 
           1085         112.344 
           1095         130.517 
           1105         151.599 
           1115         175.616 
           1125         202.845 
           1135         231.806 
           1145         260.025 
           1155           286.1 
           1165          308.55 
           1175         155.876 
           1185         469.897 
           1195         443.256 
           1205         429.288 
           1215          352.53 
           1225         545.779 
           1235         747.296 
           1245         148.519 
           1255         273.776 
           1265          647.13 
           1275         1284.93 
           1285         1494.21 
           1295         1780.85 
           1305         2053.86 
           1315            2425 
           1325         2809.34 
           1335         3238.36 
           1345         3728.51 
           1355         4264.21 
           1365         4865.15 
           1375         5499.43 
           1385         6179.56 
           1395         6953.14 
           1405         7741.94 
           1415         8744.71 
           1425         9611.44 
           1435         10706.8 
           1442         11604.3 
           1447         11949.7 
           1455         13077.2 
           1465         14108.8 
           1475         15590.4 
           1485         17062.1 
           1495         18789.1 
           1505         20567.7 
           1512         21928.4 
           1517         22298.1 
           1525           23973 
           1535         25848.9 
           1545         27442.4 
           1555         29525.7 
           1565         31003.1 
           1575         33400.5 
           1585         35649.6 
           1595         38113.9 
           1605           40792 
           1615         44976.9 
           1625         50639.6 
           1635         58474.8 
           1645         79417.3 
           1655          138614 
           1665          427646 
           1672          770982 
           1677      1.17841e+6 
           1685      1.86293e+6 
           1695      2.92176e+6 
           1705      3.96243e+6 
           1715      4.95961e+6 
           1725      5.68444e+6 
           1735      6.29692e+6 
           1745      6.55244e+6 
           1755       6.9539e+6 
           1765      7.10836e+6 
           1775      7.38303e+6 
           1785      7.60973e+6 
           1795       7.9371e+6 
           1805       7.9582e+6 
           1815      8.14453e+6 
           1825      8.26138e+6 
           1835      8.51472e+6 
           1845      8.37675e+6 
           1855      8.74037e+6 
           1865      9.03724e+6 
           1875      9.16485e+6 
           1885       9.3202e+6 
           1895      9.48091e+6 
           1905      9.49893e+6 
           1915      9.78296e+6 
           1925      9.95455e+6 
           1935      9.90485e+6 
           1945      1.02233e+7 
           1955      1.03516e+7 
           1967      1.05256e+7 
           1976      1.04888e+7 
           1984      1.05336e+7 
           1995      1.08418e+7 
           2005      1.08932e+7 
           2015      1.10173e+7 
           2025      1.09841e+7 
           2035      1.13158e+7 
           2045      1.14324e+7 
           2055      1.13964e+7 
           2065      1.15071e+7 
           2074      1.17876e+7 
           2078      1.18251e+7 
           2085      1.18473e+7 
           2095      1.19602e+7 
           2105      1.20381e+7 
           2115      1.21763e+7 
           2125      1.21204e+7 
           2135      1.23154e+7 
           2145      1.24661e+7 
           2155      1.25381e+7 
           2165      1.24443e+7 
           2175       1.2608e+7 
           2185      1.27912e+7 
           2195      1.29243e+7 
           2205      1.28438e+7 
           2215      1.26106e+7 
           2225      1.30035e+7 
           2235      1.32766e+7 
           2245      1.33021e+7 
           2255       1.3191e+7 
           2265      1.31335e+7 
           2275       1.3375e+7 
           2285      1.35143e+7 
           2295      1.34977e+7 
           2305      1.36758e+7 
           2315      1.36809e+7 
           2325      1.36973e+7 
           2335      1.36998e+7 
           2345       1.3353e+7 
           2355      1.38736e+7 
           2365      1.35019e+7 
           2375      1.38994e+7 
           2385      1.34221e+7 
           2395      1.39257e+7 
           2405      1.40061e+7 
           2415      1.40558e+7 
           2425      1.44577e+7 
           2435      1.43563e+7 
           2445       1.4466e+7 
           2455      1.45691e+7 
           2465      1.45038e+7 
           2475      1.45012e+7 
           2485      1.43805e+7 
           2495      1.43919e+7 
           2505      1.46783e+7 
           2513      1.43756e+7 
           2518      1.43007e+7 
           2525      1.43078e+7 
           2535      1.45147e+7 
           2545      1.47225e+7 
           2555      1.49779e+7 
           2565      1.48476e+7 
           2575      1.49547e+7 
           2585      1.49982e+7 
           2595      1.49958e+7 
           2605      1.49276e+7 
           2615      1.49155e+7 
           2625      1.49661e+7 
           2635      1.50893e+7 
           2645      1.54698e+7 
           2655      1.54935e+7 
           2665      1.54198e+7 
           2675      1.54622e+7 
           2685      1.55777e+7 
           2695       1.5565e+7 
           2705      1.56097e+7 
           2715      1.54101e+7 
           2725       1.5421e+7 
           2735      1.54782e+7 
           2745      1.50486e+7 
           2755       1.5221e+7 
           2765       1.5526e+7 
           2775      1.57196e+7 
           2785      1.56652e+7 
           2795       1.4816e+7 
           2805      1.53148e+7 
           2815      1.58941e+7 
           2825      1.59078e+7 
           2835      1.58379e+7 
           2845      1.58855e+7 
           2855      1.56002e+7 
           2865      1.58586e+7 
           2875      1.59322e+7 
           2885      1.58192e+7 
           2895      1.60081e+7 
           2910      1.60411e+7 
           2930      1.59716e+7 
           2950      1.59497e+7 
           2970      1.60226e+7 
           2990      1.60121e+7 
           3010      1.60665e+7 
           3030      1.60693e+7 
           3050      1.61083e+7 
           3070      1.60842e+7 
           3090      1.61221e+7 
           3110      1.61425e+7 
           3130      1.61491e+7 
           3150       1.6138e+7 
           3170      1.61449e+7 
           3190      1.60827e+7 
           3210      1.61246e+7 
           3230      1.60215e+7 
           3250      1.60978e+7 
           3270      1.61337e+7 
           3290      1.61316e+7 
           3310       1.6123e+7 
           3330      1.60776e+7 
           3350      1.60229e+7 
           3370       1.6022e+7 
           3390      1.60099e+7 
           3410      1.60378e+7 
           3430        1.602e+7 
           3450      1.59795e+7 
           3470      1.59673e+7 
           3490      1.59552e+7 
           3510      1.59396e+7 
           3530       1.5917e+7 
           3550      1.58978e+7 
           3570      1.58479e+7 
           3590      1.58264e+7 
           3610      1.58033e+7 
           3630      1.57826e+7 
           3640      1.57711e+7 
           3650       1.5814e+7 
           3670      1.57767e+7 
           3690      1.52453e+7 
           3710      1.58458e+7 
           3730      1.60693e+7 
           3750      1.90611e+7 
           3770      1.96389e+7 
           3790      2.17796e+7 
           3810      2.41447e+7 
           3830      2.07386e+7 
           3850      2.56372e+7 
           3870      2.71437e+7 
           3890      1.95581e+7 
           3910      2.70618e+7 
           3930      2.75481e+7 
           3950      2.69536e+7 
           3970       1.9199e+7 
           3990      2.63591e+7 
           4010      2.75634e+7 
           4030      2.75874e+7 
           4050       2.7396e+7 
           4070      2.68863e+7 
           4090       2.3872e+7 
           4110      2.00048e+7 
           4130      2.62102e+7 
           4150      2.66122e+7 
           4170      2.65764e+7 
           4190      2.64542e+7 
           4210      2.63076e+7 
           4230      2.61415e+7 
           4250      2.59878e+7 
           4270      2.57966e+7 
           4290      2.55546e+7 
           4310      2.50158e+7 
           4330      2.17451e+7 
           4350      1.93666e+7 
           4370      2.44519e+7 
           4390       2.4777e+7 
           4410      2.47407e+7 
           4430      2.46425e+7 
           4450      2.45319e+7 
           4470      2.43845e+7 
           4490      2.42388e+7 
           4510      2.40909e+7 
           4530      2.39429e+7 
           4550      2.37948e+7 
           4570      2.36501e+7 
           4590      2.35052e+7 
           4610       2.3362e+7 
           4630      2.32186e+7 
           4650      2.30751e+7 
           4670      2.29314e+7 
           4690      2.27893e+7 
           4710      2.26454e+7 
           4730      2.25065e+7 
           4750      2.23642e+7 
           4770      2.21787e+7 
           4790      2.20021e+7 
           4810      2.17755e+7 
           4830       2.1321e+7 
           4850      1.90299e+7 
           4870      1.64531e+7 
           4890       2.0727e+7 
           4910      2.10663e+7 
           4930      2.10461e+7 
           4950      2.09548e+7 
           4970      2.08734e+7 
           4990      2.07427e+7 
           5010       2.0612e+7 
           5030      2.04841e+7 
           5050      2.03562e+7 
           5070      2.02281e+7 
           5090      2.01015e+7 
           5110      1.99747e+7 
           5130      1.98493e+7 
           5150      1.97239e+7 
           5170        1.958e+7 
           5190      1.94672e+7 
           5210      1.93527e+7 
           5230      1.92298e+7 
           5250      1.91109e+7 
           5270      1.89878e+7 
           5290      1.88714e+7 
           5310      1.87522e+7 
           5330       1.8633e+7 
           5350      1.85176e+7 
           5370      1.84008e+7 
           5390      1.82853e+7 
           5410      1.81697e+7 
           5430      1.80552e+7 
           5450       1.7942e+7 
           5470      1.78299e+7 
           5490      1.77177e+7 
           5510      1.76055e+7 
           5530      1.74944e+7 
           5550      1.73844e+7 
           5570      1.72756e+7 
           5590      1.71654e+7 
           5610      1.70588e+7 
           5630      1.69521e+7 
           5650      1.68453e+7 
           5670      1.67395e+7 
           5690      1.66349e+7 
           5710      1.65301e+7 
           5730      1.64264e+7 
           5750      1.63237e+7 
           5770      1.62209e+7 
           5790      1.61192e+7 
           5810      1.60184e+7 
           5830      1.59176e+7 
           5850      1.58177e+7 
           5870      1.57189e+7 
           5890      1.56177e+7 
           5910       1.5523e+7 
           5930       1.5426e+7 
           5950      1.53299e+7 
           5970      1.52337e+7 
           5990      1.51384e+7 
           6010      1.50441e+7 
           6030      1.49507e+7 
           6050      1.48582e+7 
           6070      1.47655e+7 
           6090      1.46738e+7 
           6110      1.45829e+7 
           6130      1.44919e+7 
           6150      1.44018e+7 
           6170      1.43126e+7 
           6190      1.42242e+7 
           6210      1.41366e+7 
           6230      1.40489e+7 
           6250       1.3962e+7 
           6270       1.3876e+7 
           6290      1.37898e+7 
           6310      1.37053e+7 
           6330      1.36207e+7 
           6350       1.3536e+7 
           6370       1.3453e+7 
           6390      1.33698e+7 
           6410      1.32875e+7 
           6430      1.32058e+7 
           6450      1.31232e+7 
           6470      1.30233e+7 
           6490      1.29181e+7 
           6510      1.27953e+7 
           6530      1.25756e+7 
           6550      1.17016e+7 
           6570      9.95479e+6 
           6590      1.21699e+7 
           6610      1.23697e+7 
           6630      1.23628e+7 
           6650      1.23124e+7 
           6670      1.22675e+7 
           6690      1.21934e+7 
           6710      1.21192e+7 
           6730      1.20456e+7 
           6750      1.19727e+7 
           6770      1.18996e+7 
           6790      1.18279e+7 
           6810      1.17561e+7 
           6830      1.16849e+7 
           6850      1.16144e+7 
           6870      1.15445e+7 
           6890      1.14752e+7 
           6910      1.14057e+7 
           6930      1.13368e+7 
           6950      1.12685e+7 
           6970      1.12009e+7 
           6990      1.11338e+7 
           7010      1.10673e+7 
           7030      1.10006e+7 
           7050      1.09352e+7 
           7070      1.08697e+7 
           7090      1.08047e+7 
           7110      1.07403e+7 
           7130      1.06764e+7 
           7150      1.06123e+7 
           7170      1.05495e+7 
           7190      1.04865e+7 
           7210      1.04241e+7 
           7230      1.03622e+7 
           7250      1.03008e+7 
           7270      1.02399e+7 
           7290      1.01788e+7 
           7310       1.0119e+7 
           7330      1.00589e+7 
           7350      9.99939e+6 
           7370      9.94034e+6 
           7390      9.88178e+6 
           7410      9.82371e+6 
           7430      9.76543e+6 
           7450      9.70832e+6 
           7470        9.651e+6 
           7490      9.59416e+6 
           7510      9.53778e+6 
           7530      9.48187e+6 
           7550      9.42641e+6 
           7570      9.37141e+6 
           7590      9.31686e+6 
           7610      9.26209e+6 
           7630      9.20843e+6 
           7650      9.15455e+6 
           7670       9.1011e+6 
           7690      9.04873e+6 
           7710      8.99614e+6 
           7730      8.94397e+6 
           7750      8.89223e+6 
           7770      8.84027e+6 
           7790      8.78935e+6 
           7810      8.73883e+6 
           7830       8.6881e+6 
           7850      8.63838e+6 
           7870      8.58845e+6 
           7890      8.53952e+6 
           7910      8.49037e+6 
           7930       8.4416e+6 
           7950      8.39322e+6 
           7970      8.34522e+6 
           7990      8.29759e+6 
           8010      8.24975e+6 
           8030      8.20286e+6 
           8050      8.15634e+6 
           8070       8.1096e+6 
           8090      8.06322e+6 
           8110      8.01777e+6 
           8130      7.97211e+6 
           8150      7.92679e+6 
           8170      7.88182e+6 
           8190      7.83719e+6 
           8210       7.7957e+6 
           8230      7.75285e+6 
           8250      7.71033e+6 
           8270      7.66812e+6 
           8290      7.62678e+6 
           8310      7.58411e+6 
           8330      7.54177e+6 
           8350      7.49974e+6 
           8370      7.45318e+6 
           8390      7.41074e+6 
           8410      7.36381e+6 
           8430      7.32732e+6 
           8450       7.2874e+6 
           8470      7.20682e+6 
           8490       7.2236e+6 
           8510      7.08044e+6 
           8530      7.16015e+6 
           8550       6.9051e+6 
           8570      7.10937e+6 
           8590      6.93743e+6 
