# Kurucz ODFNEW /NOVER (2003)
# teff = 23000 K (value for the effective temperature for the model. Temperatures are given in K)
# logg = 3.5 log(cm/s2) (value for Log(G) for the model.)
# meta = -2  (value for the Metallicity for the model.)
# lh = 1.25  (l/Hp where l is the  mixing length of the convective element and Hp is the pressure scale height)
# vtur = 2 km/s (Microturbulence velocity)
# alpha = 0  (Alpha)
#
# column 1: WAVELENGTH (ANGSTROM), Wavelength in Angstrom
# column 2: FLUX (ERG/CM2/S/A), Flux in erg/cm2/s/A
          147.2       5.277e-16 
            151     2.93539e-15 
          155.2     1.77064e-14 
          158.8     7.65053e-14 
            162     2.65694e-13 
            166     1.17532e-12 
          170.3     5.35723e-12 
          173.4     1.52383e-11 
          176.8     4.59067e-11 
          180.2     1.32491e-10 
          181.7     2.08739e-10 
          186.1     7.57892e-10 
            191      2.96026e-9 
          193.9      6.40698e-9 
          198.4       2.0268e-8 
          201.8      4.66906e-8 
            205       9.9747e-8 
          210.5      3.47676e-7 
          216.2      1.18074e-6 
          219.8      2.46841e-6 
            223      4.65569e-6 
          226.8      9.65146e-6 
            230      5.33674e-5 
            234     0.000123822 
            240      0.00032697 
          246.5     0.000886918 
          252.4      0.00211352 
          256.8      0.00376699 
            260      0.00600761 
            264       0.0101501 
          268.5       0.0179407 
          273.5       0.0330077 
          278.5        0.059456 
            284        0.110754 
            290        0.212057 
            296        0.394513 
            301         0.64771 
            308         1.23296 
            318         3.12745 
            328         7.26398 
            338         16.0345 
            348         33.6961 
            357          63.304 
            366          115.21 
            375         202.607 
            385         367.796 
            395         645.311 
            405         1099.06 
            414         1733.85 
            422         2550.61 
            430         3690.28 
            441         6009.08 
            451         9140.55 
            460           13094 
            470         19189.5 
            480         27610.5 
            490         39092.9 
            500         54472.1 
            506          366406 
            512      1.06161e+6 
            520      1.30206e+6 
            530      1.77045e+6 
            540      1.92731e+6 
            550      2.68916e+6 
            560      3.18694e+6 
            570      3.85507e+6 
            580      3.88477e+6 
            590      5.06653e+6 
            600      6.19165e+6 
            610      7.26943e+6 
            620      8.32186e+6 
            630      9.61234e+6 
            640      1.07335e+7 
            650       1.2256e+7 
            658      1.37835e+7 
            665      1.49533e+7 
            675      1.64434e+7 
            685      1.82911e+7 
            695      2.10482e+7 
            705      2.31514e+7 
            716      2.59794e+7 
            726      2.85194e+7 
            735      3.12437e+7 
            745      3.45327e+7 
            755      3.78259e+7 
            765      4.11823e+7 
            775      4.50074e+7 
            785      4.89294e+7 
            795       5.2743e+7 
            805      5.69712e+7 
            815      6.10957e+7 
            825      6.60055e+7 
            835      6.95833e+7 
            845      7.52641e+7 
            855      8.00999e+7 
            865      8.58312e+7 
            875      9.18371e+7 
            885      9.77772e+7 
            895      1.03628e+8 
            905      1.08457e+8 
            915      1.97813e+8 
            925      2.25837e+9 
            935      6.41482e+9 
            945     1.45005e+10 
            955     1.74307e+10 
            965     2.12774e+10 
            975      9.32525e+9 
            985     2.16173e+10 
            995     2.06522e+10 
           1005     2.14253e+10 
           1015     2.01978e+10 
           1025      9.50945e+9 
           1035     1.83057e+10 
           1045     2.14445e+10 
           1055     2.07653e+10 
           1065     1.90799e+10 
           1075     1.98678e+10 
           1085      1.8541e+10 
           1095     1.95559e+10 
           1105     1.87284e+10 
           1115     1.85773e+10 
           1125     1.74624e+10 
           1135     1.80594e+10 
           1145      1.7162e+10 
           1155      1.7486e+10 
           1165     1.72656e+10 
           1175     1.49387e+10 
           1185     1.65238e+10 
           1195     1.55823e+10 
           1205     1.38254e+10 
           1215      6.53153e+9 
           1225     1.41559e+10 
           1235     1.50529e+10 
           1245     1.48057e+10 
           1255     1.45994e+10 
           1265     1.42862e+10 
           1275     1.42868e+10 
           1285      1.4014e+10 
           1295     1.29203e+10 
           1305     1.30157e+10 
           1315     1.32768e+10 
           1325     1.28461e+10 
           1335     1.23358e+10 
           1345     1.24727e+10 
           1355     1.23993e+10 
           1365     1.20597e+10 
           1375     1.18485e+10 
           1385     1.16839e+10 
           1395     1.10445e+10 
           1405     1.10256e+10 
           1415     1.10342e+10 
           1425     1.08552e+10 
           1435     1.07386e+10 
           1442     1.06678e+10 
           1447     1.05532e+10 
           1455      1.0396e+10 
           1465     1.01791e+10 
           1475     1.00188e+10 
           1485        9.843e+9 
           1495      9.67198e+9 
           1505      9.39917e+9 
           1512      9.22929e+9 
           1517       9.2116e+9 
           1525      9.08233e+9 
           1535      8.68985e+9 
           1545      8.64149e+9 
           1555      8.39422e+9 
           1565      8.45971e+9 
           1575      8.40229e+9 
           1585      8.27531e+9 
           1595      8.16491e+9 
           1605       7.8994e+9 
           1615      7.76981e+9 
           1625      7.73011e+9 
           1635      7.66657e+9 
           1645      7.44542e+9 
           1655      7.42971e+9 
           1665      7.34345e+9 
           1672      7.19949e+9 
           1677      7.25816e+9 
           1685      7.14734e+9 
           1695      6.99218e+9 
           1705      6.84937e+9 
           1715      6.68531e+9 
           1725      6.61031e+9 
           1735      6.54421e+9 
           1745      6.43119e+9 
           1755      6.38184e+9 
           1765       6.1686e+9 
           1775      6.11831e+9 
           1785      6.07584e+9 
           1795      6.01196e+9 
           1805      5.95142e+9 
           1815      5.80311e+9 
           1825      5.74252e+9 
           1835      5.65582e+9 
           1845      5.43022e+9 
           1855      5.30494e+9 
           1865      5.30366e+9 
           1875       5.3111e+9 
           1885      5.06596e+9 
           1895       4.9006e+9 
           1905      5.00043e+9 
           1915       4.8339e+9 
           1925      4.74203e+9 
           1935      4.77222e+9 
           1945      4.76759e+9 
           1955      4.54625e+9 
           1967      4.60838e+9 
           1976       4.6267e+9 
           1984      4.48055e+9 
           1995      4.35072e+9 
           2005      4.38643e+9 
           2015      4.37325e+9 
           2025      4.34716e+9 
           2035      4.22604e+9 
           2045      4.17012e+9 
           2055      4.05229e+9 
           2065      4.01482e+9 
           2074      4.06588e+9 
           2078      3.95724e+9 
           2085      3.95836e+9 
           2095      3.86212e+9 
           2105      3.87168e+9 
           2115      3.83911e+9 
           2125      3.81675e+9 
           2135      3.75802e+9 
           2145       3.6849e+9 
           2155      3.66109e+9 
           2165      3.61874e+9 
           2175      3.56587e+9 
           2185      3.52487e+9 
           2195      3.48641e+9 
           2205      3.44052e+9 
           2215      3.39778e+9 
           2225      3.34935e+9 
           2235      3.30444e+9 
           2245      3.27125e+9 
           2255      3.22422e+9 
           2265      3.18987e+9 
           2275      3.14988e+9 
           2285      3.11342e+9 
           2295         3.04e+9 
           2305      3.03474e+9 
           2315      2.99297e+9 
           2325      2.95766e+9 
           2335      2.91552e+9 
           2345      2.88324e+9 
           2355      2.85324e+9 
           2365      2.81724e+9 
           2375      2.78241e+9 
           2385      2.74674e+9 
           2395      2.71446e+9 
           2405      2.68275e+9 
           2415      2.64831e+9 
           2425      2.62222e+9 
           2435      2.58827e+9 
           2445      2.55908e+9 
           2455      2.53077e+9 
           2465      2.50011e+9 
           2475      2.47085e+9 
           2485      2.44136e+9 
           2495      2.37517e+9 
           2505      2.38392e+9 
           2513      2.34658e+9 
           2518      2.34778e+9 
           2525      2.32935e+9 
           2535      2.30204e+9 
           2545      2.26746e+9 
           2555      2.24963e+9 
           2565      2.22394e+9 
           2575       2.2009e+9 
           2585      2.17573e+9 
           2595      2.15122e+9 
           2605      2.14273e+9 
           2615      2.11927e+9 
           2625      2.09451e+9 
           2635      2.06557e+9 
           2645      2.04476e+9 
           2655      2.01982e+9 
           2665      1.99429e+9 
           2675      1.97162e+9 
           2685      1.96213e+9 
           2695      1.92519e+9 
           2705      1.91845e+9 
           2715       1.8977e+9 
           2725      1.86254e+9 
           2735      1.85649e+9 
           2745      1.83314e+9 
           2755      1.81465e+9 
           2765      1.78198e+9 
           2775      1.77826e+9 
           2785      1.75872e+9 
           2795      1.72518e+9 
           2805      1.71634e+9 
           2815      1.70355e+9 
           2825      1.66947e+9 
           2835      1.65504e+9 
           2845      1.64994e+9 
           2855      1.63254e+9 
           2865      1.61579e+9 
           2875      1.59887e+9 
           2885      1.58233e+9 
           2895      1.56584e+9 
           2910      1.54138e+9 
           2930       1.5097e+9 
           2950      1.46943e+9 
           2970      1.44928e+9 
           2990      1.41971e+9 
           3010      1.39106e+9 
           3030      1.36405e+9 
           3050      1.33707e+9 
           3070      1.31071e+9 
           3090      1.28402e+9 
           3110      1.25992e+9 
           3130      1.23683e+9 
           3150      1.21267e+9 
           3170      1.18898e+9 
           3190      1.15717e+9 
           3210      1.14403e+9 
           3230      1.12222e+9 
           3250      1.10096e+9 
           3270      1.08165e+9 
           3290      1.05991e+9 
           3310      1.04195e+9 
           3330      1.02277e+9 
           3350      1.00204e+9 
           3370      9.85702e+8 
           3390      9.67844e+8 
           3410      9.50401e+8 
           3430      9.28431e+8 
           3450      9.08392e+8 
           3470      8.95135e+8 
           3490      8.79616e+8 
           3510      8.68703e+8 
           3530      8.54473e+8 
           3550       8.3997e+8 
           3570      8.29107e+8 
           3590      8.10424e+8 
           3610      7.97451e+8 
           3630      7.82741e+8 
           3640      7.80834e+8 
           3650      7.65958e+8 
           3670      7.56038e+8 
           3690      7.34418e+8 
           3710      7.17571e+8 
           3730      7.03777e+8 
           3750      7.67925e+8 
           3770       7.7284e+8 
           3790      8.03102e+8 
           3810      8.34322e+8 
           3830      7.35666e+8 
           3850      8.48617e+8 
           3870      8.43163e+8 
           3890      7.01695e+8 
           3910      8.27528e+8 
           3930      8.10833e+8 
           3950      8.00349e+8 
           3970      6.51279e+8 
           3990      7.70587e+8 
           4010       7.5985e+8 
           4030       7.2361e+8 
           4050      7.41355e+8 
           4070      7.26627e+8 
           4090      6.85171e+8 
           4110      6.04231e+8 
           4130      6.83868e+8 
           4150      6.75783e+8 
           4170       6.6871e+8 
           4190      6.59659e+8 
           4210      6.49092e+8 
           4230      6.38504e+8 
           4250      6.28025e+8 
           4270      6.16577e+8 
           4290      6.07914e+8 
           4310      5.96546e+8 
           4330      5.53996e+8 
           4350      5.06825e+8 
           4370      5.67829e+8 
           4390      5.49316e+8 
           4410      5.52384e+8 
           4430      5.41725e+8 
           4450      5.35668e+8 
           4470      5.09467e+8 
           4490      5.19047e+8 
           4510       5.1136e+8 
           4530      5.03514e+8 
           4550      4.95749e+8 
           4570      4.88154e+8 
           4590       4.8087e+8 
           4610      4.73639e+8 
           4630      4.66534e+8 
           4650      4.58992e+8 
           4670      4.52685e+8 
           4690      4.45904e+8 
           4710      4.34263e+8 
           4730      4.32787e+8 
           4750      4.26245e+8 
           4770      4.20509e+8 
           4790      4.14378e+8 
           4810      4.08268e+8 
           4830      4.01083e+8 
           4850       3.7781e+8 
           4870      3.39339e+8 
           4890      3.83329e+8 
           4910      3.79619e+8 
           4930      3.67167e+8 
           4950      3.69157e+8 
           4970      3.64011e+8 
           4990       3.5889e+8 
           5010      3.49847e+8 
           5030      3.48916e+8 
           5050      3.42022e+8 
           5070      3.39314e+8 
           5090      3.34632e+8 
           5110      3.30027e+8 
           5130      3.25468e+8 
           5150      3.20999e+8 
           5170      3.16688e+8 
           5190      3.12392e+8 
           5210      3.08139e+8 
           5230       3.0401e+8 
           5250      2.99921e+8 
           5270      2.95913e+8 
           5290       2.9197e+8 
           5310      2.88091e+8 
           5330      2.84275e+8 
           5350      2.80495e+8 
           5370      2.76829e+8 
           5390      2.73197e+8 
           5410      2.69623e+8 
           5430      2.66094e+8 
           5450      2.62648e+8 
           5470      2.59246e+8 
           5490       2.5591e+8 
           5510      2.52616e+8 
           5530      2.49376e+8 
           5550      2.46187e+8 
           5570       2.4305e+8 
           5590      2.39964e+8 
           5610      2.36927e+8 
           5630       2.3394e+8 
           5650      2.30988e+8 
           5670      2.28073e+8 
           5690      2.25181e+8 
           5710       2.2245e+8 
           5730      2.19684e+8 
           5750      2.16951e+8 
           5770      2.14295e+8 
           5790       2.1166e+8 
           5810      2.09067e+8 
           5830      2.06504e+8 
           5850      2.03994e+8 
           5870      1.96144e+8 
           5890      1.98919e+8 
           5910      1.96669e+8 
           5930      1.94284e+8 
           5950      1.91959e+8 
           5970      1.89671e+8 
           5990      1.87398e+8 
           6010      1.85173e+8 
           6030      1.82983e+8 
           6050      1.80818e+8 
           6070      1.78688e+8 
           6090      1.76591e+8 
           6110      1.74519e+8 
           6130       1.7248e+8 
           6150      1.70463e+8 
           6170      1.68489e+8 
           6190      1.66547e+8 
           6210      1.64626e+8 
           6230      1.62726e+8 
           6250      1.60857e+8 
           6270      1.59018e+8 
           6290      1.57199e+8 
           6310      1.55409e+8 
           6330      1.53648e+8 
           6350      1.51897e+8 
           6370      1.50193e+8 
           6390      1.48507e+8 
           6410      1.46839e+8 
           6430      1.45198e+8 
           6450      1.43583e+8 
           6470      1.41977e+8 
           6490      1.40406e+8 
           6510       1.3886e+8 
           6530       1.3703e+8 
           6550      1.32348e+8 
           6570      1.18461e+8 
           6590      1.31961e+8 
           6610      1.31353e+8 
           6630      1.29979e+8 
           6650      1.28662e+8 
           6670      1.26172e+8 
           6690       1.2483e+8 
           6710      1.24547e+8 
           6730      1.23209e+8 
           6750      1.21893e+8 
           6770       1.2059e+8 
           6790      1.19292e+8 
           6810       1.1804e+8 
           6830      1.16793e+8 
           6850      1.15558e+8 
           6870      1.14343e+8 
           6890      1.13141e+8 
           6910      1.11958e+8 
           6930      1.10779e+8 
           6950      1.09636e+8 
           6970      1.08496e+8 
           6990      1.07359e+8 
           7010      1.06264e+8 
           7030      1.05165e+8 
           7050      1.04084e+8 
           7070      1.01393e+8 
           7090      1.01961e+8 
           7110      1.00927e+8 
           7130      9.98942e+7 
           7150      9.88793e+7 
           7170      9.78594e+7 
           7190      9.68931e+7 
           7210      9.59142e+7 
           7230      9.48222e+7 
           7250      9.39987e+7 
           7270      9.30617e+7 
           7290      9.13821e+7 
           7310         9.12e+7 
           7330      9.03103e+7 
           7350       8.9422e+7 
           7370      8.85351e+7 
           7390      8.76633e+7 
           7410      8.68065e+7 
           7430      8.59508e+7 
           7450      8.51234e+7 
           7470      8.42969e+7 
           7490       8.3478e+7 
           7510      8.26332e+7 
           7530      8.18626e+7 
           7550      8.10726e+7 
           7570      8.02963e+7 
           7590      7.95206e+7 
           7610      7.87584e+7 
           7630      7.80095e+7 
           7650       7.7261e+7 
           7670      7.65256e+7 
           7690      7.58032e+7 
           7710      7.50808e+7 
           7730      7.43776e+7 
           7750       7.3668e+7 
           7770       7.2971e+7 
           7790      7.22989e+7 
           7810      7.15585e+7 
           7830      7.09537e+7 
           7850      7.03725e+7 
           7870      6.97173e+7 
           7890      6.90133e+7 
           7910      6.84299e+7 
           7930      6.76718e+7 
           7950      6.70039e+7 
           7970      6.63419e+7 
           7990      6.57623e+7 
           8010      6.51349e+7 
           8030      6.45479e+7 
           8050      6.40183e+7 
           8070      6.34815e+7 
           8090      6.27651e+7 
           8110      6.22841e+7 
           8130       6.1807e+7 
           8150      6.11297e+7 
           8170      6.07179e+7 
           8190      6.00904e+7 
           8210      5.93341e+7 
           8230      5.90071e+7 
           8250      5.84944e+7 
           8270        5.765e+7 
           8290      5.73831e+7 
           8310      5.68945e+7 
           8330      5.63773e+7 
           8350      5.55942e+7 
           8370      5.52482e+7 
           8390      5.48406e+7 
           8410      5.43351e+7 
           8430      5.37701e+7 
           8450      5.30041e+7 
           8470      5.26018e+7 
           8490      5.24431e+7 
           8510      5.14317e+7 
           8530      5.17531e+7 
           8550       4.9757e+7 
           8570      5.16891e+7 
           8590      4.90853e+7 
