# Kurucz ODFNEW /NOVER (2003)
# teff = 7750 K (value for the effective temperature for the model. Temperatures are given in K)
# logg = 4 log(cm/s2) (value for Log(G) for the model.)
# meta = -1.5  (value for the Metallicity for the model.)
# lh = 1.25  (l/Hp where l is the  mixing length of the convective element and Hp is the pressure scale height)
# vtur = 2 km/s (Microturbulence velocity)
# alpha = 0  (Alpha)
#
# column 1: WAVELENGTH (ANGSTROM), Wavelength in Angstrom
# column 2: FLUX (ERG/CM2/S/A), Flux in erg/cm2/s/A
            328     4.22973e-23 
            338     5.10235e-22 
            348      4.8687e-21 
            357     3.30324e-20 
            366     2.03287e-19 
            375     1.14314e-18 
            385     7.06109e-18 
            395     2.29384e-18 
            405     1.07719e-17 
            414     4.04983e-17 
            422     1.24873e-16 
            430     3.68172e-16 
            441     1.52051e-15 
            451     5.17269e-15 
            460     1.48281e-14 
            470     4.54258e-14 
            480     1.32271e-13 
            490     3.67598e-13 
            500     9.76468e-13 
            506     2.28066e-12 
            512     4.46308e-12 
            520     9.08832e-12 
            530     2.15523e-11 
            540     4.85356e-11 
            550     1.07179e-10 
            560     2.28056e-10 
            570     4.71265e-10 
            580     9.36403e-10 
            590      1.85464e-9 
            600      3.54188e-9 
            610      6.60699e-9 
            620      1.20506e-8 
            630      2.15141e-8 
            640       3.7661e-8 
            650        6.467e-8 
            658      9.83493e-8 
            665      1.40614e-7 
            675      2.30945e-7 
            685      3.73129e-7 
            695      5.93572e-7 
            705      9.30028e-7 
            716       1.4997e-6 
            726      2.28221e-6 
            735       3.2941e-6 
            745      4.89475e-6 
            755      7.18596e-6 
            765      1.04285e-5 
            775      1.49688e-5 
            785      2.12579e-5 
            795      2.98636e-5 
            805      4.15869e-5 
            815      5.73524e-5 
            825      7.83708e-5 
            835      0.00010619 
            845     0.000142672 
            855     0.000190136 
            865     0.000251432 
            875     0.000329937 
            885     0.000429978 
            895     0.000556376 
            905     0.000714936 
            915        0.818188 
            925         5.99289 
            935         10.0264 
            945         16.2192 
            955          22.801 
            965         29.7763 
            975         27.0461 
            985         46.3891 
            995         54.8146 
           1005         69.2605 
           1015         75.9072 
           1025         63.2457 
           1035          110.15 
           1045         145.679 
           1055         174.121 
           1065         204.931 
           1075         247.695 
           1085         295.649 
           1095         340.526 
           1105         601.181 
           1115         1063.98 
           1125         1264.29 
           1135         1599.91 
           1145          1807.2 
           1155         1840.12 
           1165         2083.16 
           1175         2108.65 
           1185         2458.03 
           1195         1319.43 
           1205         827.856 
           1215         213.823 
           1225         924.385 
           1235         2240.68 
           1245         2587.24 
           1255         4993.08 
           1265         6302.97 
           1275         8007.46 
           1285         10965.6 
           1295         13707.8 
           1305           16421 
           1315         20627.9 
           1325         25728.6 
           1335         31620.6 
           1345           41069 
           1355         49070.6 
           1365         60493.9 
           1375         65760.4 
           1385         64755.3 
           1395         74303.4 
           1405         98312.9 
           1415          147600 
           1425          166003 
           1435          174347 
           1442          235546 
           1447          203999 
           1455          240912 
           1465          223205 
           1475          244328 
           1485          277436 
           1495          307954 
           1505          346371 
           1512          351856 
           1517          323871 
           1525          333101 
           1535          396663 
           1545          367477 
           1555          322834 
           1565          249258 
           1575          267076 
           1585          270435 
           1595          276621 
           1605          288409 
           1615          398016 
           1625          758759 
           1635      1.69451e+6 
           1645      3.97776e+6 
           1655      4.05115e+6 
           1665      8.51418e+6 
           1672      7.38788e+6 
           1677      1.01676e+7 
           1685      1.23508e+7 
           1695      1.20805e+7 
           1705      1.30578e+7 
           1715      1.49233e+7 
           1725      1.51686e+7 
           1735      1.68477e+7 
           1745      1.64819e+7 
           1755      1.81355e+7 
           1765      1.54007e+7 
           1775      1.77757e+7 
           1785      1.81659e+7 
           1795      1.98746e+7 
           1805      1.87866e+7 
           1815      1.90696e+7 
           1825      1.80061e+7 
           1835      1.88005e+7 
           1845      1.71331e+7 
           1855      1.81554e+7 
           1865      1.90237e+7 
           1875      1.92092e+7 
           1885      1.94301e+7 
           1895        1.994e+7 
           1905      1.90969e+7 
           1915      2.03423e+7 
           1925      2.09052e+7 
           1935      1.94491e+7 
           1945       2.1544e+7 
           1955      2.14849e+7 
           1967      2.23783e+7 
           1976      2.16906e+7 
           1984      2.15275e+7 
           1995      2.13021e+7 
           2005      2.05354e+7 
           2015      2.08266e+7 
           2025      1.95401e+7 
           2035      2.13963e+7 
           2045      2.23334e+7 
           2055      2.17463e+7 
           2065      2.15027e+7 
           2074      2.30085e+7 
           2078      2.31285e+7 
           2085       2.2892e+7 
           2095      2.22534e+7 
           2105      2.18155e+7 
           2115      2.22043e+7 
           2125      2.25814e+7 
           2135       2.0043e+7 
           2145      2.21271e+7 
           2155      2.19125e+7 
           2165       2.0914e+7 
           2175      2.08289e+7 
           2185      2.16155e+7 
           2195      2.28906e+7 
           2205      2.21504e+7 
           2215      2.06846e+7 
           2225      2.12129e+7 
           2235       2.3274e+7 
           2245      2.14996e+7 
           2255      2.07567e+7 
           2265      2.02793e+7 
           2275      2.17654e+7 
           2285      2.22449e+7 
           2295      2.09092e+7 
           2305      2.14649e+7 
           2315       2.1587e+7 
           2325      2.14861e+7 
           2335        2.112e+7 
           2345       1.9046e+7 
           2355      2.18388e+7 
           2365       1.9749e+7 
           2375      2.10424e+7 
           2385       1.8394e+7 
           2395      2.01033e+7 
           2405      1.96453e+7 
           2415      1.97795e+7 
           2425      2.11766e+7 
           2435      2.04712e+7 
           2445      2.13458e+7 
           2455      2.09491e+7 
           2465      2.08979e+7 
           2475      1.99815e+7 
           2485      2.04702e+7 
           2495      1.99566e+7 
           2505      2.19979e+7 
           2513      2.02546e+7 
           2518       2.0176e+7 
           2525      1.90615e+7 
           2535      1.87379e+7 
           2545      1.86032e+7 
           2555       2.0091e+7 
           2565      2.02318e+7 
           2575      2.15216e+7 
           2585      2.17618e+7 
           2595      2.16868e+7 
           2605      2.09304e+7 
           2615      2.04864e+7 
           2625      2.16958e+7 
           2635      2.18152e+7 
           2645      2.38379e+7 
           2655      2.38121e+7 
           2665      2.24216e+7 
           2675      2.30872e+7 
           2685      2.35317e+7 
           2695      2.22655e+7 
           2705      2.25084e+7 
           2715      2.15313e+7 
           2725      2.16308e+7 
           2735      2.27189e+7 
           2745      2.01338e+7 
           2755      2.07593e+7 
           2765      2.16866e+7 
           2775      2.26504e+7 
           2785      2.22738e+7 
           2795      1.73444e+7 
           2805       1.9253e+7 
           2815      2.35359e+7 
           2825      2.33049e+7 
           2835      2.27761e+7 
           2845      2.22239e+7 
           2855       2.1268e+7 
           2865      2.24384e+7 
           2875      2.21481e+7 
           2885      2.27045e+7 
           2895      2.23839e+7 
           2910       2.3681e+7 
           2930      2.30187e+7 
           2950      2.28336e+7 
           2970       2.3011e+7 
           2990      2.30603e+7 
           3010      2.31424e+7 
           3030      2.31736e+7 
           3050      2.31505e+7 
           3070      2.31037e+7 
           3090       2.3204e+7 
           3110      2.29751e+7 
           3130      2.29639e+7 
           3150      2.32238e+7 
           3170      2.31326e+7 
           3190      2.24303e+7 
           3210      2.26803e+7 
           3230      2.22599e+7 
           3250      2.26248e+7 
           3270      2.28724e+7 
           3290      2.30083e+7 
           3310      2.30468e+7 
           3330      2.27127e+7 
           3350      2.24168e+7 
           3370      2.24109e+7 
           3390      2.22813e+7 
           3410      2.25025e+7 
           3430      2.24999e+7 
           3450      2.23322e+7 
           3470      2.22047e+7 
           3490        2.222e+7 
           3510       2.2362e+7 
           3530      2.23046e+7 
           3550      2.23903e+7 
           3570      2.19779e+7 
           3590      2.19047e+7 
           3610      2.18896e+7 
           3630      2.19529e+7 
           3640      2.18862e+7 
           3650      2.21245e+7 
           3670      2.21069e+7 
           3690      2.11344e+7 
           3710      2.21287e+7 
           3730      2.27878e+7 
           3750      2.83488e+7 
           3770      2.98274e+7 
           3790      3.52467e+7 
           3810       4.0338e+7 
           3830       3.2714e+7 
           3850      4.40282e+7 
           3870      4.84341e+7 
           3890      3.00819e+7 
           3910      4.85004e+7 
           3930      4.91764e+7 
           3950      4.86652e+7 
           3970      2.90658e+7 
           3990      4.71879e+7 
           4010      5.19476e+7 
           4030      5.22335e+7 
           4050      5.15788e+7 
           4070      4.92537e+7 
           4090      4.01365e+7 
           4110      3.16623e+7 
           4130      4.75304e+7 
           4150      4.94293e+7 
           4170      4.96625e+7 
           4190      4.91359e+7 
           4210      4.87021e+7 
           4230      4.79668e+7 
           4250      4.77646e+7 
           4270      4.70992e+7 
           4290       4.6483e+7 
           4310      4.39211e+7 
           4330      3.47938e+7 
           4350      3.01284e+7 
           4370      4.30942e+7 
           4390      4.43269e+7 
           4410      4.43557e+7 
           4430      4.44514e+7 
           4450      4.41289e+7 
           4470      4.38178e+7 
           4490      4.34171e+7 
           4510      4.32088e+7 
           4530      4.26648e+7 
           4550      4.21249e+7 
           4570       4.2125e+7 
           4590      4.16693e+7 
           4610      4.15265e+7 
           4630      4.10227e+7 
           4650       4.0796e+7 
           4670      4.04681e+7 
           4690      3.99815e+7 
           4710      3.92147e+7 
           4730      3.93368e+7 
           4750      3.89828e+7 
           4770      3.85656e+7 
           4790      3.80701e+7 
           4810      3.73536e+7 
           4830      3.57159e+7 
           4850      2.90909e+7 
           4870      2.40538e+7 
           4890      3.39988e+7 
           4910      3.55866e+7 
           4930      3.54798e+7 
           4950      3.55581e+7 
           4970      3.54708e+7 
           4990      3.51129e+7 
           5010       3.4659e+7 
           5030      3.46355e+7 
           5050      3.42997e+7 
           5070      3.40882e+7 
           5090      3.37787e+7 
           5110      3.35177e+7 
           5130      3.31939e+7 
           5150      3.28641e+7 
           5170      3.21523e+7 
           5190      3.20085e+7 
           5210      3.19769e+7 
           5230      3.16213e+7 
           5250       3.1605e+7 
           5270      3.10359e+7 
           5290      3.10534e+7 
           5310      3.07558e+7 
           5330      3.03809e+7 
           5350      3.02976e+7 
           5370      2.99665e+7 
           5390      2.97497e+7 
           5410      2.94272e+7 
           5430      2.92466e+7 
           5450      2.90184e+7 
           5470      2.88129e+7 
           5490      2.86083e+7 
           5510      2.83824e+7 
           5530      2.81171e+7 
           5550      2.79332e+7 
           5570      2.76698e+7 
           5590      2.74227e+7 
           5610      2.72252e+7 
           5630      2.70392e+7 
           5650      2.68151e+7 
           5670      2.65864e+7 
           5690      2.63859e+7 
           5710       2.6169e+7 
           5730      2.59798e+7 
           5750      2.57617e+7 
           5770      2.55608e+7 
           5790      2.53542e+7 
           5810      2.51543e+7 
           5830      2.49565e+7 
           5850      2.47498e+7 
           5870      2.45541e+7 
           5890      2.41781e+7 
           5910      2.41689e+7 
           5930      2.39783e+7 
           5950      2.37919e+7 
           5970      2.36052e+7 
           5990      2.34153e+7 
           6010      2.32253e+7 
           6030      2.30456e+7 
           6050      2.28729e+7 
           6070      2.26979e+7 
           6090      2.25186e+7 
           6110      2.23401e+7 
           6130      2.21404e+7 
           6150      2.19658e+7 
           6170       2.1791e+7 
           6190      2.16612e+7 
           6210      2.14965e+7 
           6230      2.13199e+7 
           6250      2.11277e+7 
           6270      2.10046e+7 
           6290      2.08437e+7 
           6310      2.06729e+7 
           6330        2.052e+7 
           6350      2.03526e+7 
           6370      2.02027e+7 
           6390      2.00561e+7 
           6410      1.98844e+7 
           6430      1.97208e+7 
           6450      1.95127e+7 
           6470      1.93598e+7 
           6490      1.91343e+7 
           6510       1.8864e+7 
           6530      1.82759e+7 
           6550        1.618e+7 
           6570      1.32294e+7 
           6590      1.73652e+7 
           6610      1.80492e+7 
           6630      1.81419e+7 
           6650      1.80926e+7 
           6670      1.79944e+7 
           6690      1.78895e+7 
           6710      1.77855e+7 
           6730      1.76592e+7 
           6750      1.75232e+7 
           6770      1.74034e+7 
           6790      1.72757e+7 
           6810      1.71492e+7 
           6830      1.70215e+7 
           6850      1.68965e+7 
           6870      1.67759e+7 
           6890      1.66549e+7 
           6910      1.65334e+7 
           6930       1.6413e+7 
           6950      1.62945e+7 
           6970      1.61763e+7 
           6990      1.60599e+7 
           7010      1.59393e+7 
           7030      1.58259e+7 
           7050      1.57157e+7 
           7070      1.56028e+7 
           7090      1.54917e+7 
           7110      1.53562e+7 
           7130      1.52657e+7 
           7150      1.51576e+7 
           7170      1.50504e+7 
           7190      1.49413e+7 
           7210      1.48361e+7 
           7230      1.47332e+7 
           7250      1.46291e+7 
           7270      1.45281e+7 
           7290      1.44208e+7 
           7310      1.43216e+7 
           7330      1.42197e+7 
           7350      1.41243e+7 
           7370      1.40262e+7 
           7390      1.39242e+7 
           7410      1.38203e+7 
           7430      1.37276e+7 
           7450      1.36343e+7 
           7470       1.3535e+7 
           7490        1.344e+7 
           7510      1.33532e+7 
           7530      1.32624e+7 
           7550      1.31731e+7 
           7570      1.30818e+7 
           7590      1.29914e+7 
           7610      1.29024e+7 
           7630      1.28141e+7 
           7650      1.27253e+7 
           7670      1.26334e+7 
           7690      1.25506e+7 
           7710      1.24628e+7 
           7730      1.23826e+7 
           7750      1.22956e+7 
           7770      1.21475e+7 
           7790      1.21324e+7 
           7810      1.20506e+7 
           7830      1.19657e+7 
           7850      1.18834e+7 
           7870      1.18024e+7 
           7890      1.17227e+7 
           7910      1.16472e+7 
           7930      1.15646e+7 
           7950      1.14874e+7 
           7970       1.1418e+7 
           7990      1.13373e+7 
           8010      1.12643e+7 
           8030      1.11895e+7 
           8050      1.11154e+7 
           8070      1.10425e+7 
           8090      1.09684e+7 
           8110      1.08977e+7 
           8130      1.08265e+7 
           8150      1.07547e+7 
           8170      1.06841e+7 
           8190      1.05932e+7 
           8210      1.05478e+7 
           8230      1.04771e+7 
           8250      1.04114e+7 
           8270      1.03606e+7 
           8290      1.02969e+7 
           8310      1.02311e+7 
           8330      1.01386e+7 
           8350      1.01003e+7 
           8370      1.00295e+7 
           8390      9.95234e+6 
           8410      9.88216e+6 
           8430      9.81995e+6 
           8450      9.74028e+6 
           8470      9.59036e+6 
           8490      9.67589e+6 
           8510      9.31158e+6 
           8530      9.60193e+6 
           8550      8.92524e+6 
           8570      9.57816e+6 
           8590      9.11955e+6 
           8610      8.92681e+6 
           8630      9.52384e+6 
           8650      9.25529e+6 
           8670      8.07096e+6 
           8690      9.30897e+6 
           8710      9.46292e+6 
           8730      9.20013e+6 
           8750      7.71493e+6 
           8770      8.86464e+6 
           8790      9.30754e+6 
           8810      9.31484e+6 
           8830      9.15914e+6 
           8850      8.46219e+6 
           8870      7.38022e+6 
           8890      8.79902e+6 
           8910      9.05283e+6 
           8930      9.07988e+6 
           8950      9.04828e+6 
           8970      8.91386e+6 
           8990      8.58151e+6 
           9010       7.1791e+6 
           9030      7.77059e+6 
           9050      8.53848e+6 
           9070       8.6355e+6 
           9090      8.59982e+6 
           9110      8.64744e+6 
           9130      8.62858e+6 
           9150      8.56255e+6 
           9170      8.46342e+6 
           9190      8.28566e+6 
           9210      7.82246e+6 
           9230      6.42262e+6 
           9250      7.60482e+6 
           9270       8.0363e+6 
           9290      8.15452e+6 
           9310      8.16038e+6 
           9330      8.13408e+6 
           9350      8.09631e+6 
           9370       8.0532e+6 
