# Kurucz ODFNEW /NOVER (2003)
# teff = 7500 K (value for the effective temperature for the model. Temperatures are given in K)
# logg = 1 log(cm/s2) (value for Log(G) for the model.)
# meta = -1  (value for the Metallicity for the model.)
# lh = 1.25  (l/Hp where l is the  mixing length of the convective element and Hp is the pressure scale height)
# vtur = 2 km/s (Microturbulence velocity)
# alpha = 0  (Alpha)
#
# column 1: WAVELENGTH (ANGSTROM), Wavelength in Angstrom
# column 2: FLUX (ERG/CM2/S/A), Flux in erg/cm2/s/A
            385     3.74048e-23 
            395     3.07058e-22 
            405     2.12432e-21 
            414     1.10962e-20 
            422     4.53512e-20 
            430     1.75582e-19 
            441     1.03939e-18 
            451     4.84208e-18 
            460     1.82276e-17 
            470     7.47422e-17 
            480     2.88335e-16 
            490     1.05051e-15 
            500       3.627e-15 
            506     7.07857e-15 
            512     1.47692e-14 
            520      3.6667e-14 
            530     1.11501e-13 
            540     3.19832e-13 
            550     8.81422e-13 
            560     2.33894e-12 
            570     5.98836e-12 
            580     1.45809e-11 
            590     3.55171e-11 
            600      8.2555e-11 
            610     1.86401e-10 
            620     4.09424e-10 
            630     8.75969e-10 
            640      1.82791e-9 
            650      3.72441e-9 
            658      6.47446e-9 
            665      1.03838e-8 
            675     8.14281e-10 
            685      1.45433e-9 
            695      2.55008e-9 
            705      4.39046e-9 
            716      7.83432e-9 
            726      1.30335e-8 
            735      2.03412e-8 
            745      3.28914e-8 
            755      5.24358e-8 
            765      8.24559e-8 
            775      1.27967e-7 
            785      1.96127e-7 
            795      2.96442e-7 
            805       4.4414e-7 
            815      6.57465e-7 
            825      9.62656e-7 
            835      1.39496e-6 
            845       2.0015e-6 
            855      2.84398e-6 
            865      4.00411e-6 
            875      5.58482e-6 
            885      7.72867e-6 
            895      1.06031e-5 
            905      1.44183e-5 
            915       0.0445452 
            925        0.160955 
            935        0.204455 
            945        0.282552 
            955        0.404056 
            965        0.515724 
            975        0.569042 
            985        0.853968 
            995         1.03564 
           1005         1.38301 
           1015         1.59837 
           1025         1.78065 
           1035         2.71241 
           1045         3.44844 
           1055         4.27424 
           1065         5.10809 
           1075         6.36279 
           1085         7.76932 
           1095         9.17202 
           1105         26.8629 
           1115         79.8079 
           1125         107.453 
           1135         134.561 
           1145         149.261 
           1155          142.48 
           1165         155.311 
           1175         140.781 
           1185          253.64 
           1195         49.1797 
           1205         31.8736 
           1215         8.06119 
           1225         37.8581 
           1235         96.9892 
           1245         200.866 
           1255         375.288 
           1265         530.078 
           1275         827.003 
           1285         1301.03 
           1295         1805.31 
           1305         1911.74 
           1315         2921.51 
           1325         3921.96 
           1335          4828.8 
           1345         7064.05 
           1355         8409.41 
           1365         10499.6 
           1375         13970.6 
           1385         17482.5 
           1395         22595.7 
           1405           31743 
           1415         39059.2 
           1425         53657.2 
           1435           57268 
           1442         76013.9 
           1447         90900.1 
           1455          128441 
           1465          138757 
           1475          160787 
           1485          195350 
           1495          247813 
           1505          289588 
           1512          278673 
           1517          313574 
           1525          374344 
           1535          930605 
           1545      1.66851e+6 
           1555       1.5672e+6 
           1565      1.34072e+6 
           1575      1.90216e+6 
           1585      2.09852e+6 
           1595      2.63856e+6 
           1605      2.34854e+6 
           1615       2.3389e+6 
           1625      2.22517e+6 
           1635      2.68212e+6 
           1645      3.28153e+6 
           1655      2.05693e+6 
           1665       3.3661e+6 
           1672       1.4209e+6 
           1677      3.59204e+6 
           1685       4.4173e+6 
           1695       4.3412e+6 
           1705      3.99223e+6 
           1715      4.58202e+6 
           1725      4.69844e+6 
           1735      5.33865e+6 
           1745      5.00731e+6 
           1755      5.94212e+6 
           1765      4.93909e+6 
           1775      5.73807e+6 
           1785       5.5303e+6 
           1795      6.81159e+6 
           1805      6.08764e+6 
           1815      6.47418e+6 
           1825      5.84081e+6 
           1835      5.78538e+6 
           1845      5.33582e+6 
           1855      5.75863e+6 
           1865       5.9806e+6 
           1875      6.12508e+6 
           1885      6.28249e+6 
           1895      6.53539e+6 
           1905      6.03967e+6 
           1915      6.60885e+6 
           1925      6.84586e+6 
           1935      5.97358e+6 
           1945      7.17245e+6 
           1955       7.2275e+6 
           1967      7.58174e+6 
           1976      7.42233e+6 
           1984      7.26526e+6 
           1995      7.05767e+6 
           2005      6.87208e+6 
           2015       6.6683e+6 
           2025      6.35464e+6 
           2035      7.03011e+6 
           2045      7.58895e+6 
           2055      7.05326e+6 
           2065      6.81072e+6 
           2074      7.94477e+6 
           2078      8.18773e+6 
           2085      7.93188e+6 
           2095       7.6457e+6 
           2105      7.27234e+6 
           2115      7.36611e+6 
           2125      7.58919e+6 
           2135      6.05341e+6 
           2145      7.15348e+6 
           2155      7.32655e+6 
           2165      6.88891e+6 
           2175       6.8742e+6 
           2185      7.09211e+6 
           2195       7.7735e+6 
           2205      7.45218e+6 
           2215      6.64905e+6 
           2225      6.60358e+6 
           2235       7.7688e+6 
           2245      6.91504e+6 
           2255      6.56402e+6 
           2265      6.58543e+6 
           2275      7.30366e+6 
           2285      7.59199e+6 
           2295      7.07292e+6 
           2305      7.28071e+6 
           2315      7.09774e+6 
           2325      6.92405e+6 
           2335      5.93545e+6 
           2345      5.01187e+6 
           2355      6.89875e+6 
           2365      5.18704e+6 
           2375      6.35019e+6 
           2385       4.4303e+6 
           2395      5.43523e+6 
           2405      5.18593e+6 
           2415      5.74968e+6 
           2425      7.17504e+6 
           2435      7.01901e+6 
           2445      7.48414e+6 
           2455      7.28578e+6 
           2465      7.23113e+6 
           2475      6.86654e+6 
           2485      7.22806e+6 
           2495      7.02378e+6 
           2505      8.17755e+6 
           2513      6.99332e+6 
           2518      7.32327e+6 
           2525      6.60143e+6 
           2535      6.39585e+6 
           2545      6.52541e+6 
           2555      7.15252e+6 
           2565      6.95886e+6 
           2575      7.64808e+6 
           2585      7.42496e+6 
           2595      7.06351e+6 
           2605      6.56471e+6 
           2615      6.33059e+6 
           2625      7.40761e+6 
           2635       7.8599e+6 
           2645      9.63198e+6 
           2655      9.58254e+6 
           2665       8.5581e+6 
           2675      9.03598e+6 
           2685       9.0221e+6 
           2695      8.57403e+6 
           2705      8.82533e+6 
           2715      8.17219e+6 
           2725       8.3325e+6 
           2735       9.0785e+6 
           2745      6.78861e+6 
           2755      7.46458e+6 
           2765      7.99412e+6 
           2775      9.02267e+6 
           2785      8.53299e+6 
           2795      4.54345e+6 
           2805      5.52787e+6 
           2815      9.34333e+6 
           2825       9.8145e+6 
           2835      9.43742e+6 
           2845      9.16501e+6 
           2855      8.69604e+6 
           2865      9.52813e+6 
           2875      9.27053e+6 
           2885      9.54766e+6 
           2895      9.12985e+6 
           2910      1.04035e+7 
           2930      1.00917e+7 
           2950      1.00627e+7 
           2970      1.04192e+7 
           2990      1.06027e+7 
           3010      1.08485e+7 
           3030      1.08441e+7 
           3050      1.08327e+7 
           3070      1.08179e+7 
           3090      1.11637e+7 
           3110      1.08842e+7 
           3130      1.08605e+7 
           3150      1.12428e+7 
           3170      1.12926e+7 
           3190       1.0795e+7 
           3210      1.11862e+7 
           3230      1.09532e+7 
           3250      1.12653e+7 
           3270       1.1376e+7 
           3290      1.16112e+7 
           3310      1.17804e+7 
           3330      1.15741e+7 
           3350      1.14286e+7 
           3370      1.14838e+7 
           3390      1.15516e+7 
           3410      1.18756e+7 
           3430      1.20013e+7 
           3450      1.19655e+7 
           3470      1.18276e+7 
           3490      1.18044e+7 
           3510      1.21118e+7 
           3530      1.22598e+7 
           3550      1.23842e+7 
           3570      1.21072e+7 
           3590      1.21194e+7 
           3610      1.22023e+7 
           3630      1.23201e+7 
           3640      1.21854e+7 
           3650      1.25095e+7 
           3670      1.24717e+7 
           3690      1.38445e+7 
           3710       1.8755e+7 
           3730      2.82285e+7 
           3750      4.33296e+7 
           3770      4.42732e+7 
           3790      5.18747e+7 
           3810      5.73006e+7 
           3830      4.59762e+7 
           3850      5.94176e+7 
           3870      6.15569e+7 
           3890      4.36079e+7 
           3910      5.97445e+7 
           3930      5.13716e+7 
           3950      5.94678e+7 
           3970      3.93631e+7 
           3990      5.88565e+7 
           4010      5.89245e+7 
           4030      5.80628e+7 
           4050       5.7617e+7 
           4070      5.64222e+7 
           4090       5.2908e+7 
           4110      4.18923e+7 
           4130      5.47815e+7 
           4150      5.49678e+7 
           4170      5.35427e+7 
           4190      5.32023e+7 
           4210      5.27044e+7 
           4230      5.18703e+7 
           4250      5.13687e+7 
           4270      5.05911e+7 
           4290       5.0143e+7 
           4310      4.79893e+7 
           4330      4.37152e+7 
           4350      3.78312e+7 
           4370      4.82844e+7 
           4390       4.7259e+7 
           4410      4.63006e+7 
           4430      4.68875e+7 
           4450       4.6309e+7 
           4470      4.57824e+7 
           4490      4.52391e+7 
           4510      4.51517e+7 
           4530      4.41426e+7 
           4550      4.29875e+7 
           4570      4.37178e+7 
           4590      4.27028e+7 
           4610      4.33258e+7 
           4630      4.21404e+7 
           4650      4.23258e+7 
           4670      4.17757e+7 
           4690      4.12438e+7 
           4710      4.00672e+7 
           4730      4.05963e+7 
           4750       4.0352e+7 
           4770      3.97941e+7 
           4790      3.93656e+7 
           4810      3.88777e+7 
           4830      3.82092e+7 
           4850      3.41823e+7 
           4870      2.78772e+7 
           4890      3.68141e+7 
           4910       3.6868e+7 
           4930       3.6106e+7 
           4950      3.61731e+7 
           4970      3.60244e+7 
           4990      3.53973e+7 
           5010      3.45179e+7 
           5030      3.47011e+7 
           5050      3.43041e+7 
           5070      3.41498e+7 
           5090      3.37889e+7 
           5110      3.34557e+7 
           5130      3.29334e+7 
           5150      3.25559e+7 
           5170      3.17478e+7 
           5190       3.1442e+7 
           5210      3.15175e+7 
           5230      3.09188e+7 
           5250      3.11129e+7 
           5270      3.01962e+7 
           5290      3.04961e+7 
           5310      2.99034e+7 
           5330      2.95693e+7 
           5350      2.97395e+7 
           5370      2.92833e+7 
           5390      2.90378e+7 
           5410      2.86781e+7 
           5430      2.83867e+7 
           5450      2.82853e+7 
           5470      2.80398e+7 
           5490      2.78284e+7 
           5510      2.75349e+7 
           5530      2.71562e+7 
           5550      2.70966e+7 
           5570       2.6798e+7 
           5590      2.65427e+7 
           5610      2.63214e+7 
           5630      2.61074e+7 
           5650      2.57884e+7 
           5670      2.55587e+7 
           5690      2.53898e+7 
           5710      2.51614e+7 
           5730      2.49563e+7 
           5750      2.47157e+7 
           5770      2.44972e+7 
           5790      2.42664e+7 
           5810      2.40516e+7 
           5830      2.38326e+7 
           5850      2.36204e+7 
           5870      2.34072e+7 
           5890      2.29792e+7 
           5910      2.29944e+7 
           5930       2.2786e+7 
           5950      2.25766e+7 
           5970      2.23907e+7 
           5990      2.21617e+7 
           6010      2.19737e+7 
           6030       2.1794e+7 
           6050      2.16049e+7 
           6070       2.1428e+7 
           6090      2.12286e+7 
           6110      2.10353e+7 
           6130      2.08301e+7 
           6150      2.05156e+7 
           6170      2.04689e+7 
           6190      2.03319e+7 
           6210       2.0164e+7 
           6230      1.99678e+7 
           6250      1.96271e+7 
           6270      1.96554e+7 
           6290      1.94868e+7 
           6310      1.92792e+7 
           6330      1.91463e+7 
           6350      1.89138e+7 
           6370      1.87636e+7 
           6390      1.86648e+7 
           6410      1.84697e+7 
           6430       1.8344e+7 
           6450      1.80955e+7 
           6470      1.80558e+7 
           6490      1.78123e+7 
           6510      1.76684e+7 
           6530      1.74375e+7 
           6550      1.60729e+7 
           6570      1.27319e+7 
           6590      1.68161e+7 
           6610      1.69447e+7 
           6630      1.68752e+7 
           6650      1.67738e+7 
           6670      1.66344e+7 
           6690      1.65065e+7 
           6710      1.63756e+7 
           6730       1.6241e+7 
           6750      1.61069e+7 
           6770      1.59905e+7 
           6790       1.5858e+7 
           6810      1.57349e+7 
           6830      1.55985e+7 
           6850      1.54819e+7 
           6870      1.53631e+7 
           6890      1.52423e+7 
           6910      1.51218e+7 
           6930      1.50017e+7 
           6950      1.48851e+7 
           6970      1.47672e+7 
           6990      1.46543e+7 
           7010      1.45218e+7 
           7030      1.44217e+7 
           7050      1.43142e+7 
           7070      1.42047e+7 
           7090       1.4097e+7 
           7110      1.39209e+7 
           7130      1.38674e+7 
           7150      1.37656e+7 
           7170      1.36632e+7 
           7190      1.35502e+7 
           7210      1.34483e+7 
           7230      1.33372e+7 
           7250       1.3248e+7 
           7270      1.31531e+7 
           7290       1.3042e+7 
           7310      1.29299e+7 
           7330      1.28461e+7 
           7350       1.2756e+7 
           7370      1.26689e+7 
           7390      1.25673e+7 
           7410      1.24632e+7 
           7430      1.23675e+7 
           7450      1.22781e+7 
           7470      1.21638e+7 
           7490      1.20889e+7 
           7510      1.20059e+7 
           7530      1.19296e+7 
           7550      1.18499e+7 
           7570      1.17572e+7 
           7590       1.1675e+7 
           7610      1.15903e+7 
           7630      1.15057e+7 
           7650      1.14147e+7 
           7670      1.13296e+7 
           7690      1.12536e+7 
           7710      1.11534e+7 
           7730      1.10933e+7 
           7750      1.10123e+7 
           7770      1.07691e+7 
           7790      1.08572e+7 
           7810      1.07789e+7 
           7830       1.0695e+7 
           7850      1.06112e+7 
           7870      1.05281e+7 
           7890      1.04434e+7 
           7910      1.03906e+7 
           7930      1.03173e+7 
           7950      1.02381e+7 
           7970       1.0182e+7 
           7990      1.00815e+7 
           8010      1.00359e+7 
           8030      9.96321e+6 
           8050      9.89632e+6 
           8070      9.82593e+6 
           8090      9.75726e+6 
           8110      9.69258e+6 
           8130      9.62614e+6 
           8150      9.55911e+6 
           8170      9.49261e+6 
           8190      9.38958e+6 
           8210      9.37127e+6 
           8230       9.3091e+6 
           8250      9.23247e+6 
           8270        9.211e+6 
           8290      9.13427e+6 
           8310      9.03634e+6 
           8330      8.89256e+6 
           8350      8.92296e+6 
           8370      8.68248e+6 
           8390      8.73211e+6 
           8410      8.68211e+6 
           8430      8.92192e+6 
           8450      8.80429e+6 
           8470      8.48077e+6 
           8490      9.29592e+6 
           8510      8.33933e+6 
           8530      9.46472e+6 
           8550      8.04298e+6 
           8570      9.67049e+6 
           8590      9.08432e+6 
           8610      8.80992e+6 
           8630      9.94621e+6 
           8650      9.76282e+6 
           8670      7.88853e+6 
           8690      9.80535e+6 
           8710      9.92772e+6 
           8730      9.74338e+6 
           8750      7.88715e+6 
           8770      9.43233e+6 
           8790      9.66787e+6 
           8810      9.58908e+6 
           8830      9.48191e+6 
           8850      9.02496e+6 
           8870      7.66178e+6 
           8890      9.25139e+6 
           8910      9.23173e+6 
           8930      9.18098e+6 
           8950      9.18279e+6 
           8970       9.0974e+6 
           8990      8.95815e+6 
           9010       7.5188e+6 
           9030      8.28019e+6 
           9050      8.81584e+6 
           9070      8.67305e+6 
           9090      8.54511e+6 
           9110      8.62656e+6 
           9130      8.62361e+6 
           9150       8.5747e+6 
           9170      8.50777e+6 
           9190      8.41547e+6 
           9210      8.18043e+6 
           9230      6.65743e+6 
           9250      7.96234e+6 
           9270      8.07357e+6 
           9290      8.16936e+6 
           9310      8.12082e+6 
           9330      8.06311e+6 
           9350      8.01227e+6 
           9370      7.96008e+6 
           9390      7.89246e+6 
           9410      7.74918e+6 
           9430      7.78582e+6 
           9450       7.7432e+6 
           9470       7.6954e+6 
           9490      7.64292e+6 
