# Kurucz ODFNEW /NOVER (2003)
# teff = 9500 K (value for the effective temperature for the model. Temperatures are given in K)
# logg = 3 log(cm/s2) (value for Log(G) for the model.)
# meta = -1.5  (value for the Metallicity for the model.)
# lh = 1.25  (l/Hp where l is the  mixing length of the convective element and Hp is the pressure scale height)
# vtur = 2 km/s (Microturbulence velocity)
# alpha = 0  (Alpha)
#
# column 1: WAVELENGTH (ANGSTROM), Wavelength in Angstrom
# column 2: FLUX (ERG/CM2/S/A), Flux in erg/cm2/s/A
            264     1.99619e-23 
          268.5     1.17253e-22 
          273.5     5.28967e-22 
          278.5     2.17026e-21 
            284     9.64243e-21 
            290     4.58839e-20 
            296     2.04411e-19 
            301     6.78355e-19 
            308     3.40146e-18 
            318      3.0006e-17 
            328     2.31131e-16 
            338     1.57196e-15 
            348     9.55076e-15 
            357     4.43063e-14 
            366      1.9026e-13 
            375     7.59701e-13 
            385     3.27206e-12 
            395     1.30513e-11 
            405      4.8508e-11 
            414     1.49462e-10 
            422     3.89625e-10 
            430     9.78743e-10 
            441      3.28184e-9 
            451      9.34188e-9 
            460      2.30008e-8 
            470      6.00072e-8 
            480      1.50118e-7 
            490      3.61149e-7 
            500      8.37108e-7 
            506      1.65076e-6 
            512      2.85051e-6 
            520      5.24133e-6 
            530      1.09775e-5 
            540      2.21206e-5 
            550      4.37903e-5 
            560      8.41022e-5 
            570     0.000157661 
            580     0.000287251 
            590     0.000517594 
            600     0.000908818 
            610      0.00156463 
            620      0.00264328 
            630       0.0043872 
            640      0.00715915 
            650       0.0114972 
            658       0.0166088 
            665       0.0227354 
            675       0.0351755 
            685       0.0536827 
            695       0.0808639 
            705        0.120267 
            716        0.183568 
            726        0.266389 
            735        0.368964 
            745        0.524608 
            755        0.738357 
            765         1.02914 
            775         1.42118 
            785         1.94489 
            795         2.63855 
            805         3.55036 
            815         4.73906 
            825          6.2773 
            835         8.25241 
            845         10.7744 
            855         13.9689 
            865         17.9905 
            875         23.0223 
            885         29.2817 
            895         37.0204 
            905         46.5217 
            915         229.536 
            925         1342.47 
            935         2241.05 
            945         4143.27 
            955         7274.56 
            965         9747.29 
            975         6146.96 
            985          113136 
            995          892522 
           1005          519314 
           1015         24969.1 
           1025         10419.5 
           1035         29571.4 
           1045          774865 
           1055      3.98248e+6 
           1065      6.02714e+6 
           1075      8.53067e+6 
           1085      9.88814e+6 
           1095      9.87991e+6 
           1105      2.13997e+7 
           1115      4.61751e+7 
           1125      4.94001e+7 
           1135      5.06537e+7 
           1145       4.3632e+7 
           1155       3.5125e+7 
           1165      2.69765e+7 
           1175       1.3686e+7 
           1185      1.40382e+7 
           1195          101612 
           1205         70368.3 
           1215         23580.5 
           1225         76793.2 
           1235          146453 
           1245      1.54559e+6 
           1255      1.11577e+7 
           1265      2.07779e+7 
           1275       3.7582e+7 
           1285      5.48864e+7 
           1295       6.0925e+7 
           1305      5.43164e+7 
           1315      7.34167e+7 
           1325      8.09669e+7 
           1335      8.34006e+7 
           1345      9.33793e+7 
           1355      8.99747e+7 
           1365      8.58285e+7 
           1375       8.9889e+7 
           1385      9.12352e+7 
           1395      9.18716e+7 
           1405      9.73129e+7 
           1415      9.65463e+7 
           1425       9.8964e+7 
           1435      9.32921e+7 
           1442      1.00857e+8 
           1447      1.03441e+8 
           1455      1.04316e+8 
           1465      1.00321e+8 
           1475      9.88514e+7 
           1485      9.99828e+7 
           1495       1.0178e+8 
           1505      1.03068e+8 
           1512      1.00961e+8 
           1517      1.03716e+8 
           1525      1.00259e+8 
           1535       9.8882e+7 
           1545      1.01976e+8 
           1555      9.61865e+7 
           1565      8.94008e+7 
           1575      9.25443e+7 
           1585      9.68372e+7 
           1595      9.99138e+7 
           1605      9.51042e+7 
           1615      9.53023e+7 
           1625       8.9569e+7 
           1635      9.14968e+7 
           1645      9.26375e+7 
           1655      8.39264e+7 
           1665      9.22736e+7 
           1672       8.2568e+7 
           1677      8.74266e+7 
           1685      9.18038e+7 
           1695      8.75242e+7 
           1705      8.60937e+7 
           1715       8.7238e+7 
           1725      8.56243e+7 
           1735      8.81218e+7 
           1745      8.62573e+7 
           1755       8.8883e+7 
           1765      8.30643e+7 
           1775      8.77211e+7 
           1785      8.60091e+7 
           1795       8.8823e+7 
           1805      8.62956e+7 
           1815      8.54422e+7 
           1825      8.32291e+7 
           1835      8.27675e+7 
           1845       8.0195e+7 
           1855        8.108e+7 
           1865      8.09147e+7 
           1875       8.2466e+7 
           1885      8.23875e+7 
           1895      8.10944e+7 
           1905      7.95071e+7 
           1915      7.94001e+7 
           1925      7.99172e+7 
           1935      7.86567e+7 
           1945      8.07419e+7 
           1955       7.9913e+7 
           1967      8.00539e+7 
           1976      7.86905e+7 
           1984      7.82409e+7 
           1995      7.70833e+7 
           2005       7.6008e+7 
           2015      7.34953e+7 
           2025      7.39554e+7 
           2035      7.48578e+7 
           2045      7.48437e+7 
           2055       7.2547e+7 
           2065      7.22268e+7 
           2074      7.36148e+7 
           2078      7.41509e+7 
           2085      7.41279e+7 
           2095      7.25679e+7 
           2105      7.24752e+7 
           2115      7.18706e+7 
           2125      7.16496e+7 
           2135      6.76022e+7 
           2145      7.07496e+7 
           2155      7.01862e+7 
           2165      6.80845e+7 
           2175      6.76287e+7 
           2185      6.74546e+7 
           2195      6.97626e+7 
           2205      6.76537e+7 
           2215      6.48005e+7 
           2225      6.41638e+7 
           2235      6.75956e+7 
           2245      6.45923e+7 
           2255      6.32399e+7 
           2265       6.2845e+7 
           2275      6.52693e+7 
           2285      6.56669e+7 
           2295      6.34987e+7 
           2305      6.33226e+7 
           2315      6.25644e+7 
           2325      6.28818e+7 
           2335      6.17404e+7 
           2345      5.82438e+7 
           2355      6.12634e+7 
           2365      5.83951e+7 
           2375      6.01037e+7 
           2385      5.58906e+7 
           2395      5.89662e+7 
           2405      5.76314e+7 
           2415      5.81266e+7 
           2425      5.92408e+7 
           2435      5.74934e+7 
           2445      5.90507e+7 
           2455      5.82006e+7 
           2465      5.73381e+7 
           2475       5.6102e+7 
           2485      5.80063e+7 
           2495      5.67156e+7 
           2505      5.87828e+7 
           2513      5.69863e+7 
           2518      5.71381e+7 
           2525      5.47525e+7 
           2535      5.44023e+7 
           2545      5.44008e+7 
           2555      5.62131e+7 
           2565      5.57534e+7 
           2575      5.73052e+7 
           2585      5.73983e+7 
           2595      5.70631e+7 
           2605      5.57653e+7 
           2615      5.54167e+7 
           2625      5.57279e+7 
           2635      5.61034e+7 
           2645      5.86632e+7 
           2655      5.81473e+7 
           2665      5.64174e+7 
           2675      5.71494e+7 
           2685        5.743e+7 
           2695      5.62317e+7 
           2705       5.6275e+7 
           2715      5.51252e+7 
           2725       5.5112e+7 
           2735      5.64422e+7 
           2745      5.28719e+7 
           2755      5.29355e+7 
           2765      5.41105e+7 
           2775      5.55362e+7 
           2785      5.52546e+7 
           2795      5.07995e+7 
           2805      5.30379e+7 
           2815      5.56521e+7 
           2825      5.51974e+7 
           2835      5.42181e+7 
           2845      5.34559e+7 
           2855       5.2717e+7 
           2865      5.33869e+7 
           2875      5.29706e+7 
           2885      5.36496e+7 
           2895      5.35133e+7 
           2910      5.44979e+7 
           2930      5.32869e+7 
           2950      5.30213e+7 
           2970      5.29802e+7 
           2990      5.27626e+7 
           3010       5.2991e+7 
           3030      5.27944e+7 
           3050      5.23432e+7 
           3070      5.18073e+7 
           3090      5.18372e+7 
           3110      5.13869e+7 
           3130      5.09092e+7 
           3150      5.08001e+7 
           3170      5.05585e+7 
           3190      4.96859e+7 
           3210      4.98621e+7 
           3230      4.93548e+7 
           3250      4.93449e+7 
           3270      4.93139e+7 
           3290      4.91512e+7 
           3310      4.89682e+7 
           3330      4.84667e+7 
           3350      4.79199e+7 
           3370      4.77841e+7 
           3390      4.74973e+7 
           3410      4.75508e+7 
           3430      4.72541e+7 
           3450      4.70781e+7 
           3470      4.67466e+7 
           3490      4.65124e+7 
           3510      4.63508e+7 
           3530      4.61506e+7 
           3550       4.5904e+7 
           3570      4.55951e+7 
           3590      4.53457e+7 
           3610       4.5102e+7 
           3630      4.48494e+7 
           3640      4.47113e+7 
           3650      4.51651e+7 
           3670      4.46686e+7 
           3690      4.32312e+7 
           3710      4.93544e+7 
           3730       5.6568e+7 
           3750      8.18075e+7 
           3770      8.75976e+7 
           3790      1.05774e+8 
           3810      1.20329e+8 
           3830       9.6018e+7 
           3850      1.29228e+8 
           3870      1.39831e+8 
           3890      8.40241e+7 
           3910      1.36876e+8 
           3930      1.38019e+8 
           3950       1.3427e+8 
           3970      7.96274e+7 
           3990      1.28762e+8 
           4010      1.33248e+8 
           4030      1.31563e+8 
           4050      1.30136e+8 
           4070      1.27059e+8 
           4090      1.07444e+8 
           4110      8.28323e+7 
           4130      1.20889e+8 
           4150      1.21544e+8 
           4170      1.20247e+8 
           4190      1.18859e+8 
           4210      1.17303e+8 
           4230      1.15613e+8 
           4250      1.14104e+8 
           4270      1.12501e+8 
           4290      1.10721e+8 
           4310      1.07768e+8 
           4330      8.74385e+7 
           4350      7.43504e+7 
           4370      1.03418e+8 
           4390      1.03354e+8 
           4410      1.02595e+8 
           4430      1.01503e+8 
           4450      1.00251e+8 
           4470      9.87409e+7 
           4490      9.69999e+7 
           4510      9.63322e+7 
           4530        9.512e+7 
           4550       9.3636e+7 
           4570       9.2829e+7 
           4590      9.15444e+7 
           4610      9.06596e+7 
           4630      8.93473e+7 
           4650      8.84254e+7 
           4670      8.73224e+7 
           4690      8.62247e+7 
           4710      8.49403e+7 
           4730      8.41613e+7 
           4750      8.31384e+7 
           4770      8.21298e+7 
           4790      8.09889e+7 
           4810      7.97404e+7 
           4830      7.77669e+7 
           4850      6.49709e+7 
           4870      5.26172e+7 
           4890      7.42585e+7 
           4910      7.49924e+7 
           4930      7.42379e+7 
           4950       7.3713e+7 
           4970      7.28693e+7 
           4990      7.20019e+7 
           5010      7.09945e+7 
           5030      7.03253e+7 
           5050      6.94163e+7 
           5070      6.87202e+7 
           5090      6.79341e+7 
           5110      6.71451e+7 
           5130      6.63792e+7 
           5150       6.5616e+7 
           5170      6.46414e+7 
           5190      6.40281e+7 
           5210      6.34098e+7 
           5230      6.26227e+7 
           5250      6.19948e+7 
           5270      6.12213e+7 
           5290      6.06179e+7 
           5310      5.98802e+7 
           5330      5.92579e+7 
           5350      5.86328e+7 
           5370      5.79734e+7 
           5390      5.73404e+7 
           5410      5.67036e+7 
           5430      5.60848e+7 
           5450      5.54874e+7 
           5470      5.48822e+7 
           5490      5.42894e+7 
           5510      5.37011e+7 
           5530      5.31175e+7 
           5550      5.25605e+7 
           5570      5.19943e+7 
           5590      5.14397e+7 
           5610       5.0894e+7 
           5630      5.03548e+7 
           5650      4.98183e+7 
           5670      4.92941e+7 
           5690      4.87783e+7 
           5710      4.82673e+7 
           5730      4.77623e+7 
           5750      4.72642e+7 
           5770      4.67731e+7 
           5790      4.62864e+7 
           5810      4.58098e+7 
           5830      4.53365e+7 
           5850      4.48707e+7 
           5870      4.43522e+7 
           5890      4.39332e+7 
           5910      4.35091e+7 
           5930      4.30672e+7 
           5950      4.26249e+7 
           5970      4.21981e+7 
           5990      4.17667e+7 
           6010      4.13546e+7 
           6030      4.09398e+7 
           6050      4.05306e+7 
           6070       4.0128e+7 
           6090      3.97288e+7 
           6110      3.93349e+7 
           6130      3.89463e+7 
           6150       3.8538e+7 
           6170      3.81827e+7 
           6190      3.78095e+7 
           6210      3.74403e+7 
           6230      3.70742e+7 
           6250      3.66984e+7 
           6270      3.63583e+7 
           6290      3.60065e+7 
           6310      3.56566e+7 
           6330      3.53159e+7 
           6350      3.49294e+7 
           6370      3.46185e+7 
           6390      3.43108e+7 
           6410      3.39824e+7 
           6430      3.36611e+7 
           6450      3.33286e+7 
           6470      3.30275e+7 
           6490      3.26283e+7 
           6510      3.22299e+7 
           6530      3.15858e+7 
           6550      2.83813e+7 
           6570      2.28508e+7 
           6590      3.01822e+7 
           6610      3.06706e+7 
           6630      3.05347e+7 
           6650      3.03334e+7 
           6670      3.00739e+7 
           6690      2.97992e+7 
           6710      2.95307e+7 
           6730      2.92589e+7 
           6750       2.8994e+7 
           6770      2.87309e+7 
           6790      2.84704e+7 
           6810      2.82124e+7 
           6830      2.79578e+7 
           6850      2.77064e+7 
           6870      2.74576e+7 
           6890      2.72111e+7 
           6910      2.69678e+7 
           6930      2.67269e+7 
           6950      2.64898e+7 
           6970       2.6255e+7 
           6990      2.60225e+7 
           7010      2.57907e+7 
           7030      2.55648e+7 
           7050      2.53397e+7 
           7070      2.51158e+7 
           7090      2.48994e+7 
           7110      2.46761e+7 
           7130      2.44667e+7 
           7150      2.42533e+7 
           7170      2.40442e+7 
           7190      2.38363e+7 
           7210      2.36311e+7 
           7230      2.34263e+7 
           7250      2.32262e+7 
           7270      2.30273e+7 
           7290      2.28296e+7 
           7310       2.2635e+7 
           7330      2.24437e+7 
           7350      2.22533e+7 
           7370      2.20655e+7 
           7390      2.18786e+7 
           7410      2.16941e+7 
           7430      2.15099e+7 
           7450      2.13301e+7 
           7470      2.11492e+7 
           7490      2.09746e+7 
           7510      2.08002e+7 
           7530      2.06288e+7 
           7550      2.04582e+7 
           7570      2.02884e+7 
           7590      2.01208e+7 
           7610      1.99553e+7 
           7630      1.97913e+7 
           7650      1.96287e+7 
           7670      1.94682e+7 
           7690      1.93091e+7 
           7710      1.91508e+7 
           7730      1.89963e+7 
           7750      1.88426e+7 
           7770      1.85772e+7 
           7790      1.85385e+7 
           7810      1.83893e+7 
           7830      1.82414e+7 
           7850      1.80941e+7 
           7870      1.79427e+7 
           7890      1.77925e+7 
           7910      1.76641e+7 
           7930      1.75236e+7 
           7950      1.73819e+7 
           7970      1.72468e+7 
           7990       1.7098e+7 
           8010      1.69757e+7 
           8030      1.68416e+7 
           8050      1.67097e+7 
           8070      1.65784e+7 
           8090      1.64488e+7 
           8110      1.63202e+7 
           8130      1.61933e+7 
           8150      1.60674e+7 
           8170      1.59425e+7 
           8190      1.58148e+7 
           8210      1.57814e+7 
           8230      1.56676e+7 
           8250      1.55596e+7 
           8270      1.54574e+7 
           8290      1.53468e+7 
           8310      1.52331e+7 
           8330      1.51025e+7 
           8350      1.49708e+7 
           8370      1.47951e+7 
           8390      1.46384e+7 
           8410      1.44496e+7 
           8430      1.44203e+7 
           8450      1.43384e+7 
           8470      1.37136e+7 
           8490      1.45371e+7 
           8510      1.33301e+7 
           8530      1.46791e+7 
           8550      1.26723e+7 
           8570      1.49184e+7 
           8590      1.36089e+7 
           8610      1.31763e+7 
           8630      1.52008e+7 
           8650      1.45858e+7 
           8670      1.17291e+7 
           8690      1.50485e+7 
           8710      1.54875e+7 
           8730      1.49149e+7 
           8750      1.13645e+7 
           8770      1.41252e+7 
           8790      1.51825e+7 
           8810      1.51821e+7 
           8830       1.4908e+7 
           8850      1.34006e+7 
           8870      1.10538e+7 
           8890      1.42212e+7 
           8910      1.46007e+7 
           8930       1.4567e+7 
           8950      1.44728e+7 
           8970      1.42951e+7 
           8990       1.3812e+7 
           9010      1.09069e+7 
           9030      1.20622e+7 
           9050      1.36805e+7 
           9070      1.37805e+7 
           9090      1.37045e+7 
           9110      1.36552e+7 
           9130      1.35634e+7 
           9150      1.34551e+7 
           9170      1.33221e+7 
