# Kurucz ODFNEW /NOVER (2003)
# teff = 6750 K (value for the effective temperature for the model. Temperatures are given in K)
# logg = 0.5 log(cm/s2) (value for Log(G) for the model.)
# meta = -2  (value for the Metallicity for the model.)
# lh = 1.25  (l/Hp where l is the  mixing length of the convective element and Hp is the pressure scale height)
# vtur = 2 km/s (Microturbulence velocity)
# alpha = 0  (Alpha)
#
# column 1: WAVELENGTH (ANGSTROM), Wavelength in Angstrom
# column 2: FLUX (ERG/CM2/S/A), Flux in erg/cm2/s/A
            405     4.15694e-23 
            414     2.54177e-22 
            422     1.12291e-21 
            430     4.66032e-21 
            441      3.0211e-20 
            451     3.84877e-21 
            460     1.44589e-20 
            470     5.90965e-20 
            480     2.26839e-19 
            490     8.21681e-19 
            500     2.81492e-18 
            506     2.40161e-16 
            512      7.0095e-16 
            520     1.82332e-15 
            530     1.26037e-16 
            540     3.53009e-16 
            550     9.61239e-16 
            560       2.504e-15 
            570     6.28984e-15 
            580     1.50961e-14 
            590      3.5858e-14 
            600     8.16655e-14 
            610     1.80609e-13 
            620     3.88412e-13 
            630     8.13419e-13 
            640      1.6619e-12 
            650     3.31486e-12 
            658     5.66446e-12 
            665     8.94746e-12 
            675     1.68849e-11 
            685     3.12166e-11 
            695     5.66032e-11 
            705     1.00726e-10 
            716     1.86029e-10 
            726     3.19159e-10 
            735      5.1172e-10 
            745     8.52049e-10 
            755      1.39747e-9 
            765      2.25919e-9 
            775      3.60199e-9 
            785      5.66697e-9 
            795      8.80034e-9 
            805      1.35048e-8 
            815      2.04772e-8 
            825      3.07013e-8 
            835       4.5536e-8 
            845      6.68276e-8 
            855      9.70857e-8 
            865       1.3967e-7 
            875      1.99026e-7 
            885      2.81085e-7 
            895      3.93494e-7 
            905      5.46126e-7 
            915      0.00567912 
            925       0.0220474 
            935       0.0273567 
            945       0.0412712 
            955       0.0610558 
            965       0.0717919 
            975       0.0667879 
            985         0.14128 
            995        0.174048 
           1005        0.218874 
           1015        0.204753 
           1025        0.266455 
           1035        0.446389 
           1045        0.629144 
           1055        0.811355 
           1065        0.995278 
           1075         1.25218 
           1085         1.55031 
           1095         1.85417 
           1105         4.48364 
           1115         10.0156 
           1125         11.4672 
           1135         12.8788 
           1145         12.9045 
           1155         11.2909 
           1165         10.8645 
           1175         8.93836 
           1185         45.5571 
           1195         5.02376 
           1205         3.02338 
           1215         1.00938 
           1225         3.69593 
           1235          9.5485 
           1245         11.3493 
           1255         22.3023 
           1265         35.3699 
           1275         50.4623 
           1285         74.1652 
           1295         102.039 
           1305          130.13 
           1315          179.43 
           1325          229.09 
           1335         294.497 
           1345         379.161 
           1355         463.437 
           1365         585.892 
           1375         718.698 
           1385         878.336 
           1395         1064.24 
           1405         1283.92 
           1415         1513.65 
           1425         1764.18 
           1435         1997.78 
           1442         2334.44 
           1447         2506.18 
           1455         2917.35 
           1465         3308.59 
           1475         3888.12 
           1485         4719.49 
           1495         5770.05 
           1505         6968.84 
           1512         7628.87 
           1517          7353.9 
           1525          8265.9 
           1535         11333.1 
           1545         14245.5 
           1555         15034.1 
           1565         14169.5 
           1575         17121.7 
           1585         19104.7 
           1595         21762.4 
           1605         23400.6 
           1615         32149.2 
           1625         47559.4 
           1635         76984.2 
           1645          133525 
           1655         96382.2 
           1665          208299 
           1672          121990 
           1677          273619 
           1685          343621 
           1695          370275 
           1705          372061 
           1715          456229 
           1725          485632 
           1735          568193 
           1745          561155 
           1755          667014 
           1765          591102 
           1775          687186 
           1785          714908 
           1795          859584 
           1805          797751 
           1815          874069 
           1825          811208 
           1835          877720 
           1845          826375 
           1855          899020 
           1865          954641 
           1875      1.00398e+6 
           1885      1.05259e+6 
           1895      1.10825e+6 
           1905      1.06561e+6 
           1915      1.19011e+6 
           1925      1.25677e+6 
           1935      1.14924e+6 
           1945      1.37127e+6 
           1955       1.4044e+6 
           1967      1.50182e+6 
           1976      1.48952e+6 
           1984      1.50376e+6 
           1995       1.5052e+6 
           2005      1.49388e+6 
           2015      1.51695e+6 
           2025       1.4568e+6 
           2035      1.62919e+6 
           2045       1.7513e+6 
           2055      1.70379e+6 
           2065      1.68724e+6 
           2074      1.92539e+6 
           2078      1.96841e+6 
           2085      1.95435e+6 
           2095      1.92286e+6 
           2105      1.90141e+6 
           2115       1.9559e+6 
           2125      2.02672e+6 
           2135       1.7271e+6 
           2145      1.99917e+6 
           2155      2.05123e+6 
           2165      1.98635e+6 
           2175      2.01408e+6 
           2185      2.11287e+6 
           2195      2.31549e+6 
           2205      2.25758e+6 
           2215      2.09726e+6 
           2225       2.1534e+6 
           2235      2.47273e+6 
           2245      2.25909e+6 
           2255      2.20236e+6 
           2265      2.20065e+6 
           2275       2.4447e+6 
           2285      2.53143e+6 
           2295      2.41164e+6 
           2305      2.51861e+6 
           2315      2.53647e+6 
           2325      2.52731e+6 
           2335      2.32793e+6 
           2345      2.03655e+6 
           2355      2.62439e+6 
           2365      2.16922e+6 
           2375      2.53456e+6 
           2385      1.93709e+6 
           2395        2.307e+6 
           2405      2.25079e+6 
           2415      2.41364e+6 
           2425      2.86502e+6 
           2435       2.8402e+6 
           2445      2.99895e+6 
           2455      2.95788e+6 
           2465      2.97262e+6 
           2475      2.85935e+6 
           2485       2.9975e+6 
           2495      2.97255e+6 
           2505       3.3406e+6 
           2513      3.00224e+6 
           2518      3.09253e+6 
           2525      2.88886e+6 
           2535      2.84542e+6 
           2545      2.92256e+6 
           2555      3.15481e+6 
           2565      3.14343e+6 
           2575      3.39343e+6 
           2585       3.3608e+6 
           2595      3.27396e+6 
           2605      3.13124e+6 
           2615       3.0593e+6 
           2625      3.43077e+6 
           2635       3.5904e+6 
           2645      4.18176e+6 
           2655      4.20071e+6 
           2665      3.92228e+6 
           2675      4.08512e+6 
           2685      4.16208e+6 
           2695       3.9717e+6 
           2705      4.07316e+6 
           2715      3.86991e+6 
           2725      3.94749e+6 
           2735      4.23576e+6 
           2745      3.45645e+6 
           2755      3.74648e+6 
           2765      3.99701e+6 
           2775      4.34676e+6 
           2785      4.25931e+6 
           2795      2.64607e+6 
           2805      3.09733e+6 
           2815      4.61362e+6 
           2825      4.69039e+6 
           2835      4.59614e+6 
           2845      4.54196e+6 
           2855      4.35865e+6 
           2865      4.63372e+6 
           2875      4.58012e+6 
           2885      4.73898e+6 
           2895      4.64291e+6 
           2910      5.07965e+6 
           2930      5.02063e+6 
           2950      5.03547e+6 
           2970      5.18057e+6 
           2990      5.28764e+6 
           3010      5.40638e+6 
           3030      5.47476e+6 
           3050      5.51578e+6 
           3070      5.52849e+6 
           3090      5.70217e+6 
           3110      5.64621e+6 
           3130      5.67157e+6 
           3150      5.84505e+6 
           3170      5.90611e+6 
           3190      5.74122e+6 
           3210      5.92034e+6 
           3230      5.85195e+6 
           3250      6.01911e+6 
           3270      6.11376e+6 
           3290      6.25649e+6 
           3310      6.34651e+6 
           3330      6.28647e+6 
           3350      6.23647e+6 
           3370      6.30862e+6 
           3390      6.35734e+6 
           3410      6.53245e+6 
           3430      6.61051e+6 
           3450      6.61955e+6 
           3470      6.59321e+6 
           3490      6.62612e+6 
           3510      6.77832e+6 
           3530      6.86801e+6 
           3550      6.94659e+6 
           3570      6.84917e+6 
           3590      6.87976e+6 
           3610      6.94828e+6 
           3630      7.03117e+6 
           3640      6.98918e+6 
           3650      7.12541e+6 
           3670      7.24235e+6 
           3690       8.2622e+6 
           3710      1.13675e+7 
           3730      1.71302e+7 
           3750      2.45546e+7 
           3770      2.52601e+7 
           3790      2.91593e+7 
           3810      3.22642e+7 
           3830      2.63962e+7 
           3850      3.36864e+7 
           3870       3.5027e+7 
           3890      2.49309e+7 
           3910      3.42524e+7 
           3930      3.03922e+7 
           3950      3.41417e+7 
           3970      2.29993e+7 
           3990      3.36522e+7 
           4010      3.39336e+7 
           4030      3.35489e+7 
           4050      3.32826e+7 
           4070      3.26107e+7 
           4090      3.03129e+7 
           4110      2.45591e+7 
           4130      3.18798e+7 
           4150      3.19014e+7 
           4170      3.13362e+7 
           4190      3.11214e+7 
           4210      3.07563e+7 
           4230      3.03651e+7 
           4250        3.013e+7 
           4270      2.98588e+7 
           4290      2.95134e+7 
           4310      2.84472e+7 
           4330      2.59024e+7 
           4350      2.27242e+7 
           4370      2.85374e+7 
           4390      2.80923e+7 
           4410      2.76734e+7 
           4430      2.79981e+7 
           4450      2.75777e+7 
           4470      2.73333e+7 
           4490      2.71296e+7 
           4510      2.68914e+7 
           4530      2.64856e+7 
           4550      2.59584e+7 
           4570      2.61701e+7 
           4590      2.58245e+7 
           4610      2.59962e+7 
           4630      2.54927e+7 
           4650      2.55091e+7 
           4670      2.52565e+7 
           4690      2.50398e+7 
           4710       2.4578e+7 
           4730      2.46349e+7 
           4750      2.44613e+7 
           4770      2.42103e+7 
           4790      2.39872e+7 
           4810      2.37507e+7 
           4830      2.33977e+7 
           4850      2.12496e+7 
           4870      1.77985e+7 
           4890      2.26616e+7 
           4910      2.27087e+7 
           4930      2.23063e+7 
           4950      2.23508e+7 
           4970      2.22384e+7 
           4990      2.19803e+7 
           5010      2.15711e+7 
           5030      2.16321e+7 
           5050       2.1436e+7 
           5070      2.13009e+7 
           5090      2.11121e+7 
           5110      2.09399e+7 
           5130      2.07125e+7 
           5150      2.05221e+7 
           5170      2.00761e+7 
           5190      1.99329e+7 
           5210      1.99648e+7 
           5230      1.96801e+7 
           5250      1.97464e+7 
           5270      1.93364e+7 
           5290      1.94207e+7 
           5310      1.91517e+7 
           5330      1.89817e+7 
           5350      1.89822e+7 
           5370      1.87653e+7 
           5390      1.86354e+7 
           5410      1.84657e+7 
           5430      1.83082e+7 
           5450      1.82033e+7 
           5470      1.80855e+7 
           5490      1.79565e+7 
           5510      1.78115e+7 
           5530      1.76286e+7 
           5550      1.75532e+7 
           5570      1.74006e+7 
           5590      1.72595e+7 
           5610      1.71342e+7 
           5630      1.70151e+7 
           5650      1.68618e+7 
           5670      1.67337e+7 
           5690      1.66256e+7 
           5710      1.64954e+7 
           5730      1.63782e+7 
           5750      1.62519e+7 
           5770      1.61293e+7 
           5790      1.60057e+7 
           5810      1.58856e+7 
           5830      1.57668e+7 
           5850      1.56438e+7 
           5870      1.55297e+7 
           5890      1.53017e+7 
           5910      1.52987e+7 
           5930      1.51839e+7 
           5950      1.50724e+7 
           5970       1.4961e+7 
           5990      1.48455e+7 
           6010      1.47375e+7 
           6030      1.46295e+7 
           6050      1.45237e+7 
           6070      1.44189e+7 
           6090      1.43122e+7 
           6110      1.42045e+7 
           6130      1.40909e+7 
           6150      1.39576e+7 
           6170       1.3887e+7 
           6190      1.37994e+7 
           6210      1.37029e+7 
           6230      1.35975e+7 
           6250      1.34557e+7 
           6270      1.34093e+7 
           6290      1.33127e+7 
           6310      1.32086e+7 
           6330      1.31215e+7 
           6350      1.30212e+7 
           6370      1.29284e+7 
           6390      1.28449e+7 
           6410      1.27428e+7 
           6430      1.26582e+7 
           6450      1.25436e+7 
           6470      1.24851e+7 
           6490      1.23626e+7 
           6510      1.22663e+7 
           6530      1.21162e+7 
           6550      1.13241e+7 
           6570      9.17192e+6 
           6590      1.17526e+7 
           6610      1.18316e+7 
           6630      1.17903e+7 
           6650      1.17289e+7 
           6670      1.16477e+7 
           6690      1.15697e+7 
           6710        1.149e+7 
           6730      1.14118e+7 
           6750      1.13319e+7 
           6770      1.12576e+7 
           6790      1.11799e+7 
           6810      1.11046e+7 
           6830      1.10276e+7 
           6850      1.09536e+7 
           6870      1.08804e+7 
           6890      1.08078e+7 
           6910       1.0735e+7 
           6930      1.06622e+7 
           6950      1.05908e+7 
           6970      1.05192e+7 
           6990      1.04499e+7 
           7010      1.03765e+7 
           7030      1.03092e+7 
           7050      1.02424e+7 
           7070       1.0174e+7 
           7090       1.0107e+7 
           7110      1.00278e+7 
           7130       9.9709e+6 
           7150      9.90635e+6 
           7170      9.84163e+6 
           7190      9.77457e+6 
           7210      9.70955e+6 
           7230      9.64581e+6 
           7250       9.5855e+6 
           7270      9.52357e+6 
           7290      9.45862e+6 
           7310      9.39425e+6 
           7330      9.33464e+6 
           7350      9.27624e+6 
           7370      9.21833e+6 
           7390      9.15677e+6 
           7410      9.09506e+6 
           7430      9.03729e+6 
           7450      8.97865e+6 
           7470      8.91714e+6 
           7490      8.86152e+6 
           7510      8.80637e+6 
           7530      8.75234e+6 
           7550       8.6981e+6 
           7570      8.64168e+6 
           7590      8.58705e+6 
           7610      8.53221e+6 
           7630      8.47848e+6 
           7650      8.42326e+6 
           7670      8.36851e+6 
           7690      8.31803e+6 
           7710      8.25972e+6 
           7730      8.21262e+6 
           7750      8.16088e+6 
           7770       8.0665e+6 
           7790      8.05928e+6 
           7810      8.00941e+6 
           7830      7.95748e+6 
           7850       7.9066e+6 
           7870      7.85734e+6 
           7890      7.80666e+6 
           7910      7.76061e+6 
           7930      7.71133e+6 
           7950      7.66364e+6 
           7970       7.6187e+6 
           7990      7.56939e+6 
           8010      7.52401e+6 
           8030      7.47781e+6 
           8050       7.4314e+6 
           8070      7.38593e+6 
           8090      7.34025e+6 
           8110      7.29607e+6 
           8130      7.25167e+6 
           8150      7.20705e+6 
           8170      7.16277e+6 
           8190      7.11042e+6 
           8210      7.08588e+6 
           8230      7.04481e+6 
           8250      6.99797e+6 
           8270      6.96085e+6 
           8290      6.91031e+6 
           8310      6.83999e+6 
           8330       6.7643e+6 
           8350      6.78921e+6 
           8370      6.62398e+6 
           8390      6.68235e+6 
           8410       6.6538e+6 
           8430      6.80833e+6 
           8450       6.7524e+6 
           8470      6.54831e+6 
           8490      7.00461e+6 
           8510      6.45308e+6 
           8530      7.08145e+6 
           8550      6.29184e+6 
           8570      7.17759e+6 
           8590      6.88587e+6 
           8610      6.69485e+6 
           8630      7.29868e+6 
           8650      7.19901e+6 
           8670       6.1725e+6 
           8690      7.21171e+6 
           8710      7.24318e+6 
           8730      7.14231e+6 
           8750      6.15511e+6 
           8770      6.96906e+6 
           8790      7.07049e+6 
           8810      7.02726e+6 
           8830      6.97131e+6 
           8850      6.73926e+6 
           8870      5.97916e+6 
           8890      6.81603e+6 
           8910      6.81014e+6 
           8930      6.77353e+6 
           8950      6.75364e+6 
           8970      6.70389e+6 
           8990      6.62329e+6 
           9010      5.83378e+6 
           9030      6.27644e+6 
           9050      6.52242e+6 
           9070      6.46209e+6 
           9090      6.38171e+6 
           9110      6.40773e+6 
           9130      6.39415e+6 
           9150      6.35678e+6 
           9170      6.31743e+6 
           9190      6.26588e+6 
           9210      6.14054e+6 
           9230      5.31135e+6 
           9250      6.02459e+6 
           9270      6.09507e+6 
           9290      6.09461e+6 
           9310      6.05976e+6 
           9330      6.02342e+6 
           9350      5.98777e+6 
           9370      5.95279e+6 
           9390      5.91635e+6 
           9410      5.83975e+6 
           9430      5.84466e+6 
           9450      5.81235e+6 
           9470      5.77943e+6 
           9490      5.74589e+6 
           9510      5.69551e+6 
           9530      5.56792e+6 
