# Kurucz ODFNEW /NOVER (2003)
# teff = 7500 K (value for the effective temperature for the model. Temperatures are given in K)
# logg = 1.5 log(cm/s2) (value for Log(G) for the model.)
# meta = -0.5  (value for the Metallicity for the model.)
# lh = 1.25  (l/Hp where l is the  mixing length of the convective element and Hp is the pressure scale height)
# vtur = 2 km/s (Microturbulence velocity)
# alpha = 0.4  (Alpha)
#
# column 1: WAVELENGTH (ANGSTROM), Wavelength in Angstrom
# column 2: FLUX (ERG/CM2/S/A), Flux in erg/cm2/s/A
            385     3.74353e-24 
            395     2.60143e-23 
            405     1.63453e-22 
            414     7.89084e-22 
            422     3.01157e-21 
            430     1.09025e-20 
            441     5.89983e-20 
            451     2.53671e-19 
            460     8.90032e-19 
            470     3.38187e-18 
            480     1.21068e-17 
            490     4.10166e-17 
            500     1.31768e-16 
            506     3.44262e-16 
            512     7.49625e-16 
            520     1.75575e-15 
            530     4.92752e-15 
            540     1.30512e-14 
            550     3.37313e-14 
            560     8.35052e-14 
            570     1.99693e-13 
            580     4.56913e-13 
            590     1.03664e-12 
            600     2.25807e-12 
            610     4.78581e-12 
            620       9.872e-12 
            630     1.98587e-11 
            640     3.90139e-11 
            650     7.49455e-11 
            658     1.24357e-10 
            665     1.91378e-10 
            675     3.48795e-10 
            685      6.2361e-10 
            695      1.09417e-9 
            705      1.88022e-9 
            716      3.36484e-9 
            726      5.60102e-9 
            735      8.74485e-9 
            745      1.41406e-8 
            755      2.25512e-8 
            765      3.54788e-8 
            775      5.50858e-8 
            785       8.4507e-8 
            795      1.26992e-7 
            805      1.91043e-7 
            815      2.83546e-7 
            825        4.154e-7 
            835      6.02194e-7 
            845       8.6439e-7 
            855      1.22873e-6 
            865      1.73057e-6 
            875      2.40959e-6 
            885       3.3424e-6 
            895      4.58707e-6 
            905      6.22849e-6 
            915      0.00924291 
            925       0.0297725 
            935       0.0390129 
            945       0.0531667 
            955       0.0759552 
            965        0.100491 
            975        0.124386 
            985        0.166546 
            995         0.20642 
           1005         0.28238 
           1015        0.359146 
           1025        0.437929 
           1035        0.571693 
           1045        0.727188 
           1055        0.913066 
           1065          1.1097 
           1075         1.39885 
           1085          1.7363 
           1095         2.07945 
           1105         7.22281 
           1115         24.7003 
           1125          35.663 
           1135         48.4019 
           1145         59.0371 
           1155         61.6339 
           1165         77.4013 
           1175         80.7473 
           1185         93.8561 
           1195         26.5896 
           1205         20.6977 
           1215         5.15729 
           1225         24.3078 
           1235         70.2762 
           1245         173.137 
           1255         359.932 
           1265         395.722 
           1275         748.557 
           1285          1174.8 
           1295         1558.94 
           1305         1175.01 
           1315         2268.14 
           1325         2923.92 
           1335          3333.7 
           1345         4328.68 
           1355         4653.24 
           1365          5192.9 
           1375         5850.73 
           1385         6748.13 
           1395         7917.99 
           1405         8958.95 
           1415         9401.37 
           1425         10753.7 
           1435         10937.7 
           1442         12733.9 
           1447         13799.2 
           1455         15521.9 
           1465         15934.2 
           1475         17554.9 
           1485         19676.8 
           1495           22467 
           1505           24784 
           1512         25339.5 
           1517         27472.7 
           1525         29017.4 
           1535           80001 
           1545          301680 
           1555          281298 
           1565          252427 
           1575          445370 
           1585          531333 
           1595          706835 
           1605          620267 
           1615          608030 
           1625          566630 
           1635          700365 
           1645      1.01027e+6 
           1655          543564 
           1665          947903 
           1672          345225 
           1677      1.40788e+6 
           1685      2.38161e+6 
           1695      2.85344e+6 
           1705      2.95225e+6 
           1715      3.98936e+6 
           1725      4.18759e+6 
           1735      5.07796e+6 
           1745      4.61511e+6 
           1755      5.79596e+6 
           1765      4.42247e+6 
           1775      5.65114e+6 
           1785      5.07035e+6 
           1795      6.97716e+6 
           1805      5.39963e+6 
           1815      6.30207e+6 
           1825      5.11317e+6 
           1835      5.00434e+6 
           1845      4.64545e+6 
           1855      5.36625e+6 
           1865      5.93565e+6 
           1875      5.74906e+6 
           1885      6.04054e+6 
           1895      6.55186e+6 
           1905      5.77288e+6 
           1915      6.42743e+6 
           1925      6.51932e+6 
           1935      5.05415e+6 
           1945      7.07456e+6 
           1955      7.21045e+6 
           1967      7.78524e+6 
           1976      7.52257e+6 
           1984      7.28612e+6 
           1995      7.13936e+6 
           2005      6.85062e+6 
           2015      6.40256e+6 
           2025      6.00599e+6 
           2035       7.0584e+6 
           2045      7.75381e+6 
           2055      6.84746e+6 
           2065      6.69578e+6 
           2074      8.30088e+6 
           2078      8.74278e+6 
           2085      8.31786e+6 
           2095      7.86784e+6 
           2105      7.28807e+6 
           2115      7.43239e+6 
           2125      7.54823e+6 
           2135      5.78521e+6 
           2145      7.20728e+6 
           2155       7.3745e+6 
           2165      6.69054e+6 
           2175      6.76662e+6 
           2185      7.08595e+6 
           2195      7.85514e+6 
           2205      7.49139e+6 
           2215      6.39059e+6 
           2225      6.25543e+6 
           2235      7.78841e+6 
           2245      6.93014e+6 
           2255      6.19441e+6 
           2265      6.19909e+6 
           2275      7.10524e+6 
           2285       7.4181e+6 
           2295      6.70371e+6 
           2305      7.15024e+6 
           2315      6.83307e+6 
           2325      6.50548e+6 
           2335      4.96513e+6 
           2345      3.98685e+6 
           2355      6.15256e+6 
           2365       4.0662e+6 
           2375      5.37581e+6 
           2385      3.26327e+6 
           2395      4.26374e+6 
           2405      4.06878e+6 
           2415      4.82249e+6 
           2425      6.79386e+6 
           2435      6.60411e+6 
           2445      7.10099e+6 
           2455        6.997e+6 
           2465       6.8957e+6 
           2475      6.41451e+6 
           2485      6.71744e+6 
           2495       6.4543e+6 
           2505      8.03946e+6 
           2513      6.36933e+6 
           2518      6.70413e+6 
           2525      5.65553e+6 
           2535       5.4217e+6 
           2545      5.67395e+6 
           2555      6.61986e+6 
           2565      6.07705e+6 
           2575      6.95378e+6 
           2585      6.62101e+6 
           2595      6.13652e+6 
           2605      5.50952e+6 
           2615      5.18248e+6 
           2625      6.56729e+6 
           2635      7.37754e+6 
           2645      9.83392e+6 
           2655      9.92298e+6 
           2665      8.32417e+6 
           2675      9.05019e+6 
           2685      8.95051e+6 
           2695      8.40234e+6 
           2705      8.79856e+6 
           2715      7.82516e+6 
           2725      7.97382e+6 
           2735      8.69473e+6 
           2745      5.73917e+6 
           2755      6.52549e+6 
           2765      7.10271e+6 
           2775      8.13474e+6 
           2785      6.19623e+6 
           2795      2.18543e+6 
           2805      2.86559e+6 
           2815      7.57526e+6 
           2825       9.3448e+6 
           2835      9.23025e+6 
           2845      8.93694e+6 
           2855      8.08595e+6 
           2865      9.55704e+6 
           2875      9.25048e+6 
           2885      9.53136e+6 
           2895      9.05164e+6 
           2910      1.06887e+7 
           2930      1.01874e+7 
           2950        1.019e+7 
           2970      1.07925e+7 
           2990      1.09524e+7 
           3010      1.13146e+7 
           3030      1.12409e+7 
           3050      1.11863e+7 
           3070      1.11417e+7 
           3090      1.16391e+7 
           3110      1.12344e+7 
           3130      1.12532e+7 
           3150      1.17349e+7 
           3170      1.17159e+7 
           3190      1.09482e+7 
           3210      1.15482e+7 
           3230      1.10258e+7 
           3250      1.16181e+7 
           3270      1.18513e+7 
           3290      1.21092e+7 
           3310      1.23804e+7 
           3330      1.20314e+7 
           3350      1.18408e+7 
           3370      1.18032e+7 
           3390      1.20125e+7 
           3410      1.24153e+7 
           3430      1.26815e+7 
           3450      1.25564e+7 
           3470      1.23754e+7 
           3490      1.22915e+7 
           3510      1.27148e+7 
           3530      1.28508e+7 
           3550      1.31733e+7 
           3570      1.26398e+7 
           3590      1.26666e+7 
           3610      1.27998e+7 
           3630      1.29588e+7 
           3640      1.27196e+7 
           3650      1.32455e+7 
           3670      1.31013e+7 
           3690      1.39922e+7 
           3710      1.81354e+7 
           3730      2.41029e+7 
           3750       3.5874e+7 
           3770      3.82431e+7 
           3790      4.75472e+7 
           3810      5.37113e+7 
           3830      4.21085e+7 
           3850      5.62915e+7 
           3870      6.02892e+7 
           3890      3.89822e+7 
           3910       5.7406e+7 
           3930      3.88318e+7 
           3950      5.48319e+7 
           3970      3.12887e+7 
           3990      5.69705e+7 
           4010      5.90557e+7 
           4030      5.79259e+7 
           4050      5.75688e+7 
           4070      5.61356e+7 
           4090      5.11536e+7 
           4110      3.97334e+7 
           4130      5.43552e+7 
           4150      5.53703e+7 
           4170      5.35189e+7 
           4190      5.32989e+7 
           4210      5.30339e+7 
           4230      5.18745e+7 
           4250      5.17149e+7 
           4270      5.04216e+7 
           4290      5.00672e+7 
           4310      4.70118e+7 
           4330      4.18144e+7 
           4350      3.59797e+7 
           4370      4.82844e+7 
           4390      4.71183e+7 
           4410      4.59539e+7 
           4430      4.61541e+7 
           4450      4.61416e+7 
           4470      4.58767e+7 
           4490      4.54091e+7 
           4510      4.58093e+7 
           4530       4.4082e+7 
           4550      4.31622e+7 
           4570      4.43708e+7 
           4590      4.28334e+7 
           4610      4.40101e+7 
           4630      4.25727e+7 
           4650      4.28485e+7 
           4670      4.24805e+7 
           4690       4.1499e+7 
           4710       4.0035e+7 
           4730      4.11486e+7 
           4750      4.11184e+7 
           4770      4.02445e+7 
           4790      3.98188e+7 
           4810      3.92897e+7 
           4830      3.86275e+7 
           4850      3.32198e+7 
           4870      2.67176e+7 
           4890      3.69591e+7 
           4910      3.72274e+7 
           4930       3.6447e+7 
           4950      3.67051e+7 
           4970       3.6761e+7 
           4990      3.55637e+7 
           5010      3.42822e+7 
           5030      3.49318e+7 
           5050      3.44829e+7 
           5070      3.46115e+7 
           5090        3.426e+7 
           5110      3.39866e+7 
           5130       3.3191e+7 
           5150      3.26908e+7 
           5170      3.18521e+7 
           5190      3.14672e+7 
           5210      3.15841e+7 
           5230      3.11199e+7 
           5250      3.15093e+7 
           5270      2.98531e+7 
           5290      3.08367e+7 
           5310      3.02133e+7 
           5330      2.94287e+7 
           5350      3.01357e+7 
           5370      2.96857e+7 
           5390      2.92531e+7 
           5410      2.87849e+7 
           5430      2.85975e+7 
           5450      2.87051e+7 
           5470      2.84364e+7 
           5490      2.81584e+7 
           5510      2.79084e+7 
           5530       2.7564e+7 
           5550      2.76152e+7 
           5570      2.72157e+7 
           5590      2.68453e+7 
           5610      2.67212e+7 
           5630      2.66327e+7 
           5650      2.62227e+7 
           5670      2.59044e+7 
           5690      2.58541e+7 
           5710      2.56028e+7 
           5730      2.55277e+7 
           5750      2.51932e+7 
           5770      2.50267e+7 
           5790      2.47642e+7 
           5810      2.45684e+7 
           5830      2.43602e+7 
           5850      2.41014e+7 
           5870      2.39145e+7 
           5890      2.34103e+7 
           5910      2.34894e+7 
           5930       2.3283e+7 
           5950      2.30331e+7 
           5970      2.28865e+7 
           5990      2.25869e+7 
           6010      2.23961e+7 
           6030      2.22416e+7 
           6050      2.20341e+7 
           6070      2.19177e+7 
           6090      2.16867e+7 
           6110       2.1448e+7 
           6130      2.11449e+7 
           6150      2.06968e+7 
           6170      2.07123e+7 
           6190      2.07842e+7 
           6210      2.06085e+7 
           6230      2.03405e+7 
           6250      1.98412e+7 
           6270      2.01067e+7 
           6290      1.99391e+7 
           6310      1.96445e+7 
           6330      1.95506e+7 
           6350       1.9238e+7 
           6370      1.91044e+7 
           6390      1.90717e+7 
           6410      1.88007e+7 
           6430      1.87249e+7 
           6450      1.83355e+7 
           6470      1.84005e+7 
           6490       1.8052e+7 
           6510      1.79973e+7 
           6530      1.77865e+7 
           6550      1.62248e+7 
           6570      1.28533e+7 
           6590      1.71067e+7 
           6610      1.72879e+7 
           6630       1.7272e+7 
           6650      1.71648e+7 
           6670      1.70129e+7 
           6690      1.68962e+7 
           6710      1.67521e+7 
           6730       1.6602e+7 
           6750      1.64169e+7 
           6770       1.6385e+7 
           6790      1.62306e+7 
           6810        1.612e+7 
           6830      1.59514e+7 
           6850      1.58456e+7 
           6870      1.57447e+7 
           6890      1.56216e+7 
           6910      1.54974e+7 
           6930      1.53673e+7 
           6950      1.52556e+7 
           6970      1.51286e+7 
           6990      1.50213e+7 
           7010      1.47886e+7 
           7030      1.47663e+7 
           7050      1.46712e+7 
           7070      1.45612e+7 
           7090      1.44552e+7 
           7110      1.41691e+7 
           7130      1.41882e+7 
           7150      1.40662e+7 
           7170      1.39769e+7 
           7190       1.3857e+7 
           7210      1.37483e+7 
           7230      1.36406e+7 
           7250      1.35382e+7 
           7270      1.34795e+7 
           7290      1.33284e+7 
           7310      1.32281e+7 
           7330      1.31385e+7 
           7350       1.3065e+7 
           7370      1.29976e+7 
           7390      1.28743e+7 
           7410      1.27246e+7 
           7430      1.26214e+7 
           7450      1.25523e+7 
           7470       1.2419e+7 
           7490      1.23615e+7 
           7510      1.22938e+7 
           7530      1.22279e+7 
           7550      1.21645e+7 
           7570      1.20431e+7 
           7590      1.19824e+7 
           7610      1.18934e+7 
           7630      1.18118e+7 
           7650      1.16967e+7 
           7670      1.15973e+7 
           7690      1.15218e+7 
           7710      1.14253e+7 
           7730       1.1382e+7 
           7750      1.12933e+7 
           7770      1.09737e+7 
           7790       1.1154e+7 
           7810      1.10636e+7 
           7830      1.09672e+7 
           7850      1.08637e+7 
           7870      1.07775e+7 
           7890       1.0677e+7 
           7910      1.06429e+7 
           7930      1.05396e+7 
           7950      1.04514e+7 
           7970      1.04584e+7 
           7990      1.02762e+7 
           8010      1.03019e+7 
           8030      1.02191e+7 
           8050      1.01579e+7 
           8070      1.00851e+7 
           8090      1.00157e+7 
           8110      9.95492e+6 
           8130      9.89403e+6 
           8150      9.82398e+6 
           8170      9.75618e+6 
           8190      9.59345e+6 
           8210      9.55907e+6 
           8230      9.49208e+6 
           8250      9.43283e+6 
           8270      9.46658e+6 
           8290      9.38862e+6 
           8310      9.28893e+6 
           8330      9.13091e+6 
           8350      9.15908e+6 
           8370      8.96479e+6 
           8390      8.93548e+6 
           8410      8.86747e+6 
           8430      9.02689e+6 
           8450      8.84597e+6 
           8470      8.55744e+6 
           8490      9.26665e+6 
           8510      8.25245e+6 
           8530      9.40103e+6 
           8550      7.61885e+6 
           8570      9.64894e+6 
           8590      8.99855e+6 
           8610      8.70422e+6 
           8630      9.86528e+6 
           8650      9.59767e+6 
           8670      7.48608e+6 
           8690      9.61179e+6 
           8710      9.95354e+6 
           8730      9.69346e+6 
           8750      7.75577e+6 
           8770       9.3711e+6 
           8790      9.73418e+6 
           8810      9.64392e+6 
           8830      9.47418e+6 
           8850      8.91096e+6 
           8870       7.5368e+6 
           8890      9.23566e+6 
           8910      9.30528e+6 
           8930      9.24759e+6 
           8950      9.27685e+6 
           8970      9.18075e+6 
           8990      8.98239e+6 
           9010      7.42042e+6 
           9030      8.18687e+6 
           9050      8.88346e+6 
           9070       8.7074e+6 
           9090      8.58934e+6 
           9110      8.71553e+6 
           9130      8.73072e+6 
           9150      8.69665e+6 
           9170      8.60633e+6 
           9190      8.49398e+6 
           9210      8.15778e+6 
           9230      6.53981e+6 
           9250      7.86283e+6 
           9270      8.05822e+6 
           9290      8.27107e+6 
           9310      8.23991e+6 
           9330      8.17044e+6 
           9350      8.13293e+6 
           9370      8.08624e+6 
           9390        7.995e+6 
           9410      7.75343e+6 
           9430      7.84005e+6 
           9450      7.83474e+6 
           9470      7.81008e+6 
