# Kurucz ODFNEW /NOVER (2003)
# teff = 20000 K (value for the effective temperature for the model. Temperatures are given in K)
# logg = 4.5 log(cm/s2) (value for Log(G) for the model.)
# meta = 0.5  (value for the Metallicity for the model.)
# lh = 1.25  (l/Hp where l is the  mixing length of the convective element and Hp is the pressure scale height)
# vtur = 2 km/s (Microturbulence velocity)
# alpha = 0.4  (Alpha)
#
# column 1: WAVELENGTH (ANGSTROM), Wavelength in Angstrom
# column 2: FLUX (ERG/CM2/S/A), Flux in erg/cm2/s/A
          147.2     2.40074e-19 
            151     1.38326e-18 
          155.2     8.68336e-18 
          158.8     3.88002e-17 
            162     1.39008e-16 
            166     6.39959e-16 
          170.3     3.03297e-15 
          173.4     8.97521e-15 
          176.8     2.80586e-14 
          180.2     8.40749e-14 
          181.7     1.34489e-13 
          186.1     5.13743e-13 
            191     2.13133e-12 
          193.9     4.76839e-12 
          198.4     1.59028e-11 
          201.8     3.82037e-11 
            205      8.5005e-11 
          210.5     3.17034e-10 
          216.2      1.15785e-9 
          219.8      2.53671e-9 
            223      4.98296e-9 
          226.8      1.08526e-8 
            230      5.10607e-8 
            234      1.27943e-7 
            240      3.89189e-7 
          246.5       1.2079e-6 
          252.4       3.2242e-6 
          256.8      6.38906e-6 
            260      1.07234e-5 
            264      1.95581e-5 
          268.5      3.76017e-5 
          273.5      7.54544e-5 
          278.5     0.000149177 
            284     0.000313272 
            290     0.000661852 
            296      0.00135495 
            301      0.00241137 
            308      0.00532109 
            318       0.0153856 
            328       0.0402278 
            338        0.103389 
            348        0.246322 
            357           0.625 
            366         1.28122 
            375          2.4258 
            385         4.83693 
            395         9.32425 
            405         17.2392 
            414         29.4862 
            422         45.7066 
            430         70.7249 
            441         125.022 
            451         204.959 
            460         310.624 
            470         488.094 
            480         747.687 
            490         1131.19 
            500         1680.82 
            506         12458.1 
            512          123636 
            520          153952 
            530          214812 
            540          247574 
            550          379121 
            560          466191 
            570          616020 
            580          682268 
            590          968728 
            600      1.19434e+6 
            610      1.51765e+6 
            620      1.73341e+6 
            630      2.00543e+6 
            640      2.06254e+6 
            650      1.69568e+6 
            658      2.70232e+6 
            665      3.19469e+6 
            675      3.62934e+6 
            685       4.0188e+6 
            695      5.05969e+6 
            705      5.50604e+6 
            716      6.40179e+6 
            726      7.02531e+6 
            735      7.68557e+6 
            745      8.91485e+6 
            755      9.98157e+6 
            765      1.11559e+7 
            775      1.24844e+7 
            785      1.37866e+7 
            795      1.47634e+7 
            805      1.60046e+7 
            815      1.73225e+7 
            825      1.92465e+7 
            835       1.8771e+7 
            845       2.1582e+7 
            855      2.32559e+7 
            865      2.53707e+7 
            875      2.75319e+7 
            885       3.0641e+7 
            895      3.29461e+7 
            905      3.29373e+7 
            915      5.34029e+7 
            925       2.5738e+8 
            935      6.26529e+8 
            945      1.58842e+9 
            955      2.85687e+9 
            965      3.89111e+9 
            975       7.3513e+8 
            985      4.13413e+9 
            995      4.04232e+9 
           1005      5.43521e+9 
           1015      5.34181e+9 
           1025      1.53973e+9 
           1035       3.4055e+9 
           1045      7.96047e+9 
           1055      7.68538e+9 
           1065      5.39905e+9 
           1075      7.29971e+9 
           1085      6.49982e+9 
           1095      7.87408e+9 
           1105      6.20742e+9 
           1115      5.29992e+9 
           1125       5.1585e+9 
           1135       7.7374e+9 
           1145      6.27181e+9 
           1155      7.15123e+9 
           1165       7.5425e+9 
           1175      5.05626e+9 
           1185      7.67396e+9 
           1195      4.02682e+9 
           1205      1.66817e+9 
           1215      1.52866e+9 
           1225      3.94849e+9 
           1235      7.69748e+9 
           1245      8.17781e+9 
           1255      7.90569e+9 
           1265      7.17051e+9 
           1275      7.61489e+9 
           1285       8.3524e+9 
           1295      3.82115e+9 
           1305       3.1547e+9 
           1315      7.67914e+9 
           1325      7.28513e+9 
           1335      6.52175e+9 
           1345      7.46555e+9 
           1355      7.32868e+9 
           1365       6.0142e+9 
           1375      6.16596e+9 
           1385      6.19292e+9 
           1395      4.66898e+9 
           1405      5.11097e+9 
           1415      5.38839e+9 
           1425      5.79706e+9 
           1435      5.85705e+9 
           1442       6.3299e+9 
           1447      6.25853e+9 
           1455      6.06497e+9 
           1465      5.53748e+9 
           1475      5.56689e+9 
           1485      5.45134e+9 
           1495      5.49783e+9 
           1505      4.80312e+9 
           1512      4.33854e+9 
           1517      4.65344e+9 
           1525      4.81598e+9 
           1535      4.11837e+9 
           1545      4.21106e+9 
           1555      4.04069e+9 
           1565       4.1904e+9 
           1575       4.5146e+9 
           1585      4.58813e+9 
           1595      4.61682e+9 
           1605      4.66257e+9 
           1615      4.69889e+9 
           1625      4.44635e+9 
           1635      4.79532e+9 
           1645       4.7894e+9 
           1655      4.45772e+9 
           1665      4.86012e+9 
           1672      4.65888e+9 
           1677      4.82873e+9 
           1685      4.93544e+9 
           1695      4.59755e+9 
           1705      4.35613e+9 
           1715      4.03432e+9 
           1725      3.99756e+9 
           1735      4.27299e+9 
           1745      4.10898e+9 
           1755      4.23915e+9 
           1765      3.97369e+9 
           1775       3.8536e+9 
           1785      3.93351e+9 
           1795      4.23999e+9 
           1805        4.272e+9 
           1815      3.69213e+9 
           1825      3.92811e+9 
           1835      3.67172e+9 
           1845      3.34129e+9 
           1855      3.22708e+9 
           1865      3.30532e+9 
           1875      3.70801e+9 
           1885      3.25952e+9 
           1895      3.04141e+9 
           1905      3.36656e+9 
           1915      3.07611e+9 
           1925      2.97927e+9 
           1935      3.17565e+9 
           1945      3.18171e+9 
           1955      2.91002e+9 
           1967      3.26371e+9 
           1976      3.40222e+9 
           1984      3.11164e+9 
           1995      3.04278e+9 
           2005      3.19993e+9 
           2015       2.9785e+9 
           2025      3.26299e+9 
           2035      2.94244e+9 
           2045      3.04066e+9 
           2055        2.885e+9 
           2065      2.92674e+9 
           2074      3.06316e+9 
           2078      2.77839e+9 
           2085      2.96775e+9 
           2095      2.75975e+9 
           2105      2.84871e+9 
           2115      2.86681e+9 
           2125      2.89745e+9 
           2135      2.77045e+9 
           2145       2.6994e+9 
           2155      2.82813e+9 
           2165      2.78712e+9 
           2175      2.74944e+9 
           2185      2.62988e+9 
           2195      2.69535e+9 
           2205      2.65034e+9 
           2215      2.57594e+9 
           2225      2.45916e+9 
           2235      2.52974e+9 
           2245      2.51473e+9 
           2255      2.37809e+9 
           2265      2.47177e+9 
           2275      2.47017e+9 
           2285       2.4815e+9 
           2295      2.31873e+9 
           2305      2.33297e+9 
           2315      2.23512e+9 
           2325      2.19523e+9 
           2335      2.07538e+9 
           2345      2.08423e+9 
           2355      2.08858e+9 
           2365      2.02333e+9 
           2375      2.03939e+9 
           2385      1.98259e+9 
           2395      2.05624e+9 
           2405      1.95053e+9 
           2415      1.98156e+9 
           2425      1.99786e+9 
           2435      1.90416e+9 
           2445      1.95762e+9 
           2455      1.93827e+9 
           2465      1.91104e+9 
           2475      1.86002e+9 
           2485      1.89993e+9 
           2495      1.77198e+9 
           2505      1.86335e+9 
           2513      1.74812e+9 
           2518      1.83566e+9 
           2525      1.75683e+9 
           2535      1.75086e+9 
           2545      1.65378e+9 
           2555      1.72759e+9 
           2565      1.70751e+9 
           2575      1.75654e+9 
           2585      1.74788e+9 
           2595      1.74026e+9 
           2605      1.70338e+9 
           2615      1.68884e+9 
           2625      1.67845e+9 
           2635      1.67762e+9 
           2645      1.68709e+9 
           2655      1.68077e+9 
           2665       1.5901e+9 
           2675      1.62982e+9 
           2685      1.61285e+9 
           2695      1.56309e+9 
           2705      1.55294e+9 
           2715      1.53324e+9 
           2725      1.51384e+9 
           2735      1.53744e+9 
           2745      1.45227e+9 
           2755      1.45256e+9 
           2765      1.45301e+9 
           2775      1.48033e+9 
           2785      1.46219e+9 
           2795      1.35906e+9 
           2805      1.41058e+9 
           2815      1.42995e+9 
           2825      1.40687e+9 
           2835      1.33152e+9 
           2845      1.33679e+9 
           2855      1.33849e+9 
           2865      1.35955e+9 
           2875      1.33475e+9 
           2885       1.3242e+9 
           2895      1.31129e+9 
           2910      1.29683e+9 
           2930      1.26988e+9 
           2950      1.23527e+9 
           2970      1.22395e+9 
           2990      1.19499e+9 
           3010      1.17238e+9 
           3030      1.16656e+9 
           3050      1.14033e+9 
           3070      1.12125e+9 
           3090      1.08887e+9 
           3110      1.07382e+9 
           3130      1.05641e+9 
           3150      1.03798e+9 
           3170      1.01199e+9 
           3190      9.81316e+8 
           3210      9.76072e+8 
           3230      9.59183e+8 
           3250      9.45881e+8 
           3270      9.29484e+8 
           3290        9.123e+8 
           3310      8.98593e+8 
           3330      8.79609e+8 
           3350      8.61686e+8 
           3370      8.47242e+8 
           3390      8.34521e+8 
           3410      8.21197e+8 
           3430      8.02842e+8 
           3450       7.8606e+8 
           3470      7.73082e+8 
           3490      7.59546e+8 
           3510      7.48163e+8 
           3530      7.37804e+8 
           3550      7.25778e+8 
           3570      7.17491e+8 
           3590      6.95751e+8 
           3610      6.85953e+8 
           3630      6.76843e+8 
           3640      6.77081e+8 
           3650      6.68371e+8 
           3670      6.61023e+8 
           3690      6.49201e+8 
           3710      6.23854e+8 
           3730      5.95087e+8 
           3750      6.22029e+8 
           3770      6.20615e+8 
           3790      6.70209e+8 
           3810      7.08063e+8 
           3830      6.02555e+8 
           3850      7.30788e+8 
           3870      7.49163e+8 
           3890      5.64543e+8 
           3910      7.54242e+8 
           3930      7.29682e+8 
           3950      7.24702e+8 
           3970      5.25957e+8 
           3990      6.89491e+8 
           4010      7.02685e+8 
           4030      6.49497e+8 
           4050      6.86002e+8 
           4070      6.50166e+8 
           4090      5.90066e+8 
           4110      5.05366e+8 
           4130      6.13854e+8 
           4150      6.15717e+8 
           4170      6.16151e+8 
           4190      6.11399e+8 
           4210      6.07708e+8 
           4230      5.94605e+8 
           4250      5.78156e+8 
           4270       5.5612e+8 
           4290      5.57272e+8 
           4310      5.40227e+8 
           4330      4.72376e+8 
           4350      4.25676e+8 
           4370       5.0989e+8 
           4390      4.99117e+8 
           4410      5.07269e+8 
           4430      4.98975e+8 
           4450      4.97182e+8 
           4470        4.625e+8 
           4490      4.74759e+8 
           4510      4.78744e+8 
           4530      4.67146e+8 
           4550      4.62029e+8 
           4570      4.55775e+8 
           4590      4.48021e+8 
           4610      4.38399e+8 
           4630      4.29734e+8 
           4650      4.21428e+8 
           4670      4.19381e+8 
           4690      4.16771e+8 
           4710      3.95187e+8 
           4730      3.98689e+8 
           4750      3.92967e+8 
           4770      3.94828e+8 
           4790      3.86005e+8 
           4810      3.74969e+8 
           4830      3.66541e+8 
           4850      3.28883e+8 
           4870      2.87953e+8 
           4890      3.51678e+8 
           4910      3.50272e+8 
           4930      3.35516e+8 
           4950      3.42727e+8 
           4970      3.40707e+8 
           4990      3.34501e+8 
           5010      3.16797e+8 
           5030      3.22338e+8 
           5050      3.10853e+8 
           5070      3.15953e+8 
           5090      3.10334e+8 
           5110      3.04288e+8 
           5130      2.97325e+8 
           5150      2.93713e+8 
           5170      2.93672e+8 
           5190      2.89203e+8 
           5210      2.80284e+8 
           5230      2.82138e+8 
           5250      2.78653e+8 
           5270      2.73341e+8 
           5290      2.72045e+8 
           5310      2.67702e+8 
           5330      2.62739e+8 
           5350       2.5841e+8 
           5370      2.57573e+8 
           5390      2.54122e+8 
           5410      2.49813e+8 
           5430      2.45715e+8 
           5450       2.4285e+8 
           5470      2.38534e+8 
           5490      2.37774e+8 
           5510      2.34599e+8 
           5530      2.31131e+8 
           5550      2.28771e+8 
           5570      2.25395e+8 
           5590      2.23254e+8 
           5610      2.19822e+8 
           5630      2.18156e+8 
           5650      2.11056e+8 
           5670      2.08562e+8 
           5690      2.07622e+8 
           5710      2.06378e+8 
           5730      2.04366e+8 
           5750      2.01363e+8 
           5770      1.99585e+8 
           5790      1.97017e+8 
           5810      1.94145e+8 
           5830      1.91641e+8 
           5850      1.89551e+8 
           5870      1.80214e+8 
           5890      1.82446e+8 
           5910      1.81979e+8 
           5930      1.80261e+8 
           5950      1.76571e+8 
           5970      1.76289e+8 
           5990       1.7336e+8 
           6010      1.72375e+8 
           6030       1.6999e+8 
           6050      1.68117e+8 
           6070      1.66152e+8 
           6090      1.63823e+8 
           6110      1.62329e+8 
           6130      1.60579e+8 
           6150      1.56319e+8 
           6170      1.56248e+8 
           6190      1.54955e+8 
           6210      1.53079e+8 
           6230      1.51321e+8 
           6250      1.48474e+8 
           6270      1.47442e+8 
           6290       1.4582e+8 
           6310      1.43799e+8 
           6330      1.42714e+8 
           6350      1.39378e+8 
           6370      1.38717e+8 
           6390      1.37537e+8 
           6410      1.36029e+8 
           6430      1.35102e+8 
           6450      1.33088e+8 
           6470      1.31393e+8 
           6490      1.30066e+8 
           6510      1.28166e+8 
           6530      1.25871e+8 
           6550      1.17491e+8 
           6570       1.0159e+8 
           6590      1.19677e+8 
           6610      1.21239e+8 
           6630      1.20492e+8 
           6650      1.19265e+8 
           6670      1.16434e+8 
           6690      1.15402e+8 
           6710      1.15502e+8 
           6730      1.14151e+8 
           6750      1.13228e+8 
           6770      1.12083e+8 
           6790      1.09675e+8 
           6810      1.09405e+8 
           6830      1.08023e+8 
           6850      1.07312e+8 
           6870      1.06186e+8 
           6890      1.05007e+8 
           6910      1.03887e+8 
           6930      1.02519e+8 
           6950      1.01829e+8 
           6970      1.00803e+8 
           6990      9.96411e+7 
           7010      9.84754e+7 
           7030      9.75195e+7 
           7050      9.63757e+7 
           7070      9.37134e+7 
           7090      9.45269e+7 
           7110      9.30494e+7 
           7130      9.21502e+7 
           7150      9.14291e+7 
           7170      9.07292e+7 
           7190      8.99482e+7 
           7210       8.9073e+7 
           7230      8.66206e+7 
           7250      8.69461e+7 
           7270      8.64042e+7 
           7290      8.48107e+7 
           7310      8.46364e+7 
           7330      8.38175e+7 
           7350      8.30552e+7 
           7370      8.22305e+7 
           7390      8.14135e+7 
           7410      8.06178e+7 
           7430       7.9461e+7 
           7450      7.88856e+7 
           7470      7.77616e+7 
           7490      7.72328e+7 
           7510      7.66216e+7 
           7530       7.5843e+7 
           7550      7.52104e+7 
           7570      7.45308e+7 
           7590      7.36743e+7 
           7610      7.30793e+7 
           7630      7.23926e+7 
           7650      7.17056e+7 
           7670      7.10247e+7 
           7690      7.03372e+7 
           7710      6.96876e+7 
           7730      6.89555e+7 
           7750       6.8368e+7 
           7770      6.67123e+7 
           7790      6.70841e+7 
           7810      6.64321e+7 
           7830      6.58536e+7 
           7850      6.47542e+7 
           7870      6.43221e+7 
           7890      6.33852e+7 
           7910        6.333e+7 
           7930      6.28552e+7 
           7950      6.17049e+7 
           7970      6.15557e+7 
           7990      6.03569e+7 
           8010      6.04727e+7 
           8030      5.98914e+7 
           8050      5.92628e+7 
           8070      5.88422e+7 
           8090      5.82235e+7 
           8110      5.76331e+7 
           8130      5.71789e+7 
           8150      5.67228e+7 
           8170      5.62936e+7 
           8190       5.5591e+7 
           8210      5.49041e+7 
           8230      5.41242e+7 
           8250      5.42579e+7 
           8270      5.34367e+7 
           8290      5.32784e+7 
           8310      5.27642e+7 
           8330      5.23971e+7 
           8350      5.16866e+7 
           8370      5.12915e+7 
           8390       5.1059e+7 
           8410      5.06007e+7 
           8430      5.00773e+7 
           8450      4.88908e+7 
           8470      4.92063e+7 
           8490      4.85655e+7 
           8510      4.81076e+7 
           8530      4.78564e+7 
           8550      4.67592e+7 
           8570      4.75056e+7 
