# Kurucz ODFNEW /NOVER (2003)
# teff = 8000 K (value for the effective temperature for the model. Temperatures are given in K)
# logg = 2 log(cm/s2) (value for Log(G) for the model.)
# meta = -4  (value for the Metallicity for the model.)
# lh = 1.25  (l/Hp where l is the  mixing length of the convective element and Hp is the pressure scale height)
# vtur = 2 km/s (Microturbulence velocity)
# alpha = 0.4  (Alpha)
#
# column 1: WAVELENGTH (ANGSTROM), Wavelength in Angstrom
# column 2: FLUX (ERG/CM2/S/A), Flux in erg/cm2/s/A
          147.2     1.73866e-35 
            151     1.65225e-35 
          155.2     1.56403e-35 
          158.8     1.49392e-35 
            162     1.43549e-35 
            166     1.36714e-35 
          170.3     1.29897e-35 
          173.4     1.25294e-35 
          176.8     1.20522e-35 
          180.2     1.16017e-35 
          181.7     1.14109e-35 
          186.1     1.08777e-35 
            191     1.03267e-35 
          193.9     1.00201e-35 
          198.4     9.57076e-36 
          201.8     9.25097e-36 
            205     8.96441e-36 
          210.5     8.50208e-36 
          216.2     8.05969e-36 
          219.8     7.79784e-36 
            223     7.57565e-36 
          226.8     7.32392e-36 
            230     7.12154e-36 
            234     6.88015e-36 
            240     6.54044e-36 
          246.5     6.20006e-36 
          252.4     5.91358e-36 
          256.8     5.71267e-36 
            260     5.57292e-36 
            264     5.40532e-36 
          268.5     5.22566e-36 
          273.5     5.03634e-36 
          278.5     4.85712e-36 
            284     4.67082e-36 
            290     1.31062e-23 
            296     9.61216e-23 
            301     3.69648e-22 
            308     2.19694e-21 
            318     2.39943e-20 
            328     2.25255e-19 
            338     1.84038e-18 
            348     1.32753e-17 
            357     7.11579e-17 
            366     3.50473e-16 
            375     1.59315e-15 
            385     7.86423e-15 
            395      3.5658e-14 
            405     1.49693e-13 
            414     5.12091e-13 
            422     1.45827e-12 
            430     3.98856e-12 
            441     1.49595e-11 
            451     4.69113e-11 
            460      1.2554e-10 
            470     3.58004e-10 
            480     9.75834e-10 
            490      2.55065e-9 
            500      6.39687e-9 
            506      1.73889e-8 
            512      3.42765e-8 
            520      6.72331e-8 
            530      1.53092e-7 
            540      3.30284e-7 
            550      7.04366e-7 
            560      1.44697e-6 
            570       2.8929e-6 
            580      5.56169e-6 
            590       1.0719e-5 
            600      1.99258e-5 
            610      3.62353e-5 
            620       6.4537e-5 
            630     0.000112687 
            640     0.000193138 
            650     0.000325173 
            658     0.000487318 
            665     0.000688417 
            675      0.00111268 
            685       0.0017713 
            695      0.00277946 
            705      0.00430125 
            716      0.00684733 
            726        0.010311 
            735       0.0147512 
            745       0.0217231 
            755       0.0316379 
            765       0.0455841 
            775       0.0650123 
            785       0.0918432 
            795         0.12853 
            805        0.178219 
            815        0.244922 
            825        0.333791 
            835         0.45127 
            845        0.605384 
            855        0.805947 
            865         1.06535 
            875         1.39847 
            885         1.82356 
            895          2.3625 
            905         3.04245 
            915         7.29273 
            925         31.0454 
            935         51.0652 
            945         90.3324 
            955         147.536 
            965         156.869 
            975         106.017 
            985         404.288 
            995         581.214 
           1005         412.527 
           1015         281.816 
           1025         262.557 
           1035         461.933 
           1045         1016.42 
           1055         21691.7 
           1065          268554 
           1075          666597 
           1085       1.0371e+6 
           1095          934703 
           1105          834619 
           1115          573598 
           1125          324958 
           1135          180842 
           1145         62114.6 
           1155         10416.3 
           1165         2631.15 
           1175         1992.87 
           1185         27541.9 
           1195         2710.66 
           1205         1973.36 
           1215          1490.3 
           1225         2352.47 
           1235         4094.51 
           1245         1581.87 
           1255         3276.42 
           1265         5933.83 
           1275         9562.47 
           1285         50412.3 
           1295          119031 
           1305          387032 
           1315          659267 
           1325      1.08457e+6 
           1335      1.56086e+6 
           1345      2.21245e+6 
           1355      2.74685e+6 
           1365      3.45102e+6 
           1375      3.70388e+6 
           1385      3.77117e+6 
           1395      3.88901e+6 
           1405      5.40945e+6 
           1415      7.48501e+6 
           1425      8.15062e+6 
           1435      8.65834e+6 
           1442      9.47873e+6 
           1447      9.38599e+6 
           1455      1.02415e+7 
           1465      1.01792e+7 
           1475      1.09844e+7 
           1485      1.12968e+7 
           1495      1.18361e+7 
           1505       1.2393e+7 
           1512      1.27511e+7 
           1517      1.24123e+7 
           1525      1.28894e+7 
           1535      1.29211e+7 
           1545      1.30528e+7 
           1555      1.30444e+7 
           1565      1.21585e+7 
           1575      1.26804e+7 
           1585      1.25581e+7 
           1595      1.27814e+7 
           1605      1.25662e+7 
           1615      1.36927e+7 
           1625      1.44222e+7 
           1635      1.54583e+7 
           1645      1.65712e+7 
           1655      1.59699e+7 
           1665      1.75698e+7 
           1672      1.72222e+7 
           1677      1.76206e+7 
           1685      1.79818e+7 
           1695      1.78843e+7 
           1705      1.78514e+7 
           1715      1.82228e+7 
           1725      1.81944e+7 
           1735      1.85147e+7 
           1745      1.82907e+7 
           1755      1.84657e+7 
           1765      1.84348e+7 
           1775      1.85398e+7 
           1785      1.83858e+7 
           1795      1.86118e+7 
           1805      1.83206e+7 
           1815      1.83446e+7 
           1825      1.82968e+7 
           1835      1.84403e+7 
           1845      1.82398e+7 
           1855      1.84137e+7 
           1865       1.8454e+7 
           1875      1.84527e+7 
           1885      1.84525e+7 
           1895      1.84482e+7 
           1905      1.83173e+7 
           1915      1.83843e+7 
           1925      1.84104e+7 
           1935       1.8121e+7 
           1945      1.83882e+7 
           1955      1.83731e+7 
           1967      1.83667e+7 
           1976      1.83021e+7 
           1984      1.82792e+7 
           1995      1.82911e+7 
           2005      1.82113e+7 
           2015      1.81061e+7 
           2025      1.80665e+7 
           2035       1.8175e+7 
           2045      1.81436e+7 
           2055      1.78899e+7 
           2065      1.79299e+7 
           2074       1.8125e+7 
           2078      1.81207e+7 
           2085       1.8098e+7 
           2095      1.80767e+7 
           2105      1.80618e+7 
           2115      1.80329e+7 
           2125      1.79771e+7 
           2135      1.79578e+7 
           2145      1.79987e+7 
           2155      1.79619e+7 
           2165      1.77658e+7 
           2175      1.78186e+7 
           2185      1.78934e+7 
           2195      1.79544e+7 
           2205      1.78283e+7 
           2215      1.76224e+7 
           2225      1.76728e+7 
           2235      1.78906e+7 
           2245      1.78295e+7 
           2255      1.76495e+7 
           2265      1.75366e+7 
           2275      1.77445e+7 
           2285      1.77483e+7 
           2295      1.76769e+7 
           2305      1.77543e+7 
           2315      1.77201e+7 
           2325       1.7706e+7 
           2335      1.75222e+7 
           2345      1.70798e+7 
           2355      1.75607e+7 
           2365      1.71195e+7 
           2375      1.74786e+7 
           2385      1.69276e+7 
           2395      1.73921e+7 
           2405      1.74061e+7 
           2415      1.73985e+7 
           2425      1.77422e+7 
           2435      1.76616e+7 
           2445      1.76623e+7 
           2455      1.77394e+7 
           2465      1.76447e+7 
           2475      1.76488e+7 
           2485      1.76376e+7 
           2495      1.75328e+7 
           2505      1.77371e+7 
           2513      1.75755e+7 
           2518      1.76269e+7 
           2525      1.75353e+7 
           2535      1.74177e+7 
           2545      1.76062e+7 
           2555      1.77722e+7 
           2565      1.75853e+7 
           2575      1.76705e+7 
           2585      1.76745e+7 
           2595      1.76386e+7 
           2605      1.75862e+7 
           2615      1.75417e+7 
           2625      1.75554e+7 
           2635      1.76422e+7 
           2645      1.79635e+7 
           2655      1.79631e+7 
           2665      1.78906e+7 
           2675      1.79193e+7 
           2685      1.79851e+7 
           2695      1.79691e+7 
           2705      1.79884e+7 
           2715      1.78761e+7 
           2725      1.78578e+7 
           2735      1.78996e+7 
           2745       1.7503e+7 
           2755      1.76338e+7 
           2765      1.78716e+7 
           2775      1.80434e+7 
           2785      1.80398e+7 
           2795       1.7396e+7 
           2805      1.77567e+7 
           2815      1.80995e+7 
           2825      1.81024e+7 
           2835      1.80541e+7 
           2845      1.80829e+7 
           2855       1.7973e+7 
           2865       1.8058e+7 
           2875      1.81022e+7 
           2885      1.81004e+7 
           2895      1.81491e+7 
           2910      1.81703e+7 
           2930      1.81179e+7 
           2950      1.81237e+7 
           2970      1.81909e+7 
           2990       1.8192e+7 
           3010      1.82296e+7 
           3030      1.82433e+7 
           3050      1.82499e+7 
           3070      1.82279e+7 
           3090       1.8263e+7 
           3110      1.82696e+7 
           3130      1.82706e+7 
           3150      1.82694e+7 
           3170      1.82803e+7 
           3190      1.82521e+7 
           3210      1.82828e+7 
           3230      1.82376e+7 
           3250      1.82806e+7 
           3270      1.82994e+7 
           3290      1.83031e+7 
           3310      1.83026e+7 
           3330      1.82859e+7 
           3350      1.82603e+7 
           3370      1.82648e+7 
           3390      1.82639e+7 
           3410      1.82768e+7 
           3430      1.82682e+7 
           3450      1.82593e+7 
           3470      1.82481e+7 
           3490      1.82388e+7 
           3510      1.82278e+7 
           3530      1.82159e+7 
           3550      1.82023e+7 
           3570      1.81857e+7 
           3590      1.81699e+7 
           3610      1.81529e+7 
           3630      1.81342e+7 
           3640      1.81234e+7 
           3650      1.82114e+7 
           3670       1.7979e+7 
           3690      1.86941e+7 
           3710      2.38334e+7 
           3730      3.09688e+7 
           3750      4.62764e+7 
           3770      4.95135e+7 
           3790      5.95147e+7 
           3810      6.81669e+7 
           3830      5.45079e+7 
           3850        7.361e+7 
           3870      7.97156e+7 
           3890      4.75241e+7 
           3910      7.81398e+7 
           3930      7.89247e+7 
           3950       7.6628e+7 
           3970      4.53292e+7 
           3990      7.35896e+7 
           4010      7.63177e+7 
           4030      7.55945e+7 
           4050      7.46568e+7 
           4070      7.30971e+7 
           4090      6.17879e+7 
           4110      4.75503e+7 
           4130      6.98423e+7 
           4150      7.01026e+7 
           4170      6.94903e+7 
           4190      6.87147e+7 
           4210      6.78743e+7 
           4230      6.70402e+7 
           4250      6.62293e+7 
           4270      6.53603e+7 
           4290      6.43654e+7 
           4310       6.2871e+7 
           4330      5.11317e+7 
           4350      4.33898e+7 
           4370      6.03555e+7 
           4390      6.05614e+7 
           4410      6.00715e+7 
           4430      5.94477e+7 
           4450       5.8751e+7 
           4470      5.80265e+7 
           4490      5.73799e+7 
           4510       5.6724e+7 
           4530      5.60682e+7 
           4550       5.5418e+7 
           4570      5.47879e+7 
           4590      5.41631e+7 
           4610      5.35488e+7 
           4630      5.29395e+7 
           4650      5.23423e+7 
           4670      5.17515e+7 
           4690      5.11706e+7 
           4710      5.05909e+7 
           4730      5.00344e+7 
           4750       4.9477e+7 
           4770      4.89288e+7 
           4790      4.82962e+7 
           4810      4.76137e+7 
           4830      4.65096e+7 
           4850      3.92145e+7 
           4870       3.1718e+7 
           4890      4.45639e+7 
           4910      4.50158e+7 
           4930      4.46931e+7 
           4950      4.43358e+7 
           4970      4.38637e+7 
           4990      4.33963e+7 
           5010      4.29275e+7 
           5030      4.24796e+7 
           5050        4.203e+7 
           5070      4.15892e+7 
           5090      4.11525e+7 
           5110      4.07227e+7 
           5130       4.0297e+7 
           5150      3.98796e+7 
           5170      3.94574e+7 
           5190      3.90546e+7 
           5210      3.86582e+7 
           5230      3.82598e+7 
           5250      3.78704e+7 
           5270      3.74832e+7 
           5290      3.71034e+7 
           5310      3.67268e+7 
           5330      3.63563e+7 
           5350      3.59915e+7 
           5370      3.56298e+7 
           5390      3.52738e+7 
           5410      3.49221e+7 
           5430      3.45746e+7 
           5450      3.42326e+7 
           5470      3.38946e+7 
           5490      3.35606e+7 
           5510      3.32317e+7 
           5530      3.29068e+7 
           5550      3.25857e+7 
           5570      3.22683e+7 
           5590      3.19558e+7 
           5610       3.1647e+7 
           5630      3.13417e+7 
           5650        3.104e+7 
           5670      3.07429e+7 
           5690      3.04492e+7 
           5710      3.01588e+7 
           5730      2.98729e+7 
           5750      2.95891e+7 
           5770      2.93097e+7 
           5790      2.90345e+7 
           5810      2.87613e+7 
           5830      2.84923e+7 
           5850      2.82262e+7 
           5870      2.79555e+7 
           5890       2.7703e+7 
           5910      2.74468e+7 
           5930      2.71934e+7 
           5950      2.69438e+7 
           5970       2.6696e+7 
           5990      2.64518e+7 
           6010      2.62104e+7 
           6030      2.59715e+7 
           6050      2.57363e+7 
           6070      2.55036e+7 
           6090      2.52733e+7 
           6110      2.50456e+7 
           6130      2.48213e+7 
           6150      2.45993e+7 
           6170      2.43798e+7 
           6190      2.41625e+7 
           6210      2.39485e+7 
           6230      2.37367e+7 
           6250      2.35262e+7 
           6270      2.33199e+7 
           6290      2.31147e+7 
           6310      2.29116e+7 
           6330      2.27116e+7 
           6350      2.25136e+7 
           6370      2.23177e+7 
           6390      2.21247e+7 
           6410      2.19327e+7 
           6430      2.17437e+7 
           6450      2.15565e+7 
           6470      2.13694e+7 
           6490      2.11306e+7 
           6510      2.08907e+7 
           6530      2.04962e+7 
           6550      1.85263e+7 
           6570      1.47891e+7 
           6590      1.96553e+7 
           6610      1.99651e+7 
           6630      1.98911e+7 
           6650      1.97733e+7 
           6670       1.9627e+7 
           6690      1.94635e+7 
           6710      1.93017e+7 
           6730      1.91414e+7 
           6750      1.89826e+7 
           6770      1.88254e+7 
           6790      1.86697e+7 
           6810      1.85164e+7 
           6830      1.83637e+7 
           6850      1.82132e+7 
           6870      1.80642e+7 
           6890      1.79167e+7 
           6910      1.77705e+7 
           6930      1.76257e+7 
           6950      1.74831e+7 
           6970      1.73418e+7 
           6990      1.72018e+7 
           7010      1.70632e+7 
           7030      1.69266e+7 
           7050      1.67905e+7 
           7070      1.66565e+7 
           7090      1.65237e+7 
           7110      1.63921e+7 
           7130      1.62617e+7 
           7150      1.61325e+7 
           7170      1.60053e+7 
           7190      1.58792e+7 
           7210      1.57536e+7 
           7230      1.56298e+7 
           7250      1.55078e+7 
           7270      1.53863e+7 
           7290      1.52658e+7 
           7310      1.51471e+7 
           7330      1.50295e+7 
           7350      1.49123e+7 
           7370      1.47968e+7 
           7390       1.4683e+7 
           7410      1.45695e+7 
           7430      1.44571e+7 
           7450      1.43463e+7 
           7470      1.42365e+7 
           7490      1.41277e+7 
           7510      1.40198e+7 
           7530      1.39129e+7 
           7550      1.38075e+7 
           7570      1.37024e+7 
           7590      1.35989e+7 
           7610      1.34963e+7 
           7630      1.33946e+7 
           7650      1.32938e+7 
           7670      1.31938e+7 
           7690      1.30953e+7 
           7710       1.2997e+7 
           7730      1.29002e+7 
           7750      1.28043e+7 
           7770      1.27066e+7 
           7790      1.26147e+7 
           7810      1.25212e+7 
           7830       1.2429e+7 
           7850      1.23371e+7 
           7870      1.22464e+7 
           7890      1.21566e+7 
           7910      1.20675e+7 
           7930      1.19792e+7 
           7950      1.18915e+7 
           7970      1.18052e+7 
           7990      1.17191e+7 
           8010      1.16342e+7 
           8030        1.155e+7 
           8050      1.14666e+7 
           8070      1.13838e+7 
           8090      1.13016e+7 
           8110      1.12202e+7 
           8130        1.114e+7 
           8150      1.10604e+7 
           8170      1.09809e+7 
           8190      1.09026e+7 
           8210      1.08557e+7 
           8230      1.07858e+7 
           8250      1.07175e+7 
           8270      1.06476e+7 
           8290       1.0571e+7 
           8310       1.0482e+7 
           8330      1.03813e+7 
           8350      1.03062e+7 
           8370      1.01123e+7 
           8390       1.0061e+7 
           8410      9.93968e+6 
           8430      1.00733e+7 
           8450      1.00458e+7 
           8470      9.51474e+6 
           8490      1.03768e+7 
           8510      9.37505e+6 
           8530      1.05287e+7 
           8550      9.05511e+6 
           8570      1.07246e+7 
           8590      9.89304e+6 
