# Kurucz ODFNEW /NOVER (2003)
# teff = 28000 K (value for the effective temperature for the model. Temperatures are given in K)
# logg = 4.5 log(cm/s2) (value for Log(G) for the model.)
# meta = 0.5  (value for the Metallicity for the model.)
# lh = 1.25  (l/Hp where l is the  mixing length of the convective element and Hp is the pressure scale height)
# vtur = 2 km/s (Microturbulence velocity)
# alpha = 0.4  (Alpha)
#
# column 1: WAVELENGTH (ANGSTROM), Wavelength in Angstrom
# column 2: FLUX (ERG/CM2/S/A), Flux in erg/cm2/s/A
          147.2     6.09086e-11 
            151     2.11009e-10 
          155.2     7.77481e-10 
          158.8      2.25508e-9 
            162      5.59582e-9 
            166      1.66176e-8 
          170.3      5.02859e-8 
          173.4      1.09526e-7 
          176.8      2.47551e-7 
          180.2      5.42911e-7 
          181.7      7.59406e-7 
          186.1      1.98692e-6 
            191      5.54132e-6 
          193.9      9.92846e-6 
          198.4      2.37403e-5 
          201.8      4.47654e-5 
            205      7.98388e-5 
          210.5     0.000208122 
          216.2     0.000534607 
          219.8     0.000947983 
            223      0.00155445 
          226.8      0.00286834 
            230       0.0492932 
            234        0.104661 
            240        0.223441 
          246.5        0.492111 
          252.4          0.9813 
          256.8         1.56373 
            260         2.37607 
            264         3.51514 
          268.5         5.71582 
          273.5         9.37917 
          278.5          14.889 
            284         28.0067 
            290         46.8829 
            296         77.1122 
            301         114.419 
            308         215.195 
            318         472.085 
            328         903.305 
            338         1801.17 
            348         3320.46 
            357         20433.1 
            366         52826.9 
            375         75021.7 
            385          126780 
            395          405523 
            405          565559 
            414          980882 
            422      1.30236e+6 
            430      1.78281e+6 
            441      2.48704e+6 
            451       3.1105e+6 
            460      3.75465e+6 
            470      5.10384e+6 
            480      6.60764e+6 
            490       8.4404e+6 
            500      1.04173e+7 
            506      2.74297e+7 
            512      2.51408e+8 
            520      2.49555e+8 
            530       2.5911e+8 
            540      2.50856e+8 
            550      3.87128e+8 
            560      4.71224e+8 
            570      5.16255e+8 
            580      4.65973e+8 
            590       5.8886e+8 
            600      5.46823e+8 
            610      6.75946e+8 
            620      7.32123e+8 
            630       7.2728e+8 
            640      6.10659e+8 
            650      4.97327e+8 
            658      6.26815e+8 
            665      7.90124e+8 
            675      8.49414e+8 
            685      7.77922e+8 
            695      1.14861e+9 
            705      1.00711e+9 
            716      1.27836e+9 
            726      1.23166e+9 
            735      1.31577e+9 
            745       1.4518e+9 
            755      1.49192e+9 
            765      1.59427e+9 
            775      1.68737e+9 
            785      1.78215e+9 
            795      1.76811e+9 
            805      1.77905e+9 
            815      1.78387e+9 
            825      1.95138e+9 
            835      1.43473e+9 
            845      1.89128e+9 
            855      1.87235e+9 
            865      1.97859e+9 
            875      2.05384e+9 
            885      2.19638e+9 
            895      2.26186e+9 
            905      2.17047e+9 
            915      2.55801e+9 
            925     1.17128e+10 
            935     2.37102e+10 
            945     4.02359e+10 
            955     4.85274e+10 
            965     5.59698e+10 
            975     1.01761e+10 
            985     4.10074e+10 
            995     3.94414e+10 
           1005     4.59114e+10 
           1015     4.97906e+10 
           1025      2.9664e+10 
           1035     4.19415e+10 
           1045     6.07514e+10 
           1055     5.51576e+10 
           1065     3.94092e+10 
           1075      4.6875e+10 
           1085     4.36116e+10 
           1095     4.85308e+10 
           1105     4.27908e+10 
           1115      3.9757e+10 
           1125     2.59455e+10 
           1135     4.14213e+10 
           1145     3.76722e+10 
           1155     3.73672e+10 
           1165     3.74752e+10 
           1175     1.92981e+10 
           1185     3.43134e+10 
           1195     3.18605e+10 
           1205     2.12921e+10 
           1215     1.95474e+10 
           1225     2.98045e+10 
           1235      3.4491e+10 
           1245     3.28406e+10 
           1255     3.23839e+10 
           1265     3.37102e+10 
           1275     3.50629e+10 
           1285     3.51627e+10 
           1295     2.29831e+10 
           1305     2.55522e+10 
           1315     3.45178e+10 
           1325     3.18658e+10 
           1335     3.12971e+10 
           1345     3.05253e+10 
           1355     3.07166e+10 
           1365     2.73829e+10 
           1375     2.58582e+10 
           1385     2.35654e+10 
           1395      1.2471e+10 
           1405     1.53698e+10 
           1415     2.15344e+10 
           1425     2.09846e+10 
           1435     2.25245e+10 
           1442     2.31379e+10 
           1447     2.28667e+10 
           1455      2.1655e+10 
           1465     1.96507e+10 
           1475     2.05627e+10 
           1485     2.01756e+10 
           1495     1.95965e+10 
           1505      1.7203e+10 
           1512     1.57851e+10 
           1517     1.63018e+10 
           1525     1.66753e+10 
           1535     1.35242e+10 
           1545     1.23281e+10 
           1555     1.22049e+10 
           1565     1.37054e+10 
           1575     1.48034e+10 
           1585     1.48847e+10 
           1595     1.48173e+10 
           1605     1.51553e+10 
           1615     1.45176e+10 
           1625      1.4358e+10 
           1635     1.53413e+10 
           1645     1.56162e+10 
           1655       1.523e+10 
           1665      1.5405e+10 
           1672     1.42979e+10 
           1677     1.67888e+10 
           1685     1.59132e+10 
           1695     1.49064e+10 
           1705     1.45921e+10 
           1715     1.36834e+10 
           1725     1.31011e+10 
           1735     1.38503e+10 
           1745     1.37081e+10 
           1755     1.36331e+10 
           1765     1.35939e+10 
           1775     1.24224e+10 
           1785      1.2798e+10 
           1795     1.31246e+10 
           1805     1.32432e+10 
           1815     1.18032e+10 
           1825     1.22137e+10 
           1835     1.18236e+10 
           1845     1.06871e+10 
           1855     1.11014e+10 
           1865     1.12048e+10 
           1875     1.14478e+10 
           1885     1.02154e+10 
           1895      9.58361e+9 
           1905     1.04267e+10 
           1915      9.70365e+9 
           1925      9.04171e+9 
           1935      9.83412e+9 
           1945     1.00819e+10 
           1955      8.85032e+9 
           1967      9.78656e+9 
           1976     1.03093e+10 
           1984      9.46624e+9 
           1995      9.37729e+9 
           2005      9.76304e+9 
           2015      9.64318e+9 
           2025      9.78704e+9 
           2035      8.95086e+9 
           2045      9.13352e+9 
           2055      8.36516e+9 
           2065      8.28938e+9 
           2074      8.59568e+9 
           2078      7.89965e+9 
           2085      8.41769e+9 
           2095      8.06174e+9 
           2105      8.53269e+9 
           2115      8.62821e+9 
           2125      8.59475e+9 
           2135      8.44087e+9 
           2145      8.02533e+9 
           2155       8.3847e+9 
           2165      8.25196e+9 
           2175      8.18183e+9 
           2185      7.88041e+9 
           2195      8.01621e+9 
           2205      8.02347e+9 
           2215      7.82987e+9 
           2225      7.62267e+9 
           2235      7.49631e+9 
           2245      7.55249e+9 
           2255       7.2548e+9 
           2265      7.37417e+9 
           2275      7.24099e+9 
           2285      7.11116e+9 
           2295      6.14509e+9 
           2305        6.853e+9 
           2315        6.669e+9 
           2325      6.63239e+9 
           2335      6.44594e+9 
           2345      6.54091e+9 
           2355       6.4454e+9 
           2365      6.39013e+9 
           2375      6.19999e+9 
           2385      6.13413e+9 
           2395      6.05135e+9 
           2405      5.97912e+9 
           2415      5.88391e+9 
           2425      5.87155e+9 
           2435      5.69342e+9 
           2445      5.69806e+9 
           2455      5.67917e+9 
           2465      5.58569e+9 
           2475      5.46937e+9 
           2485      5.20502e+9 
           2495      3.69472e+9 
           2505      4.89398e+9 
           2513      4.87486e+9 
           2518      5.01048e+9 
           2525      5.09064e+9 
           2535      5.08444e+9 
           2545      4.80039e+9 
           2555       4.9007e+9 
           2565      4.78451e+9 
           2575      4.84225e+9 
           2585      4.77921e+9 
           2595      4.73338e+9 
           2605      4.68717e+9 
           2615      4.59426e+9 
           2625      4.57195e+9 
           2635      4.51876e+9 
           2645      4.44648e+9 
           2655      4.41631e+9 
           2665      4.17604e+9 
           2675      4.20084e+9 
           2685      4.21977e+9 
           2695      4.03456e+9 
           2705      3.90702e+9 
           2715      3.93742e+9 
           2725      3.95642e+9 
           2735      3.91147e+9 
           2745      3.84118e+9 
           2755       3.8195e+9 
           2765      3.76413e+9 
           2775      3.81929e+9 
           2785      3.73421e+9 
           2795      3.55259e+9 
           2805      3.61445e+9 
           2815      3.64306e+9 
           2825      3.59328e+9 
           2835      3.44006e+9 
           2845      3.49425e+9 
           2855      3.40987e+9 
           2865      3.41122e+9 
           2875      3.35963e+9 
           2885      3.31561e+9 
           2895      3.25624e+9 
           2910      3.15465e+9 
           2930      3.16575e+9 
           2950      3.06565e+9 
           2970      3.01357e+9 
           2990      2.92371e+9 
           3010      2.76901e+9 
           3030       2.7643e+9 
           3050      2.74457e+9 
           3070      2.72659e+9 
           3090      2.57426e+9 
           3110      2.59906e+9 
           3130      2.50835e+9 
           3150      2.48173e+9 
           3170      2.40323e+9 
           3190      2.37045e+9 
           3210      2.33454e+9 
           3230      2.26275e+9 
           3250      2.24019e+9 
           3270       2.1763e+9 
           3290      2.13656e+9 
           3310      2.09201e+9 
           3330      2.03892e+9 
           3350      2.00673e+9 
           3370      1.95581e+9 
           3390      1.93942e+9 
           3410      1.89925e+9 
           3430      1.86791e+9 
           3450      1.81843e+9 
           3470      1.78401e+9 
           3490       1.7446e+9 
           3510      1.71377e+9 
           3530      1.69731e+9 
           3550      1.65916e+9 
           3570      1.63134e+9 
           3590      1.57919e+9 
           3610        1.559e+9 
           3630      1.52977e+9 
           3640      1.52698e+9 
           3650      1.50203e+9 
           3670      1.48573e+9 
           3690      1.45827e+9 
           3710      1.39203e+9 
           3730      1.34633e+9 
           3750      1.35127e+9 
           3770      1.31322e+9 
           3790       1.3705e+9 
           3810      1.41395e+9 
           3830      1.24433e+9 
           3850      1.41212e+9 
           3870      1.37897e+9 
           3890      1.16894e+9 
           3910      1.41043e+9 
           3930      1.35931e+9 
           3950      1.32312e+9 
           3970      1.08296e+9 
           3990      1.29547e+9 
           4010      1.29214e+9 
           4030      1.22029e+9 
           4050      1.23927e+9 
           4070      1.15589e+9 
           4090      1.07823e+9 
           4110      9.76743e+8 
           4130      1.12167e+9 
           4150      1.11432e+9 
           4170      1.12192e+9 
           4190      1.10786e+9 
           4210      1.10011e+9 
           4230      1.06994e+9 
           4250      1.02477e+9 
           4270      9.97565e+8 
           4290      9.74099e+8 
           4310      9.35025e+8 
           4330      8.69985e+8 
           4350      8.07293e+8 
           4370      8.95716e+8 
           4390      9.05479e+8 
           4410      8.92771e+8 
           4430      8.93252e+8 
           4450      8.73008e+8 
           4470      8.39326e+8 
           4490      8.50851e+8 
           4510      8.46359e+8 
           4530      8.36736e+8 
           4550      8.26339e+8 
           4570       8.1133e+8 
           4590      7.95441e+8 
           4610      7.69019e+8 
           4630      7.57592e+8 
           4650      7.24781e+8 
           4670      7.36637e+8 
           4690      7.32149e+8 
           4710      6.97143e+8 
           4730      7.13117e+8 
           4750      6.99961e+8 
           4770      7.04336e+8 
           4790      6.90372e+8 
           4810      6.71063e+8 
           4830      6.56151e+8 
           4850      6.12889e+8 
           4870      5.50078e+8 
           4890       6.2945e+8 
           4910      6.23911e+8 
           4930       6.0294e+8 
           4950      6.01798e+8 
           4970      6.04179e+8 
           4990      5.93203e+8 
           5010      5.62075e+8 
           5030      5.70851e+8 
           5050      5.58923e+8 
           5070       5.6015e+8 
           5090      5.47745e+8 
           5110      5.37709e+8 
           5130      5.25336e+8 
           5150      5.20937e+8 
           5170      5.16548e+8 
           5190      5.11022e+8 
           5210      5.01346e+8 
           5230      4.96803e+8 
           5250      4.89964e+8 
           5270      4.80202e+8 
           5290      4.76699e+8 
           5310       4.6912e+8 
           5330       4.6302e+8 
           5350      4.55484e+8 
           5370       4.5087e+8 
           5390      4.43484e+8 
           5410      4.37997e+8 
           5430      4.31876e+8 
           5450       4.2506e+8 
           5470      4.19376e+8 
           5490      4.14326e+8 
           5510      4.10244e+8 
           5530      4.02884e+8 
           5550       3.9946e+8 
           5570      3.93694e+8 
           5590       3.8876e+8 
           5610      3.83132e+8 
           5630      3.79001e+8 
           5650      3.70988e+8 
           5670      3.64239e+8 
           5690      3.57506e+8 
           5710      3.55814e+8 
           5730      3.53117e+8 
           5750       3.4638e+8 
           5770      3.45194e+8 
           5790      3.40004e+8 
           5810      3.35692e+8 
           5830      3.30067e+8 
           5850      3.26824e+8 
           5870      3.13656e+8 
           5890      3.14831e+8 
           5910      3.12509e+8 
           5930       3.0853e+8 
           5950      3.04193e+8 
           5970       3.0386e+8 
           5990       2.9734e+8 
           6010      2.95657e+8 
           6030      2.90787e+8 
           6050      2.87664e+8 
           6070      2.85004e+8 
           6090      2.81632e+8 
           6110      2.78096e+8 
           6130      2.75091e+8 
           6150      2.69092e+8 
           6170      2.66588e+8 
           6190       2.6475e+8 
           6210       2.6211e+8 
           6230      2.59216e+8 
           6250      2.54725e+8 
           6270       2.5223e+8 
           6290      2.49705e+8 
           6310      2.46005e+8 
           6330      2.44021e+8 
           6350      2.39711e+8 
           6370      2.38217e+8 
           6390      2.35298e+8 
           6410      2.32521e+8 
           6430      2.30312e+8 
           6450      2.27428e+8 
           6470      2.22838e+8 
           6490      2.20796e+8 
           6510       2.1833e+8 
           6530      2.14335e+8 
           6550      2.06346e+8 
           6570      1.82216e+8 
           6590      2.05879e+8 
           6610      2.06204e+8 
           6630       2.0467e+8 
           6650      2.01984e+8 
           6670      1.97921e+8 
           6690      1.95915e+8 
           6710      1.95728e+8 
           6730      1.92628e+8 
           6750      1.91753e+8 
           6770       1.8966e+8 
           6790      1.85235e+8 
           6810       1.8492e+8 
           6830      1.82458e+8 
           6850      1.81217e+8 
           6870      1.79118e+8 
           6890      1.76643e+8 
           6910      1.73918e+8 
           6930      1.73488e+8 
           6950      1.71766e+8 
           6970      1.69944e+8 
           6990      1.67947e+8 
           7010      1.66047e+8 
           7030      1.64166e+8 
           7050      1.62531e+8 
           7070       1.5801e+8 
           7090      1.58709e+8 
           7110      1.55649e+8 
           7130      1.54199e+8 
           7150      1.53654e+8 
           7170       1.5249e+8 
           7190      1.51097e+8 
           7210      1.49499e+8 
           7230      1.45293e+8 
           7250      1.45732e+8 
           7270      1.44853e+8 
           7290       1.4211e+8 
           7310      1.41798e+8 
           7330      1.40247e+8 
           7350      1.38892e+8 
           7370      1.37571e+8 
           7390      1.36158e+8 
           7410      1.34772e+8 
           7430      1.33236e+8 
           7450       1.3191e+8 
           7470       1.2897e+8 
           7490      1.28934e+8 
           7510      1.27921e+8 
           7530      1.26312e+8 
           7550      1.25485e+8 
           7570      1.24251e+8 
           7590      1.22891e+8 
           7610      1.21185e+8 
           7630      1.20467e+8 
           7650      1.19213e+8 
           7670      1.18182e+8 
           7690      1.16938e+8 
           7710      1.15781e+8 
           7730      1.14388e+8 
           7750      1.13604e+8 
           7770      1.11672e+8 
           7790      1.11422e+8 
           7810      1.10302e+8 
           7830      1.09291e+8 
           7850       1.0813e+8 
           7870      1.06626e+8 
           7890      1.05245e+8 
           7910      1.04846e+8 
           7930      1.03802e+8 
           7950      1.02744e+8 
           7970      1.01861e+8 
           7990      1.00762e+8 
           8010      9.99717e+7 
           8030      9.89894e+7 
           8050      9.81493e+7 
           8070       9.7299e+7 
           8090      9.62775e+7 
           8110      9.42051e+7 
           8130      9.45572e+7 
           8150      9.36854e+7 
           8170      9.29394e+7 
           8190      9.08629e+7 
           8210      9.03537e+7 
           8230      8.91753e+7 
           8250      8.93191e+7 
           8270      8.68991e+7 
           8290      8.74177e+7 
           8310      8.68992e+7 
           8330      8.62001e+7 
           8350      8.49286e+7 
           8370      8.42436e+7 
           8390      8.38478e+7 
           8410      8.29061e+7 
           8430      8.23383e+7 
           8450      8.07513e+7 
           8470      8.08588e+7 
           8490      7.98563e+7 
           8510      7.90756e+7 
           8530      7.85033e+7 
           8550      7.73738e+7 
           8570      7.75773e+7 
