# Kurucz ODFNEW /NOVER (2003)
# teff = 28000 K (value for the effective temperature for the model. Temperatures are given in K)
# logg = 5 log(cm/s2) (value for Log(G) for the model.)
# meta = -0.5  (value for the Metallicity for the model.)
# lh = 1.25  (l/Hp where l is the  mixing length of the convective element and Hp is the pressure scale height)
# vtur = 2 km/s (Microturbulence velocity)
# alpha = 0.4  (Alpha)
#
# column 1: WAVELENGTH (ANGSTROM), Wavelength in Angstrom
# column 2: FLUX (ERG/CM2/S/A), Flux in erg/cm2/s/A
          147.2     7.82639e-11 
            151      2.7277e-10 
          155.2      1.01526e-9 
          158.8      2.97829e-9 
            162      7.48449e-9 
            166      2.26371e-8 
          170.3      7.03797e-8 
          173.4      1.54751e-7 
          176.8       3.5625e-7 
          180.2      7.96837e-7 
          181.7      1.12638e-6 
          186.1      3.02291e-6 
            191      8.64027e-6 
          193.9      1.57146e-5 
          198.4      3.84859e-5 
          201.8      7.38496e-5 
            205     0.000133848 
          210.5     0.000357504 
          216.2     0.000940565 
          219.8      0.00169003 
            223       0.0028014 
          226.8      0.00502304 
            230        0.425939 
            234        0.951937 
            240         1.96279 
          246.5          4.1435 
          252.4         7.99458 
          256.8         12.0098 
            260         17.8813 
            264         25.6429 
          268.5         40.0698 
          273.5         63.4125 
          278.5         98.4247 
            284         167.066 
            290         269.995 
            296         430.064 
            301         619.892 
            308         1024.19 
            318         2156.16 
            328         3948.19 
            338         7414.62 
            348         12975.7 
            357         31613.6 
            366         53878.8 
            375         78091.8 
            385          122493 
            395          193690 
            405          279082 
            414          394015 
            422          502062 
            430          661487 
            441          930545 
            451      1.25778e+6 
            460      1.59024e+6 
            470      2.09734e+6 
            480      2.69368e+6 
            490      3.46619e+6 
            500      4.40593e+6 
            506      1.95901e+7 
            512      9.19362e+7 
            520      1.00413e+8 
            530      1.17707e+8 
            540      1.17121e+8 
            550      1.53581e+8 
            560      1.71222e+8 
            570       1.9451e+8 
            580      1.87155e+8 
            590      2.28094e+8 
            600      2.42844e+8 
            610      2.71881e+8 
            620      2.91436e+8 
            630      3.10714e+8 
            640       3.0819e+8 
            650      3.35311e+8 
            658       3.6243e+8 
            665      3.86692e+8 
            675      3.95867e+8 
            685      4.04649e+8 
            695       4.8073e+8 
            705      4.85638e+8 
            716      5.37145e+8 
            726      5.52576e+8 
            735      5.75821e+8 
            745      6.26544e+8 
            755      6.56141e+8 
            765      6.90469e+8 
            775      7.28464e+8 
            785      7.69323e+8 
            795      7.88478e+8 
            805      8.17669e+8 
            815      8.38393e+8 
            825      8.89649e+8 
            835      8.40046e+8 
            845      9.27017e+8 
            855       9.5251e+8 
            865      9.97076e+8 
            875      1.04001e+9 
            885      1.09225e+9 
            895      1.12935e+9 
            905      1.13475e+9 
            915      1.28414e+9 
            925       4.9419e+9 
            935     1.15894e+10 
            945     2.91681e+10 
            955     4.09438e+10 
            965     5.53306e+10 
            975     1.49019e+10 
            985     5.87329e+10 
            995     5.33078e+10 
           1005     5.77352e+10 
           1015     5.36923e+10 
           1025     1.85502e+10 
           1035     4.49905e+10 
           1045     6.28972e+10 
           1055     5.97575e+10 
           1065     4.93238e+10 
           1075     5.44283e+10 
           1085     4.93463e+10 
           1095     5.43371e+10 
           1105     4.94829e+10 
           1115     4.80539e+10 
           1125     3.99582e+10 
           1135     4.80334e+10 
           1145     4.24452e+10 
           1155     4.39726e+10 
           1165     4.37095e+10 
           1175      3.1339e+10 
           1185     4.08407e+10 
           1195     3.72818e+10 
           1205      2.7699e+10 
           1215     1.34829e+10 
           1225     3.06455e+10 
           1235     3.65954e+10 
           1245     3.61557e+10 
           1255     3.54646e+10 
           1265      3.5377e+10 
           1275     3.56678e+10 
           1285     3.48798e+10 
           1295     2.75613e+10 
           1305     2.85297e+10 
           1315     3.29535e+10 
           1325     3.10525e+10 
           1335      3.0162e+10 
           1345      2.9459e+10 
           1355     2.97419e+10 
           1365     2.75345e+10 
           1375     2.69402e+10 
           1385     2.65683e+10 
           1395     2.03946e+10 
           1405     2.16836e+10 
           1415     2.42871e+10 
           1425     2.32981e+10 
           1435     2.36203e+10 
           1442     2.40891e+10 
           1447     2.36152e+10 
           1455     2.29541e+10 
           1465     2.18958e+10 
           1475     2.16916e+10 
           1485     2.11921e+10 
           1495     2.07477e+10 
           1505      1.9129e+10 
           1512     1.80806e+10 
           1517      1.8379e+10 
           1525     1.84378e+10 
           1535     1.63868e+10 
           1545     1.61359e+10 
           1555     1.54532e+10 
           1565     1.61691e+10 
           1575     1.66418e+10 
           1585     1.63545e+10 
           1595     1.63307e+10 
           1605     1.58807e+10 
           1615     1.53856e+10 
           1625     1.53353e+10 
           1635      1.5595e+10 
           1645     1.52375e+10 
           1655     1.51681e+10 
           1665     1.50707e+10 
           1672      1.4589e+10 
           1677     1.53313e+10 
           1685     1.48995e+10 
           1695     1.43413e+10 
           1705     1.38431e+10 
           1715      1.3335e+10 
           1725     1.29808e+10 
           1735     1.31658e+10 
           1745     1.29448e+10 
           1755     1.28747e+10 
           1765     1.24874e+10 
           1775     1.20338e+10 
           1785     1.20058e+10 
           1795     1.21051e+10 
           1805     1.20418e+10 
           1815     1.13167e+10 
           1825     1.14242e+10 
           1835     1.11124e+10 
           1845     1.02345e+10 
           1855     1.02555e+10 
           1865     1.03484e+10 
           1875     1.04316e+10 
           1885      9.56756e+9 
           1895      8.98721e+9 
           1905      9.47205e+9 
           1915      9.05533e+9 
           1925      8.66708e+9 
           1935       8.9987e+9 
           1945      9.13047e+9 
           1955      8.38538e+9 
           1967      8.76779e+9 
           1976      9.09334e+9 
           1984      8.48065e+9 
           1995      8.30163e+9 
           2005      8.39595e+9 
           2015      8.36469e+9 
           2025       8.4527e+9 
           2035      7.92781e+9 
           2045      7.90343e+9 
           2055      7.53776e+9 
           2065      7.55098e+9 
           2074      7.70349e+9 
           2078      7.32305e+9 
           2085      7.41244e+9 
           2095      7.13387e+9 
           2105      7.34265e+9 
           2115      7.30724e+9 
           2125      7.33716e+9 
           2135      7.17817e+9 
           2145      6.92962e+9 
           2155      7.01797e+9 
           2165      6.93384e+9 
           2175      6.81376e+9 
           2185      6.70166e+9 
           2195      6.67014e+9 
           2205      6.58212e+9 
           2215      6.49026e+9 
           2225      6.35185e+9 
           2235      6.24377e+9 
           2245      6.22303e+9 
           2255      6.08284e+9 
           2265      6.05553e+9 
           2275       5.9698e+9 
           2285      5.89479e+9 
           2295      5.59548e+9 
           2305      5.71062e+9 
           2315      5.60431e+9 
           2325      5.53578e+9 
           2335      5.41322e+9 
           2345      5.39394e+9 
           2355      5.34021e+9 
           2365      5.27137e+9 
           2375      5.17425e+9 
           2385       5.1128e+9 
           2395      5.04274e+9 
           2405      4.97569e+9 
           2415      4.89716e+9 
           2425       4.8664e+9 
           2435      4.75974e+9 
           2445      4.71931e+9 
           2455      4.67494e+9 
           2465      4.61817e+9 
           2475      4.54907e+9 
           2485      4.48331e+9 
           2495      4.08222e+9 
           2505      4.34471e+9 
           2513      4.19903e+9 
           2518      4.26223e+9 
           2525      4.25222e+9 
           2535      4.20696e+9 
           2545      4.07375e+9 
           2555      4.07591e+9 
           2565      4.02117e+9 
           2575      4.00148e+9 
           2585      3.95609e+9 
           2595      3.90843e+9 
           2605      3.87554e+9 
           2615      3.82755e+9 
           2625      3.78745e+9 
           2635      3.74102e+9 
           2645      3.69329e+9 
           2655      3.64773e+9 
           2665      3.56709e+9 
           2675      3.53737e+9 
           2685      3.52141e+9 
           2695      3.42292e+9 
           2705      3.40445e+9 
           2715      3.37436e+9 
           2725      3.31479e+9 
           2735      3.29795e+9 
           2745      3.24276e+9 
           2755      3.21668e+9 
           2765      3.15729e+9 
           2775      3.16319e+9 
           2785      3.11633e+9 
           2795      3.00674e+9 
           2805      3.02364e+9 
           2815      3.01789e+9 
           2825      2.95082e+9 
           2835      2.88354e+9 
           2845      2.91259e+9 
           2855      2.86939e+9 
           2865       2.8426e+9 
           2875      2.80974e+9 
           2885      2.78043e+9 
           2895      2.74543e+9 
           2910      2.68948e+9 
           2930      2.63534e+9 
           2950       2.5547e+9 
           2970      2.52302e+9 
           2990      2.46169e+9 
           3010      2.39528e+9 
           3030      2.35716e+9 
           3050       2.3114e+9 
           3070       2.2668e+9 
           3090      2.18973e+9 
           3110      2.16722e+9 
           3130      2.11604e+9 
           3150      2.07582e+9 
           3170       2.0304e+9 
           3190      1.97155e+9 
           3210      1.95101e+9 
           3230      1.90605e+9 
           3250      1.87122e+9 
           3270      1.83304e+9 
           3290      1.79376e+9 
           3310      1.76132e+9 
           3330      1.72457e+9 
           3350      1.68927e+9 
           3370       1.6566e+9 
           3390      1.62705e+9 
           3410      1.59555e+9 
           3430      1.55852e+9 
           3450       1.5224e+9 
           3470      1.49589e+9 
           3490      1.46667e+9 
           3510      1.44177e+9 
           3530      1.41708e+9 
           3550      1.39084e+9 
           3570      1.37382e+9 
           3590      1.33316e+9 
           3610      1.31585e+9 
           3630       1.2871e+9 
           3640      1.28786e+9 
           3650      1.26161e+9 
           3670      1.24608e+9 
           3690       1.2248e+9 
           3710      1.18229e+9 
           3730      1.14441e+9 
           3750      1.12959e+9 
           3770      1.09508e+9 
           3790      1.13293e+9 
           3810      1.17456e+9 
           3830      1.02878e+9 
           3850      1.20477e+9 
           3870      1.22394e+9 
           3890      9.63029e+8 
           3910       1.2116e+9 
           3930      1.19742e+9 
           3950      1.16881e+9 
           3970      8.94371e+8 
           3990      1.11925e+9 
           4010      1.13088e+9 
           4030      1.05332e+9 
           4050      1.10514e+9 
           4070      1.05783e+9 
           4090      9.54002e+8 
           4110       8.3876e+8 
           4130      9.98338e+8 
           4150      9.98757e+8 
           4170      9.95959e+8 
           4190      9.81195e+8 
           4210      9.70513e+8 
           4230      9.51503e+8 
           4250      9.27239e+8 
           4270      9.02209e+8 
           4290      8.90848e+8 
           4310      8.63901e+8 
           4330      7.67086e+8 
           4350      6.99087e+8 
           4370      8.19766e+8 
           4390      7.97184e+8 
           4410      8.07984e+8 
           4430      7.99611e+8 
           4450      7.86333e+8 
           4470      7.31799e+8 
           4490      7.58968e+8 
           4510      7.53844e+8 
           4530      7.41603e+8 
           4550      7.28583e+8 
           4570      7.16177e+8 
           4590      7.04299e+8 
           4610       6.9182e+8 
           4630      6.81937e+8 
           4650      6.62092e+8 
           4670      6.59802e+8 
           4690      6.52286e+8 
           4710       6.2677e+8 
           4730      6.31534e+8 
           4750      6.20666e+8 
           4770      6.16019e+8 
           4790      6.05369e+8 
           4810      5.92203e+8 
           4830      5.76279e+8 
           4850         5.22e+8 
           4870       4.6597e+8 
           4890      5.49573e+8 
           4910      5.48356e+8 
           4930      5.25734e+8 
           4950      5.34302e+8 
           4970      5.29705e+8 
           4990      5.21594e+8 
           5010      5.02984e+8 
           5030      5.05961e+8 
           5050      4.94073e+8 
           5070      4.92176e+8 
           5090      4.84477e+8 
           5110      4.77345e+8 
           5130      4.69793e+8 
           5150      4.63211e+8 
           5170      4.57323e+8 
           5190      4.51218e+8 
           5210      4.43971e+8 
           5230      4.38778e+8 
           5250      4.32721e+8 
           5270      4.26459e+8 
           5290      4.20777e+8 
           5310      4.14887e+8 
           5330      4.09048e+8 
           5350      4.03086e+8 
           5370      3.98156e+8 
           5390      3.92496e+8 
           5410      3.87257e+8 
           5430      3.81778e+8 
           5450      3.76533e+8 
           5470      3.71518e+8 
           5490      3.66766e+8 
           5510      3.62011e+8 
           5530       3.5702e+8 
           5550       3.5247e+8 
           5570      3.47721e+8 
           5590      3.43261e+8 
           5610      3.38591e+8 
           5630      3.34347e+8 
           5650      3.29258e+8 
           5670      3.24514e+8 
           5690      3.19979e+8 
           5710      3.16829e+8 
           5730      3.13026e+8 
           5750      3.08266e+8 
           5770      3.05205e+8 
           5790       3.0129e+8 
           5810      2.97434e+8 
           5830       2.9349e+8 
           5850       2.8988e+8 
           5870      2.75794e+8 
           5890      2.80852e+8 
           5910      2.78825e+8 
           5930       2.7533e+8 
           5950      2.71716e+8 
           5970      2.68957e+8 
           5990      2.65264e+8 
           6010      2.62291e+8 
           6030      2.58938e+8 
           6050       2.5586e+8 
           6070      2.52827e+8 
           6090      2.49727e+8 
           6110      2.46732e+8 
           6130      2.43792e+8 
           6150      2.40376e+8 
           6170      2.37741e+8 
           6190      2.35067e+8 
           6210      2.32295e+8 
           6230      2.29544e+8 
           6250       2.2665e+8 
           6270      2.24066e+8 
           6290      2.21472e+8 
           6310      2.18755e+8 
           6330      2.16303e+8 
           6350      2.13336e+8 
           6370      2.11135e+8 
           6390      2.08764e+8 
           6410      2.06317e+8 
           6430      2.04042e+8 
           6450      2.01647e+8 
           6470      1.98998e+8 
           6490       1.9679e+8 
           6510      1.94151e+8 
           6530      1.90667e+8 
           6550      1.79678e+8 
           6570      1.58486e+8 
           6590      1.81971e+8 
           6610      1.83062e+8 
           6630      1.81702e+8 
           6650      1.79844e+8 
           6670      1.75591e+8 
           6690      1.73743e+8 
           6710      1.74056e+8 
           6730      1.71934e+8 
           6750       1.7028e+8 
           6770      1.68404e+8 
           6790      1.66081e+8 
           6810       1.6466e+8 
           6830      1.62793e+8 
           6850      1.61137e+8 
           6870      1.59386e+8 
           6890      1.57565e+8 
           6910      1.55787e+8 
           6930      1.54269e+8 
           6950      1.52642e+8 
           6970      1.51007e+8 
           6990      1.49388e+8 
           7010      1.47794e+8 
           7030      1.46214e+8 
           7050      1.44673e+8 
           7070      1.40623e+8 
           7090      1.41644e+8 
           7110      1.40118e+8 
           7130      1.38666e+8 
           7150      1.37214e+8 
           7170      1.35797e+8 
           7190      1.34394e+8 
           7210      1.33004e+8 
           7230      1.30518e+8 
           7250      1.30143e+8 
           7270      1.28922e+8 
           7290      1.26458e+8 
           7310      1.26274e+8 
           7330       1.2499e+8 
           7350      1.23725e+8 
           7370      1.22472e+8 
           7390       1.2123e+8 
           7410      1.20007e+8 
           7430      1.18762e+8 
           7450      1.17602e+8 
           7470       1.1615e+8 
           7490      1.15235e+8 
           7510      1.14074e+8 
           7530      1.12944e+8 
           7550      1.11857e+8 
           7570      1.10748e+8 
           7590      1.09648e+8 
           7610      1.08487e+8 
           7630      1.07498e+8 
           7650      1.06448e+8 
           7670      1.05407e+8 
           7690      1.04381e+8 
           7710      1.03365e+8 
           7730      1.02339e+8 
           7750      1.01366e+8 
           7770      1.00097e+8 
           7790      9.94218e+7 
           7810       9.8413e+7 
           7830      9.75176e+7 
           7850      9.66056e+7 
           7870      9.56225e+7 
           7890      9.45877e+7 
           7910      9.39233e+7 
           7930      9.30068e+7 
           7950      9.20626e+7 
           7970      9.11504e+7 
           7990      9.02757e+7 
           8010       8.9432e+7 
           8030       8.8543e+7 
           8050      8.77083e+7 
           8070      8.68981e+7 
           8090        8.602e+7 
           8110      8.50349e+7 
           8130       8.4543e+7 
           8150      8.37315e+7 
           8170      8.30399e+7 
           8190      8.20507e+7 
           8210      8.11875e+7 
           8230       8.0532e+7 
           8250      7.99427e+7 
           8270      7.87083e+7 
           8290       7.8455e+7 
           8310      7.77996e+7 
           8330      7.70627e+7 
           8350      7.60348e+7 
           8370      7.55536e+7 
           8390      7.50172e+7 
           8410      7.43359e+7 
           8430      7.36443e+7 
           8450      7.24203e+7 
           8470      7.23517e+7 
           8490      7.15356e+7 
           8510      7.10281e+7 
           8530      7.02502e+7 
           8550      6.95508e+7 
           8570      6.93087e+7 
