# Kurucz ODFNEW /NOVER (2003)
# teff = 22000 K (value for the effective temperature for the model. Temperatures are given in K)
# logg = 4 log(cm/s2) (value for Log(G) for the model.)
# meta = -2  (value for the Metallicity for the model.)
# lh = 1.25  (l/Hp where l is the  mixing length of the convective element and Hp is the pressure scale height)
# vtur = 2 km/s (Microturbulence velocity)
# alpha = 0  (Alpha)
#
# column 1: WAVELENGTH (ANGSTROM), Wavelength in Angstrom
# column 2: FLUX (ERG/CM2/S/A), Flux in erg/cm2/s/A
          147.2     1.00543e-17 
            151     6.04591e-17 
          155.2     3.97171e-16 
          158.8      1.8438e-15 
            162     6.81728e-15 
            166     3.25585e-14 
          170.3      1.6106e-13 
          173.4     4.85215e-13 
          176.8     1.55473e-12 
          180.2     4.76399e-12 
          181.7     7.70281e-12 
          186.1     3.01258e-11 
            191     1.27525e-10 
          193.9     2.89151e-10 
          198.4     9.80907e-10 
          201.8      2.37824e-9 
            205      5.32325e-9 
          210.5      2.00377e-8 
          216.2      7.34963e-8 
          219.8       1.6108e-7 
            223      3.16442e-7 
          226.8      6.87496e-7 
            230      2.27184e-6 
            234      5.22045e-6 
            240      1.50286e-5 
          246.5      4.44916e-5 
          252.4     0.000113961 
          256.8     0.000219807 
            260     0.000356215 
            264     0.000631558 
          268.5       0.0011763 
          273.5      0.00228962 
          278.5      0.00435208 
            284      0.00857982 
            290       0.0174424 
            296       0.0343759 
            301       0.0592573 
            308        0.122061 
            318        0.329573 
            328        0.828088 
            338         1.96378 
            348         4.41764 
            357         8.78825 
            366         16.8718 
            375          31.293 
            385         59.9514 
            395         110.794 
            405         198.152 
            414         325.788 
            422         496.921 
            430           744.8 
            441         1266.63 
            451         2001.62 
            460         2964.87 
            470         4499.09 
            480         6695.29 
            490         9786.34 
            500           14060 
            506         89222.3 
            512          264572 
            520          336381 
            530          480897 
            540          533493 
            550          765439 
            560          934484 
            570      1.15265e+6 
            580      1.17935e+6 
            590      1.57207e+6 
            600      1.98568e+6 
            610      2.37094e+6 
            620      2.77745e+6 
            630        3.261e+6 
            640      3.73575e+6 
            650      4.35455e+6 
            658       4.9159e+6 
            665      5.39872e+6 
            675        6.081e+6 
            685      6.89839e+6 
            695      7.96316e+6 
            705      8.94024e+6 
            716      1.01477e+7 
            726      1.13181e+7 
            735      1.25531e+7 
            745      1.40028e+7 
            755      1.55285e+7 
            765      1.71246e+7 
            775      1.88997e+7 
            785      2.07596e+7 
            795      2.26792e+7 
            805      2.47556e+7 
            815      2.68936e+7 
            825      2.92826e+7 
            835      3.13373e+7 
            845      3.41646e+7 
            855      3.66879e+7 
            865      3.96711e+7 
            875      4.26902e+7 
            885      4.58266e+7 
            895      4.89968e+7 
            905      5.16964e+7 
            915      8.69215e+7 
            925      5.83394e+8 
            935      2.11604e+9 
            945      7.79424e+9 
            955     1.20943e+10 
            965     1.61182e+10 
            975      5.66268e+9 
            985      1.9135e+10 
            995     1.87812e+10 
           1005     1.94108e+10 
           1015     1.69612e+10 
           1025      4.47647e+9 
           1035     1.46855e+10 
           1045     1.91489e+10 
           1055     1.87149e+10 
           1065     1.72032e+10 
           1075     1.79135e+10 
           1085     1.66516e+10 
           1095     1.75051e+10 
           1105     1.66606e+10 
           1115     1.65249e+10 
           1125     1.55615e+10 
           1135     1.59445e+10 
           1145     1.51097e+10 
           1155     1.53894e+10 
           1165     1.51516e+10 
           1175     1.32742e+10 
           1185     1.44489e+10 
           1195     1.32948e+10 
           1205     1.09286e+10 
           1215      3.10091e+9 
           1225     1.06414e+10 
           1235     1.27368e+10 
           1245      1.2725e+10 
           1255     1.24874e+10 
           1265     1.22377e+10 
           1275     1.22526e+10 
           1285      1.2011e+10 
           1295     1.10768e+10 
           1305     1.10425e+10 
           1315     1.13255e+10 
           1325     1.09425e+10 
           1335     1.04727e+10 
           1345     1.06128e+10 
           1355     1.05232e+10 
           1365     1.02257e+10 
           1375      1.0043e+10 
           1385      9.89044e+9 
           1395      9.43321e+9 
           1405      9.38243e+9 
           1415      9.32028e+9 
           1425      9.18232e+9 
           1435      9.04802e+9 
           1442      8.97416e+9 
           1447      8.87932e+9 
           1455      8.74333e+9 
           1465      8.55644e+9 
           1475      8.41727e+9 
           1485      8.25321e+9 
           1495      8.11164e+9 
           1505      7.88595e+9 
           1512      7.74867e+9 
           1517      7.72845e+9 
           1525       7.6121e+9 
           1535      7.32074e+9 
           1545      7.29051e+9 
           1555      7.08456e+9 
           1565      7.10014e+9 
           1575      7.03076e+9 
           1585      6.91593e+9 
           1595      6.82016e+9 
           1605      6.61654e+9 
           1615       6.5077e+9 
           1625      6.46651e+9 
           1635      6.39583e+9 
           1645      6.23463e+9 
           1655      6.17781e+9 
           1665      6.11415e+9 
           1672      5.96267e+9 
           1677      6.01518e+9 
           1685      5.93139e+9 
           1695      5.80824e+9 
           1705      5.69249e+9 
           1715      5.56802e+9 
           1725      5.49441e+9 
           1735      5.43539e+9 
           1745      5.33863e+9 
           1755      5.29411e+9 
           1765      5.10126e+9 
           1775      5.08364e+9 
           1785      5.03536e+9 
           1795      4.98081e+9 
           1805      4.92115e+9 
           1815      4.81206e+9 
           1825      4.75744e+9 
           1835       4.6829e+9 
           1845       4.5247e+9 
           1855       4.4096e+9 
           1865      4.39298e+9 
           1875      4.39768e+9 
           1885      4.22476e+9 
           1895      4.10203e+9 
           1905       4.1604e+9 
           1915      4.02984e+9 
           1925      3.96277e+9 
           1935      3.96538e+9 
           1945      3.95528e+9 
           1955      3.79861e+9 
           1967      3.82904e+9 
           1976      3.82637e+9 
           1984      3.72398e+9 
           1995      3.62037e+9 
           2005      3.64188e+9 
           2015      3.62067e+9 
           2025      3.59189e+9 
           2035      3.50801e+9 
           2045      3.46117e+9 
           2055      3.37333e+9 
           2065      3.34736e+9 
           2074      3.37066e+9 
           2078      3.29148e+9 
           2085      3.28709e+9 
           2095      3.21081e+9 
           2105      3.20801e+9 
           2115      3.17774e+9 
           2125      3.15316e+9 
           2135      3.10675e+9 
           2145      3.05353e+9 
           2155      3.02753e+9 
           2165      2.99022e+9 
           2175      2.94877e+9 
           2185       2.9145e+9 
           2195       2.8816e+9 
           2205      2.84335e+9 
           2215      2.80776e+9 
           2225      2.76873e+9 
           2235      2.73458e+9 
           2245      2.70481e+9 
           2255      2.66762e+9 
           2265      2.63868e+9 
           2275      2.60556e+9 
           2285      2.57602e+9 
           2295      2.52401e+9 
           2305      2.51208e+9 
           2315      2.47813e+9 
           2325      2.44961e+9 
           2335      2.41471e+9 
           2345      2.38327e+9 
           2355      2.36253e+9 
           2365      2.33087e+9 
           2375      2.30461e+9 
           2385      2.27247e+9 
           2395      2.24763e+9 
           2405        2.222e+9 
           2415      2.19427e+9 
           2425      2.17461e+9 
           2435      2.14669e+9 
           2445      2.12254e+9 
           2455      2.10016e+9 
           2465      2.07423e+9 
           2475      2.05092e+9 
           2485      2.02719e+9 
           2495      1.98416e+9 
           2505      1.98036e+9 
           2513      1.95136e+9 
           2518      1.95141e+9 
           2525      1.93499e+9 
           2535      1.91154e+9 
           2545       1.8873e+9 
           2555       1.8721e+9 
           2565      1.84968e+9 
           2575      1.83148e+9 
           2585      1.81097e+9 
           2595       1.7906e+9 
           2605      1.78438e+9 
           2615      1.76607e+9 
           2625       1.7469e+9 
           2635      1.72331e+9 
           2645      1.70734e+9 
           2655      1.68611e+9 
           2665      1.66393e+9 
           2675      1.64557e+9 
           2685      1.63929e+9 
           2695      1.60795e+9 
           2705      1.60386e+9 
           2715       1.5864e+9 
           2725      1.55585e+9 
           2735      1.55301e+9 
           2745      1.53126e+9 
           2755      1.51644e+9 
           2765      1.49007e+9 
           2775      1.48879e+9 
           2785      1.47268e+9 
           2795      1.44181e+9 
           2805        1.436e+9 
           2815      1.42767e+9 
           2825      1.39728e+9 
           2835      1.38618e+9 
           2845      1.38357e+9 
           2855      1.36946e+9 
           2865      1.35574e+9 
           2875      1.34181e+9 
           2885      1.32823e+9 
           2895      1.31475e+9 
           2910      1.29483e+9 
           2930      1.26856e+9 
           2950       1.2345e+9 
           2970      1.21916e+9 
           2990      1.19486e+9 
           3010      1.17159e+9 
           3030      1.14916e+9 
           3050      1.12693e+9 
           3070      1.10526e+9 
           3090      1.08382e+9 
           3110      1.06346e+9 
           3130       1.0446e+9 
           3150      1.02492e+9 
           3170      1.00532e+9 
           3190       9.7828e+8 
           3210      9.68138e+8 
           3230      9.50084e+8 
           3250      9.32506e+8 
           3270      9.16624e+8 
           3290      8.98657e+8 
           3310      8.83841e+8 
           3330      8.67957e+8 
           3350      8.50843e+8 
           3370      8.37324e+8 
           3390      8.22523e+8 
           3410      8.08076e+8 
           3430      7.90322e+8 
           3450      7.73716e+8 
           3470      7.62664e+8 
           3490      7.49494e+8 
           3510      7.39325e+8 
           3530       7.2822e+8 
           3550      7.16122e+8 
           3570      7.07559e+8 
           3590      6.91571e+8 
           3610      6.81386e+8 
           3630      6.68695e+8 
           3640      6.67357e+8 
           3650      6.56523e+8 
           3670      6.48604e+8 
           3690      6.33402e+8 
           3710      6.13344e+8 
           3730       5.9265e+8 
           3750      6.39228e+8 
           3770        6.463e+8 
           3790      6.87859e+8 
           3810      7.22414e+8 
           3830      6.23332e+8 
           3850      7.48274e+8 
           3870      7.56382e+8 
           3890      5.90136e+8 
           3910      7.45322e+8 
           3930      7.35706e+8 
           3950      7.22021e+8 
           3970       5.4919e+8 
           3990      6.92591e+8 
           4010      6.89589e+8 
           4030      6.47967e+8 
           4050      6.74725e+8 
           4070      6.60605e+8 
           4090      6.03511e+8 
           4110      5.20487e+8 
           4130      6.19221e+8 
           4150      6.14667e+8 
           4170      6.09781e+8 
           4190      6.01828e+8 
           4210      5.92106e+8 
           4230      5.82436e+8 
           4250      5.72962e+8 
           4270      5.62504e+8 
           4290      5.53894e+8 
           4310      5.41809e+8 
           4330      4.85778e+8 
           4350      4.40289e+8 
           4370      5.15039e+8 
           4390      4.95989e+8 
           4410       5.0384e+8 
           4430      4.93619e+8 
           4450      4.88526e+8 
           4470      4.58258e+8 
           4490      4.72984e+8 
           4510       4.6639e+8 
           4530      4.59215e+8 
           4550      4.52203e+8 
           4570      4.45313e+8 
           4590      4.38633e+8 
           4610      4.32035e+8 
           4630      4.25534e+8 
           4650      4.18972e+8 
           4670      4.12955e+8 
           4690      4.06854e+8 
           4710      3.95425e+8 
           4730      3.94732e+8 
           4750       3.8876e+8 
           4770      3.83503e+8 
           4790      3.77894e+8 
           4810      3.71729e+8 
           4830      3.64184e+8 
           4850      3.33063e+8 
           4870      2.95101e+8 
           4890      3.47298e+8 
           4910      3.45099e+8 
           4930      3.32525e+8 
           4950      3.36731e+8 
           4970      3.32028e+8 
           4990       3.2736e+8 
           5010      3.18553e+8 
           5030      3.18273e+8 
           5050      3.11695e+8 
           5070      3.09533e+8 
           5090      3.05274e+8 
           5110      3.01085e+8 
           5130      2.96938e+8 
           5150      2.92889e+8 
           5170      2.88936e+8 
           5190      2.85022e+8 
           5210       2.8113e+8 
           5230        2.774e+8 
           5250      2.73678e+8 
           5270      2.70031e+8 
           5290      2.66445e+8 
           5310      2.62905e+8 
           5330      2.59424e+8 
           5350      2.56001e+8 
           5370      2.52661e+8 
           5390       2.4935e+8 
           5410      2.46094e+8 
           5430      2.42879e+8 
           5450      2.39742e+8 
           5470      2.36658e+8 
           5490      2.33611e+8 
           5510      2.30616e+8 
           5530      2.27657e+8 
           5550       2.2476e+8 
           5570       2.2191e+8 
           5590      2.19095e+8 
           5610      2.16327e+8 
           5630      2.13616e+8 
           5650      2.10902e+8 
           5670      2.08269e+8 
           5690      2.05667e+8 
           5710      2.03143e+8 
           5730      2.00625e+8 
           5750       1.9815e+8 
           5770      1.95726e+8 
           5790       1.9332e+8 
           5810      1.90953e+8 
           5830      1.88626e+8 
           5850      1.86336e+8 
           5870      1.78334e+8 
           5890      1.81577e+8 
           5910      1.79671e+8 
           5930      1.77518e+8 
           5950       1.7538e+8 
           5970      1.73297e+8 
           5990      1.71239e+8 
           6010      1.69215e+8 
           6030      1.67214e+8 
           6050      1.65245e+8 
           6070       1.6331e+8 
           6090      1.61396e+8 
           6110      1.59513e+8 
           6130      1.57652e+8 
           6150      1.55821e+8 
           6170      1.54021e+8 
           6190      1.52251e+8 
           6210        1.505e+8 
           6230      1.48778e+8 
           6250      1.47075e+8 
           6270      1.45401e+8 
           6290      1.43744e+8 
           6310      1.42115e+8 
           6330      1.40513e+8 
           6350       1.3891e+8 
           6370      1.37362e+8 
           6390       1.3583e+8 
           6410      1.34314e+8 
           6430      1.32815e+8 
           6450       1.3134e+8 
           6470      1.29882e+8 
           6490      1.28447e+8 
           6510      1.26921e+8 
           6530      1.24952e+8 
           6550      1.18869e+8 
           6570      1.04968e+8 
           6590      1.20059e+8 
           6610      1.19937e+8 
           6630      1.18949e+8 
           6650      1.17757e+8 
           6670      1.15283e+8 
           6690      1.14072e+8 
           6710      1.14004e+8 
           6730      1.12787e+8 
           6750      1.11582e+8 
           6770      1.10398e+8 
           6790      1.09217e+8 
           6810      1.08073e+8 
           6830      1.06932e+8 
           6850      1.05811e+8 
           6870      1.04701e+8 
           6890      1.03602e+8 
           6910      1.02522e+8 
           6930       1.0146e+8 
           6950      1.00409e+8 
           6970      9.93685e+7 
           6990      9.83381e+7 
           7010      9.73331e+7 
           7030      9.63303e+7 
           7050      9.53449e+7 
           7070       9.2824e+7 
           7090      9.34177e+7 
           7110      9.24681e+7 
           7130      9.15277e+7 
           7150      9.06037e+7 
           7170      8.96739e+7 
           7190      8.87895e+7 
           7210       8.7899e+7 
           7230      8.69305e+7 
           7250      8.61577e+7 
           7270      8.52994e+7 
           7290      8.37545e+7 
           7310         8.36e+7 
           7330      8.27938e+7 
           7350      8.19743e+7 
           7370      8.11693e+7 
           7390      8.03718e+7 
           7410      7.95886e+7 
           7430      7.88127e+7 
           7450      7.80575e+7 
           7470      7.73025e+7 
           7490      7.65545e+7 
           7510      7.57866e+7 
           7530      7.50856e+7 
           7550      7.43644e+7 
           7570      7.36499e+7 
           7590      7.29484e+7 
           7610      7.22532e+7 
           7630      7.15643e+7 
           7650      7.08816e+7 
           7670      7.02114e+7 
           7690      6.95473e+7 
           7710      6.88954e+7 
           7730      6.82493e+7 
           7750      6.76027e+7 
           7770      6.69619e+7 
           7790      6.63515e+7 
           7810      6.56848e+7 
           7830      6.51223e+7 
           7850      6.45892e+7 
           7870      6.39937e+7 
           7890       6.3355e+7 
           7910      6.28243e+7 
           7930      6.22442e+7 
           7950      6.15857e+7 
           7970      6.09389e+7 
           7990      6.03982e+7 
           8010      5.98327e+7 
           8030      5.92897e+7 
           8050      5.87629e+7 
           8070      5.82926e+7 
           8090      5.76421e+7 
           8110      5.72179e+7 
           8130      5.67634e+7 
           8150      5.61619e+7 
           8170      5.57715e+7 
           8190      5.51923e+7 
           8210      5.45543e+7 
           8230      5.42416e+7 
           8250      5.37797e+7 
           8270      5.30274e+7 
           8290      5.27867e+7 
           8310      5.23463e+7 
           8330      5.18683e+7 
           8350      5.11517e+7 
           8370      5.08672e+7 
           8390      5.05013e+7 
           8410      5.00441e+7 
           8430       4.9535e+7 
           8450      4.87906e+7 
           8470      4.85494e+7 
           8490      4.81746e+7 
           8510      4.75073e+7 
           8530      4.74494e+7 
           8550      4.60305e+7 
           8570      4.73122e+7 
           8590      4.50652e+7 
