# Kurucz ODFNEW /NOVER (2003)
# teff = 8000 K (value for the effective temperature for the model. Temperatures are given in K)
# logg = 3 log(cm/s2) (value for Log(G) for the model.)
# meta = -0.5  (value for the Metallicity for the model.)
# lh = 1.25  (l/Hp where l is the  mixing length of the convective element and Hp is the pressure scale height)
# vtur = 2 km/s (Microturbulence velocity)
# alpha = 0.4  (Alpha)
#
# column 1: WAVELENGTH (ANGSTROM), Wavelength in Angstrom
# column 2: FLUX (ERG/CM2/S/A), Flux in erg/cm2/s/A
            348       4.748e-23 
            357     3.89088e-22 
            366     2.68826e-21 
            375     1.67813e-20 
            385     1.15679e-19 
            395     7.20718e-19 
            405     4.08965e-18 
            414     1.81118e-17 
            422     6.43332e-17 
            430     2.12061e-17 
            441     9.58032e-17 
            451     3.52279e-16 
            460     1.07998e-15 
            470     3.55377e-15 
            480     1.10831e-14 
            490     3.28967e-14 
            500     9.30793e-14 
            506     2.25726e-13 
            512     4.57834e-13 
            520     9.76682e-13 
            530     2.44921e-12 
            540     5.81812e-12 
            550     1.35436e-11 
            560     3.03077e-11 
            570     6.57462e-11 
            580     1.36884e-10 
            590     2.83656e-10 
            600       5.659e-10 
            610      1.10164e-9 
            620      2.09298e-9 
            630      3.88793e-9 
            640      7.07103e-9 
            650      1.26046e-8 
            658      1.97325e-8 
            665      2.88929e-8 
            675      4.91325e-8 
            685      8.21262e-8 
            695      1.34984e-7 
            705      2.17681e-7 
            716      3.64034e-7 
            726      5.70759e-7 
            735      8.45545e-7 
            745      1.29175e-6 
            755      1.94926e-6 
            765      2.90588e-6 
            775      4.28121e-6 
            785      6.24067e-6 
            795      8.92015e-6 
            805      1.27845e-5 
            815      1.80962e-5 
            825      2.53129e-5 
            835      3.50732e-5 
            845      4.81743e-5 
            855       6.5593e-5 
            865      8.85803e-5 
            875     0.000118369 
            885     0.000157729 
            895     0.000208126 
            905     0.000271977 
            915         0.25037 
            925         0.94479 
            935         1.24862 
            945         1.65499 
            955         2.30141 
            965         2.95813 
            975         3.43411 
            985         4.56319 
            995         5.46358 
           1005         7.20281 
           1015         8.79782 
           1025         9.69161 
           1035         13.2855 
           1045         16.3715 
           1055         19.9429 
           1065         23.5954 
           1075         28.9892 
           1085         35.0416 
           1095         40.9241 
           1105          123.18 
           1115         373.237 
           1125         519.422 
           1135         697.442 
           1145         839.852 
           1155         879.169 
           1165          1106.3 
           1175         1188.97 
           1185         1265.09 
           1195         456.658 
           1205         354.254 
           1215         79.4788 
           1225         395.401 
           1235         1104.01 
           1245         2452.59 
           1255         4587.65 
           1265         4904.33 
           1275         7968.07 
           1285         11433.1 
           1295         14198.9 
           1305         11689.1 
           1315         18742.1 
           1325         22698.7 
           1335         25325.6 
           1345         30714.8 
           1355           32079 
           1365         35173.3 
           1375         38766.4 
           1385         42676.6 
           1395         48422.5 
           1405         53651.8 
           1415         56491.8 
           1425         62679.2 
           1435         63069.2 
           1442         72339.7 
           1447         76804.8 
           1455         85185.8 
           1465         86782.6 
           1475         93653.1 
           1485          102480 
           1495          114358 
           1505          124381 
           1512          126425 
           1517          136458 
           1525          144787 
           1535          525260 
           1545      1.84859e+6 
           1555      1.74341e+6 
           1565      1.53422e+6 
           1575      2.63097e+6 
           1585      3.19606e+6 
           1595      3.69114e+6 
           1605      3.58255e+6 
           1615      3.87891e+6 
           1625      3.84729e+6 
           1635       4.7591e+6 
           1645      7.30453e+6 
           1655      4.55303e+6 
           1665      7.73388e+6 
           1672      4.03171e+6 
           1677      9.12873e+6 
           1685      1.16783e+7 
           1695      1.07425e+7 
           1705      1.21454e+7 
           1715      1.51167e+7 
           1725      1.52065e+7 
           1735      1.78852e+7 
           1745      1.68828e+7 
           1755      1.99885e+7 
           1765      1.49387e+7 
           1775      1.87179e+7 
           1785        1.827e+7 
           1795      2.20657e+7 
           1805      1.83923e+7 
           1815      1.98644e+7 
           1825      1.71827e+7 
           1835      1.70373e+7 
           1845      1.51908e+7 
           1855      1.69467e+7 
           1865      1.81074e+7 
           1875      1.79684e+7 
           1885      1.84292e+7 
           1895      1.92675e+7 
           1905      1.73872e+7 
           1915      1.92955e+7 
           1925      1.96019e+7 
           1935      1.64155e+7 
           1945      2.03909e+7 
           1955      2.03819e+7 
           1967      2.16266e+7 
           1976      2.08386e+7 
           1984      2.01273e+7 
           1995      1.96021e+7 
           2005      1.87529e+7 
           2015      1.81507e+7 
           2025      1.69502e+7 
           2035      1.91266e+7 
           2045      2.06218e+7 
           2055      1.90737e+7 
           2065      1.87568e+7 
           2074      2.14539e+7 
           2078      2.22491e+7 
           2085      2.13868e+7 
           2095      2.03968e+7 
           2105      1.90532e+7 
           2115      1.93425e+7 
           2125      1.97516e+7 
           2135      1.56891e+7 
           2145      1.88315e+7 
           2155      1.88437e+7 
           2165      1.75198e+7 
           2175      1.74308e+7 
           2185      1.81925e+7 
           2195      1.96973e+7 
           2205       1.8848e+7 
           2215       1.6714e+7 
           2225      1.66121e+7 
           2235       1.9485e+7 
           2245      1.73026e+7 
           2255      1.63345e+7 
           2265      1.62515e+7 
           2275      1.78006e+7 
           2285      1.85297e+7 
           2295      1.68959e+7 
           2305      1.75324e+7 
           2315      1.70938e+7 
           2325      1.66418e+7 
           2335      1.47086e+7 
           2345       1.2511e+7 
           2355      1.65065e+7 
           2365      1.30479e+7 
           2375      1.52705e+7 
           2385      1.14054e+7 
           2395      1.33503e+7 
           2405       1.2822e+7 
           2415      1.35306e+7 
           2425      1.61944e+7 
           2435       1.5629e+7 
           2445       1.6736e+7 
           2455       1.6353e+7 
           2465      1.63806e+7 
           2475      1.52202e+7 
           2485      1.59197e+7 
           2495       1.5221e+7 
           2505      1.80853e+7 
           2513      1.51666e+7 
           2518      1.54433e+7 
           2525      1.38316e+7 
           2535      1.29523e+7 
           2545      1.30549e+7 
           2555      1.49924e+7 
           2565      1.47171e+7 
           2575       1.6516e+7 
           2585      1.65655e+7 
           2595      1.59575e+7 
           2605      1.49759e+7 
           2615      1.43866e+7 
           2625      1.68179e+7 
           2635      1.72645e+7 
           2645       2.0664e+7 
           2655      2.07647e+7 
           2665      1.80874e+7 
           2675      1.93234e+7 
           2685      1.93438e+7 
           2695      1.80055e+7 
           2705      1.86732e+7 
           2715      1.71928e+7 
           2725      1.74996e+7 
           2735      1.91431e+7 
           2745      1.46866e+7 
           2755      1.56633e+7 
           2765       1.6448e+7 
           2775      1.83565e+7 
           2785      1.62359e+7 
           2795      7.30116e+6 
           2805      9.33154e+6 
           2815      1.84509e+7 
           2825      1.99084e+7 
           2835      1.93258e+7 
           2845      1.84929e+7 
           2855      1.70681e+7 
           2865      1.93381e+7 
           2875      1.88205e+7 
           2885      1.92492e+7 
           2895      1.83887e+7 
           2910      2.10068e+7 
           2930      2.01031e+7 
           2950      2.00358e+7 
           2970      2.07722e+7 
           2990      2.09289e+7 
           3010      2.12812e+7 
           3030      2.11407e+7 
           3050      2.10199e+7 
           3070      2.09552e+7 
           3090      2.14443e+7 
           3110       2.0813e+7 
           3130      2.08509e+7 
           3150      2.14264e+7 
           3170      2.14047e+7 
           3190       2.0169e+7 
           3210      2.08881e+7 
           3230      2.01471e+7 
           3250      2.08582e+7 
           3270      2.11214e+7 
           3290      2.14651e+7 
           3310      2.17288e+7 
           3330      2.11713e+7 
           3350      2.08568e+7 
           3370       2.0819e+7 
           3390      2.09291e+7 
           3410      2.13536e+7 
           3430      2.16007e+7 
           3450      2.13592e+7 
           3470      2.10903e+7 
           3490      2.10274e+7 
           3510      2.14664e+7 
           3530      2.15274e+7 
           3550      2.18567e+7 
           3570      2.11307e+7 
           3590      2.10658e+7 
           3610      2.11781e+7 
           3630      2.13014e+7 
           3640      2.10099e+7 
           3650      2.16842e+7 
           3670      2.14521e+7 
           3690      2.07855e+7 
           3710      2.38676e+7 
           3730      2.67409e+7 
           3750      3.59222e+7 
           3770      3.87388e+7 
           3790      4.84835e+7 
           3810       5.6945e+7 
           3830      4.43043e+7 
           3850      6.25794e+7 
           3870       7.0376e+7 
           3890      3.97241e+7 
           3910      6.93648e+7 
           3930      5.94283e+7 
           3950      6.87228e+7 
           3970      3.60406e+7 
           3990      6.75198e+7 
           4010      7.48323e+7 
           4030      7.42376e+7 
           4050      7.34602e+7 
           4070       7.0227e+7 
           4090      5.60564e+7 
           4110      4.23829e+7 
           4130      6.67149e+7 
           4150      6.97876e+7 
           4170       6.8628e+7 
           4190      6.80238e+7 
           4210      6.78296e+7 
           4230      6.60696e+7 
           4250      6.58288e+7 
           4270      6.41475e+7 
           4290      6.32642e+7 
           4310      5.85432e+7 
           4330      4.61365e+7 
           4350      3.91791e+7 
           4370      5.89174e+7 
           4390      5.95625e+7 
           4410      5.87271e+7 
           4430      5.85896e+7 
           4450      5.86102e+7 
           4470         5.82e+7 
           4490      5.74173e+7 
           4510      5.78353e+7 
           4530      5.60663e+7 
           4550       5.4903e+7 
           4570      5.59279e+7 
           4590       5.4417e+7 
           4610      5.52417e+7 
           4630       5.3704e+7 
           4650      5.38494e+7 
           4670      5.33615e+7 
           4690      5.19499e+7 
           4710      5.01443e+7 
           4730      5.14892e+7 
           4750      5.11567e+7 
           4770      5.02981e+7 
           4790      4.95966e+7 
           4810      4.85858e+7 
           4830      4.66921e+7 
           4850      3.70123e+7 
           4870      2.95895e+7 
           4890      4.40361e+7 
           4910      4.58643e+7 
           4930      4.53054e+7 
           4950      4.55196e+7 
           4970      4.55353e+7 
           4990       4.4463e+7 
           5010      4.31301e+7 
           5030       4.3641e+7 
           5050      4.29562e+7 
           5070      4.30811e+7 
           5090      4.26269e+7 
           5110      4.22867e+7 
           5130      4.15153e+7 
           5150      4.08909e+7 
           5170      3.97478e+7 
           5190      3.93469e+7 
           5210       3.9527e+7 
           5230      3.88741e+7 
           5250      3.92851e+7 
           5270      3.74316e+7 
           5290      3.83796e+7 
           5310      3.77116e+7 
           5330      3.67262e+7 
           5350      3.73498e+7 
           5370      3.67965e+7 
           5390      3.63916e+7 
           5410      3.57536e+7 
           5430      3.56224e+7 
           5450      3.55326e+7 
           5470       3.5209e+7 
           5490      3.48755e+7 
           5510      3.45905e+7 
           5530      3.41091e+7 
           5550      3.40656e+7 
           5570      3.36004e+7 
           5590      3.31229e+7 
           5610      3.29577e+7 
           5630      3.28238e+7 
           5650      3.24231e+7 
           5670      3.20213e+7 
           5690      3.18478e+7 
           5710      3.15246e+7 
           5730      3.13933e+7 
           5750      3.09861e+7 
           5770      3.07626e+7 
           5790      3.04538e+7 
           5810      3.02032e+7 
           5830      2.99398e+7 
           5850      2.96177e+7 
           5870       2.9367e+7 
           5890      2.87932e+7 
           5910      2.88425e+7 
           5930       2.8584e+7 
           5950      2.82846e+7 
           5970      2.80743e+7 
           5990      2.77496e+7 
           6010      2.74859e+7 
           6030      2.72677e+7 
           6050      2.70249e+7 
           6070      2.68573e+7 
           6090      2.65857e+7 
           6110      2.63131e+7 
           6130      2.59482e+7 
           6150      2.54759e+7 
           6170      2.53961e+7 
           6190      2.54485e+7 
           6210      2.52214e+7 
           6230      2.49316e+7 
           6250      2.44531e+7 
           6270      2.45867e+7 
           6290      2.43763e+7 
           6310      2.40782e+7 
           6330      2.39056e+7 
           6350      2.35189e+7 
           6370      2.33668e+7 
           6390      2.33075e+7 
           6410      2.30037e+7 
           6430      2.28872e+7 
           6450      2.24204e+7 
           6470      2.23909e+7 
           6490      2.20554e+7 
           6510      2.18686e+7 
           6530      2.13196e+7 
           6550      1.87836e+7 
           6570      1.49453e+7 
           6590      2.02556e+7 
           6610      2.09127e+7 
           6630       2.0947e+7 
           6650      2.08365e+7 
           6670      2.06787e+7 
           6690      2.05553e+7 
           6710      2.03852e+7 
           6730      2.01994e+7 
           6750       1.9974e+7 
           6770      1.99129e+7 
           6790      1.97377e+7 
           6810       1.9583e+7 
           6830      1.93982e+7 
           6850       1.9253e+7 
           6870      1.91147e+7 
           6890       1.8961e+7 
           6910      1.88072e+7 
           6930      1.86494e+7 
           6950      1.85056e+7 
           6970      1.83515e+7 
           6990       1.8215e+7 
           7010      1.79686e+7 
           7030      1.78993e+7 
           7050      1.77774e+7 
           7070        1.764e+7 
           7090      1.75062e+7 
           7110      1.71887e+7 
           7130      1.71888e+7 
           7150      1.70353e+7 
           7170      1.69191e+7 
           7190      1.67814e+7 
           7210      1.66565e+7 
           7230      1.65285e+7 
           7250      1.63786e+7 
           7270      1.63008e+7 
           7290      1.61264e+7 
           7310       1.6027e+7 
           7330      1.58969e+7 
           7350      1.58042e+7 
           7370      1.56949e+7 
           7390      1.55508e+7 
           7410      1.53791e+7 
           7430      1.52535e+7 
           7450      1.51662e+7 
           7470      1.50136e+7 
           7490      1.49275e+7 
           7510      1.48474e+7 
           7530      1.47513e+7 
           7550      1.46594e+7 
           7570      1.45295e+7 
           7590      1.44366e+7 
           7610      1.43251e+7 
           7630      1.42236e+7 
           7650      1.40952e+7 
           7670       1.3968e+7 
           7690       1.3868e+7 
           7710      1.37727e+7 
           7730      1.36972e+7 
           7750      1.35839e+7 
           7770      1.32152e+7 
           7790      1.34075e+7 
           7810      1.32975e+7 
           7830      1.31848e+7 
           7850      1.30664e+7 
           7870       1.2952e+7 
           7890      1.28344e+7 
           7910      1.27882e+7 
           7930      1.26573e+7 
           7950      1.25579e+7 
           7970      1.25478e+7 
           7990      1.23434e+7 
           8010      1.23576e+7 
           8030      1.22581e+7 
           8050      1.21787e+7 
           8070      1.20912e+7 
           8090      1.20056e+7 
           8110      1.19276e+7 
           8130      1.18507e+7 
           8150       1.1766e+7 
           8170      1.16819e+7 
           8190      1.15002e+7 
           8210      1.14487e+7 
           8230      1.13626e+7 
           8250      1.12926e+7 
           8270       1.1319e+7 
           8290      1.12376e+7 
           8310      1.11432e+7 
           8330      1.09942e+7 
           8350      1.09854e+7 
           8370      1.08813e+7 
           8390      1.07653e+7 
           8410      1.06646e+7 
           8430      1.06273e+7 
           8450      1.04309e+7 
           8470      1.01738e+7 
           8490      1.06188e+7 
           8510       9.7163e+6 
           8530      1.06551e+7 
           8550      9.00306e+6 
           8570      1.07969e+7 
           8590      9.95226e+6 
           8610      9.62302e+6 
           8630      1.08977e+7 
           8650      1.04863e+7 
           8670       8.3887e+6 
           8690      1.05816e+7 
           8710      1.10321e+7 
           8730      1.06173e+7 
           8750      8.33787e+6 
           8770      1.01563e+7 
           8790       1.0898e+7 
           8810      1.08938e+7 
           8830      1.06299e+7 
           8850      9.62861e+6 
           8870      8.08363e+6 
           8890      1.01847e+7 
           8910      1.05211e+7 
           8930      1.05345e+7 
           8950      1.05655e+7 
           8970      1.03925e+7 
           8990      9.96127e+6 
           9010       7.9657e+6 
           9030      8.79303e+6 
           9050      9.92346e+6 
           9070      9.92233e+6 
           9090      9.83449e+6 
           9110      9.97475e+6 
           9130      9.98578e+6 
           9150      9.92552e+6 
           9170      9.80432e+6 
           9190      9.58728e+6 
           9210      8.94745e+6 
           9230      6.99926e+6 
           9250      8.59769e+6 
           9270      9.09723e+6 
           9290      9.41561e+6 
           9310      9.40779e+6 
           9330      9.35149e+6 
           9350      9.31239e+6 
           9370      9.26109e+6 
           9390      9.17212e+6 
