# Kurucz ODFNEW /NOVER (2003)
# teff = 23000 K (value for the effective temperature for the model. Temperatures are given in K)
# logg = 4 log(cm/s2) (value for Log(G) for the model.)
# meta = -2  (value for the Metallicity for the model.)
# lh = 1.25  (l/Hp where l is the  mixing length of the convective element and Hp is the pressure scale height)
# vtur = 2 km/s (Microturbulence velocity)
# alpha = 0.4  (Alpha)
#
# column 1: WAVELENGTH (ANGSTROM), Wavelength in Angstrom
# column 2: FLUX (ERG/CM2/S/A), Flux in erg/cm2/s/A
          147.2     1.45519e-16 
            151     8.08528e-16 
          155.2      4.8973e-15 
          158.8     2.13063e-14 
            162     7.46253e-14 
            166     3.34348e-13 
          170.3     1.55032e-12 
          173.4        4.47e-12 
          176.8     1.36792e-11 
          180.2     4.01139e-11 
          181.7     6.36523e-11 
          186.1       2.361e-10 
            191     9.45474e-10 
          193.9      2.07768e-9 
          198.4      6.72681e-9 
          201.8      1.57692e-8 
            205      3.42342e-8 
          210.5      1.22558e-7 
          216.2      4.28058e-7 
          219.8      9.10865e-7 
            223      1.74444e-6 
          226.8        3.681e-6 
            230      2.13981e-5 
            234      4.96595e-5 
            240     0.000133562 
          246.5     0.000368984 
          252.4     0.000894016 
          256.8       0.0016328 
            260      0.00259709 
            264      0.00443745 
          268.5      0.00793882 
          273.5       0.0147973 
          278.5       0.0269988 
            284        0.050982 
            290       0.0990158 
            296        0.186748 
            301        0.310661 
            308        0.604902 
            318         1.55127 
            328         3.67261 
            338          8.2588 
            348         17.6615 
            357         33.6857 
            366         62.2089 
            375         110.936 
            385         204.292 
            395         363.341 
            405          627.09 
            414         1000.69 
            422         1486.34 
            430         2170.32 
            441         3578.79 
            451         5504.22 
            460         7959.57 
            470         11780.6 
            480         17114.7 
            490         24455.2 
            500         34383.3 
            506          242250 
            512          729893 
            520          906700 
            530      1.25764e+6 
            540      1.37436e+6 
            550      1.92848e+6 
            560      2.30531e+6 
            570      2.79944e+6 
            580       2.8407e+6 
            590      3.72833e+6 
            600       4.5872e+6 
            610      5.40968e+6 
            620      6.21996e+6 
            630      7.22724e+6 
            640       8.1293e+6 
            650      9.37231e+6 
            658      1.05067e+7 
            665      1.14188e+7 
            675      1.26515e+7 
            685      1.41539e+7 
            695      1.62789e+7 
            705      1.79972e+7 
            716      2.02622e+7 
            726      2.23446e+7 
            735      2.46125e+7 
            745      2.72441e+7 
            755      2.99355e+7 
            765      3.26734e+7 
            775      3.58336e+7 
            785      3.90402e+7 
            795      4.22111e+7 
            805      4.57825e+7 
            815       4.9332e+7 
            825      5.33352e+7 
            835      5.64371e+7 
            845      6.12771e+7 
            855      6.53662e+7 
            865      7.02127e+7 
            875      7.50433e+7 
            885      8.01198e+7 
            895      8.51307e+7 
            905       8.9198e+7 
            915      1.46143e+8 
            925      1.06504e+9 
            935      3.52841e+9 
            945     1.10717e+10 
            955     1.56355e+10 
            965     2.04101e+10 
            975      7.71233e+9 
            985     2.28649e+10 
            995     2.20385e+10 
           1005     2.26976e+10 
           1015     2.05211e+10 
           1025      6.55836e+9 
           1035     1.81172e+10 
           1045     2.24998e+10 
           1055     2.19002e+10 
           1065     2.00736e+10 
           1075     2.08377e+10 
           1085     1.94211e+10 
           1095     2.04203e+10 
           1105     1.92637e+10 
           1115     1.90882e+10 
           1125     1.79416e+10 
           1135     1.85729e+10 
           1145     1.74419e+10 
           1155     1.78172e+10 
           1165     1.75887e+10 
           1175     1.53974e+10 
           1185      1.6813e+10 
           1195      1.5481e+10 
           1205     1.27941e+10 
           1215        4.566e+9 
           1225     1.30154e+10 
           1235     1.49195e+10 
           1245     1.48011e+10 
           1255     1.44719e+10 
           1265     1.42177e+10 
           1275     1.42284e+10 
           1285     1.39193e+10 
           1295     1.25882e+10 
           1305     1.25898e+10 
           1315     1.31017e+10 
           1325     1.26712e+10 
           1335     1.21659e+10 
           1345     1.22253e+10 
           1355     1.21756e+10 
           1365     1.17601e+10 
           1375     1.15933e+10 
           1385     1.14477e+10 
           1395     1.07343e+10 
           1405     1.07172e+10 
           1415     1.07504e+10 
           1425     1.05856e+10 
           1435     1.04406e+10 
           1442     1.03755e+10 
           1447     1.02649e+10 
           1455     1.00995e+10 
           1465      9.88872e+9 
           1475      9.72168e+9 
           1485      9.53037e+9 
           1495      9.35762e+9 
           1505      9.05421e+9 
           1512      8.95129e+9 
           1517      8.92578e+9 
           1525      8.78086e+9 
           1535      8.43915e+9 
           1545      8.40017e+9 
           1555      8.16519e+9 
           1565      8.18577e+9 
           1575      8.10675e+9 
           1585      7.96699e+9 
           1595      7.85897e+9 
           1605      7.62255e+9 
           1615      7.49422e+9 
           1625      7.44449e+9 
           1635      7.36541e+9 
           1645      7.16754e+9 
           1655      7.11942e+9 
           1665      7.03008e+9 
           1672      6.88213e+9 
           1677      6.92836e+9 
           1685      6.82889e+9 
           1695      6.68614e+9 
           1705      6.55312e+9 
           1715      6.40314e+9 
           1725      6.32051e+9 
           1735      6.24949e+9 
           1745       6.1428e+9 
           1755       6.0856e+9 
           1765      5.87728e+9 
           1775      5.83611e+9 
           1785      5.77174e+9 
           1795      5.72257e+9 
           1805      5.65159e+9 
           1815      5.52533e+9 
           1825      5.46381e+9 
           1835      5.37735e+9 
           1845      5.18586e+9 
           1855      5.06331e+9 
           1865      5.04382e+9 
           1875      5.04438e+9 
           1885      4.84575e+9 
           1895      4.69539e+9 
           1905      4.76904e+9 
           1915      4.61899e+9 
           1925      4.53941e+9 
           1935      4.54473e+9 
           1945      4.52998e+9 
           1955      4.34813e+9 
           1967      4.38433e+9 
           1976      4.38346e+9 
           1984      4.26348e+9 
           1995      4.14409e+9 
           2005      4.16977e+9 
           2015        4.145e+9 
           2025      4.11271e+9 
           2035      4.01407e+9 
           2045      3.95987e+9 
           2055      3.84702e+9 
           2065      3.82267e+9 
           2074      3.84684e+9 
           2078      3.76295e+9 
           2085      3.75748e+9 
           2095      3.66891e+9 
           2105      3.66669e+9 
           2115      3.63303e+9 
           2125      3.60417e+9 
           2135      3.55065e+9 
           2145      3.48921e+9 
           2155      3.45901e+9 
           2165      3.41709e+9 
           2175      3.36862e+9 
           2185      3.32893e+9 
           2195      3.29038e+9 
           2205      3.24697e+9 
           2215      3.20612e+9 
           2225      3.16139e+9 
           2235      3.12064e+9 
           2245       3.0867e+9 
           2255      3.04405e+9 
           2265      3.01018e+9 
           2275      2.97227e+9 
           2285      2.93751e+9 
           2295      2.87513e+9 
           2305      2.86385e+9 
           2315      2.82553e+9 
           2325      2.79221e+9 
           2335      2.75163e+9 
           2345      2.71869e+9 
           2355      2.69212e+9 
           2365      2.65748e+9 
           2375      2.62553e+9 
           2385      2.59144e+9 
           2395      2.56156e+9 
           2405      2.53171e+9 
           2415       2.4989e+9 
           2425      2.47526e+9 
           2435      2.44328e+9 
           2445      2.41565e+9 
           2455      2.38907e+9 
           2465      2.36018e+9 
           2475      2.33296e+9 
           2485       2.3055e+9 
           2495      2.24705e+9 
           2505      2.25142e+9 
           2513       2.2188e+9 
           2518       2.2157e+9 
           2525      2.19935e+9 
           2535      2.17406e+9 
           2545      2.13898e+9 
           2555      2.12498e+9 
           2565      2.09951e+9 
           2575      2.07971e+9 
           2585      2.05633e+9 
           2595      2.03329e+9 
           2605      2.02526e+9 
           2615      2.00363e+9 
           2625      1.98118e+9 
           2635      1.95494e+9 
           2645      1.93496e+9 
           2655       1.9109e+9 
           2665      1.88582e+9 
           2675      1.86458e+9 
           2685      1.85641e+9 
           2695       1.8214e+9 
           2705      1.81578e+9 
           2715      1.79599e+9 
           2725      1.76198e+9 
           2735      1.75748e+9 
           2745       1.7348e+9 
           2755      1.71736e+9 
           2765      1.68649e+9 
           2775      1.68389e+9 
           2785      1.66556e+9 
           2795      1.62593e+9 
           2805      1.62159e+9 
           2815      1.61384e+9 
           2825      1.58002e+9 
           2835      1.56729e+9 
           2845      1.56351e+9 
           2855      1.54722e+9 
           2865      1.53148e+9 
           2875      1.51555e+9 
           2885      1.50004e+9 
           2895      1.48462e+9 
           2910      1.46166e+9 
           2930      1.43146e+9 
           2950      1.39324e+9 
           2970      1.37518e+9 
           2990      1.34736e+9 
           3010      1.32078e+9 
           3030      1.29516e+9 
           3050       1.2698e+9 
           3070      1.24508e+9 
           3090      1.21974e+9 
           3110      1.19729e+9 
           3130      1.17561e+9 
           3150      1.15314e+9 
           3170      1.13084e+9 
           3190      1.10023e+9 
           3210      1.08842e+9 
           3230      1.06784e+9 
           3250      1.04782e+9 
           3270      1.02968e+9 
           3290      1.00923e+9 
           3310      9.92293e+8 
           3330      9.74226e+8 
           3350      9.54773e+8 
           3370      9.39327e+8 
           3390      9.22507e+8 
           3410      9.06048e+8 
           3430      8.85842e+8 
           3450      8.66992e+8 
           3470      8.54367e+8 
           3490      8.39407e+8 
           3510      8.27881e+8 
           3530      8.15049e+8 
           3550      8.01258e+8 
           3570      7.91478e+8 
           3590      7.73359e+8 
           3610      7.61779e+8 
           3630      7.47403e+8 
           3640       7.4589e+8 
           3650      7.38302e+8 
           3670      7.29158e+8 
           3690      7.12449e+8 
           3710      6.89297e+8 
           3730       6.6511e+8 
           3750       7.1097e+8 
           3770      7.16037e+8 
           3790       7.5702e+8 
           3810      7.91656e+8 
           3830      6.87666e+8 
           3850      8.15423e+8 
           3870      8.21103e+8 
           3890      6.51903e+8 
           3910      8.07937e+8 
           3930      7.95784e+8 
           3950      7.82168e+8 
           3970      6.06175e+8 
           3990      7.50898e+8 
           4010       7.4577e+8 
           4030      7.02756e+8 
           4050      7.28906e+8 
           4070      7.13277e+8 
           4090      6.57066e+8 
           4110      5.70934e+8 
           4130      6.69269e+8 
           4150       6.6384e+8 
           4170      6.58181e+8 
           4190      6.49337e+8 
           4210      6.38974e+8 
           4230      6.28482e+8 
           4250      6.18055e+8 
           4270       6.0668e+8 
           4290      5.97577e+8 
           4310      5.84844e+8 
           4330        5.292e+8 
           4350      4.81222e+8 
           4370      5.56092e+8 
           4390      5.36004e+8 
           4410      5.43028e+8 
           4430      5.32377e+8 
           4450       5.2667e+8 
           4470      4.95439e+8 
           4490      5.09666e+8 
           4510      5.02692e+8 
           4530      4.94922e+8 
           4550      4.87196e+8 
           4570      4.79676e+8 
           4590      4.72519e+8 
           4610      4.65432e+8 
           4630       4.5845e+8 
           4650      4.50873e+8 
           4670      4.44705e+8 
           4690       4.3818e+8 
           4710       4.2589e+8 
           4730      4.25125e+8 
           4750      4.18664e+8 
           4770      4.12992e+8 
           4790      4.06923e+8 
           4810      4.00452e+8 
           4830       3.9246e+8 
           4850      3.61763e+8 
           4870      3.22073e+8 
           4890      3.74491e+8 
           4910      3.71634e+8 
           4930       3.5841e+8 
           4950      3.62331e+8 
           4970      3.57316e+8 
           4990      3.52263e+8 
           5010      3.42882e+8 
           5030      3.42439e+8 
           5050      3.35315e+8 
           5070      3.33012e+8 
           5090      3.28394e+8 
           5110      3.23866e+8 
           5130      3.19399e+8 
           5150       3.1502e+8 
           5170      3.10741e+8 
           5190      3.06518e+8 
           5210      3.02268e+8 
           5230      2.98294e+8 
           5250      2.94276e+8 
           5270      2.90324e+8 
           5290       2.8645e+8 
           5310      2.82626e+8 
           5330      2.78865e+8 
           5350      2.75152e+8 
           5370      2.71551e+8 
           5390      2.67984e+8 
           5410      2.64474e+8 
           5430      2.60984e+8 
           5450        2.576e+8 
           5470      2.54272e+8 
           5490      2.50998e+8 
           5510      2.47765e+8 
           5530      2.44584e+8 
           5550      2.41454e+8 
           5570      2.38363e+8 
           5590      2.35335e+8 
           5610      2.32343e+8 
           5630      2.29423e+8 
           5650       2.2648e+8 
           5670      2.23631e+8 
           5690       2.2084e+8 
           5710      2.18129e+8 
           5730      2.15416e+8 
           5750      2.12723e+8 
           5770       2.1012e+8 
           5790      2.07535e+8 
           5810      2.04982e+8 
           5830      2.02481e+8 
           5850      2.00009e+8 
           5870      1.91563e+8 
           5890      1.94923e+8 
           5910      1.92819e+8 
           5930      1.90503e+8 
           5950      1.88192e+8 
           5970      1.85961e+8 
           5990      1.83723e+8 
           6010      1.81553e+8 
           6030      1.79398e+8 
           6050      1.77277e+8 
           6070      1.75191e+8 
           6090      1.73128e+8 
           6110      1.71098e+8 
           6130      1.69101e+8 
           6150      1.67117e+8 
           6170      1.65184e+8 
           6190      1.63273e+8 
           6210      1.61392e+8 
           6230      1.59533e+8 
           6250      1.57694e+8 
           6270      1.55894e+8 
           6290      1.54114e+8 
           6310      1.52353e+8 
           6330       1.5063e+8 
           6350      1.48879e+8 
           6370      1.47231e+8 
           6390      1.45591e+8 
           6410       1.4395e+8 
           6430      1.42346e+8 
           6450      1.40758e+8 
           6470      1.39187e+8 
           6490      1.37642e+8 
           6510      1.36042e+8 
           6530      1.33991e+8 
           6550      1.28002e+8 
           6570      1.13521e+8 
           6590      1.28838e+8 
           6610      1.28577e+8 
           6630      1.27425e+8 
           6650      1.26132e+8 
           6670      1.23505e+8 
           6690      1.22204e+8 
           6710      1.22095e+8 
           6730      1.20789e+8 
           6750      1.19495e+8 
           6770      1.18223e+8 
           6790      1.16947e+8 
           6810      1.15717e+8 
           6830      1.14491e+8 
           6850      1.13286e+8 
           6870      1.12092e+8 
           6890      1.10919e+8 
           6910      1.09757e+8 
           6930      1.08607e+8 
           6950      1.07483e+8 
           6970      1.06363e+8 
           6990      1.05254e+8 
           7010      1.04172e+8 
           7030      1.03099e+8 
           7050      1.02045e+8 
           7070      9.93434e+7 
           7090      9.99678e+7 
           7110      9.89442e+7 
           7130      9.79378e+7 
           7150      9.69412e+7 
           7170      9.59468e+7 
           7190      9.49984e+7 
           7210      9.40372e+7 
           7230      9.29844e+7 
           7250      9.21639e+7 
           7270      9.12441e+7 
           7290      8.95815e+7 
           7310      8.94234e+7 
           7330      8.85504e+7 
           7350      8.76717e+7 
           7370      8.68081e+7 
           7390      8.59525e+7 
           7410      8.51118e+7 
           7430      8.42721e+7 
           7450      8.34673e+7 
           7470      8.26496e+7 
           7490      8.18462e+7 
           7510      8.10234e+7 
           7530      8.02746e+7 
           7550      7.94996e+7 
           7570      7.87317e+7 
           7590      7.79773e+7 
           7610      7.72297e+7 
           7630      7.64888e+7 
           7650      7.57611e+7 
           7670      7.50399e+7 
           7690      7.43316e+7 
           7710      7.36296e+7 
           7730      7.29338e+7 
           7750       7.2238e+7 
           7770      7.15421e+7 
           7790      7.08958e+7 
           7810      7.01811e+7 
           7830      6.95773e+7 
           7850      6.90031e+7 
           7870      6.83609e+7 
           7890      6.76759e+7 
           7910      6.71113e+7 
           7930      6.64856e+7 
           7950      6.57462e+7 
           7970      6.50845e+7 
           7990      6.45054e+7 
           8010      6.39018e+7 
           8030      6.33151e+7 
           8050      6.27509e+7 
           8070      6.22494e+7 
           8090      6.15506e+7 
           8110      6.10927e+7 
           8130      6.06101e+7 
           8150      5.99614e+7 
           8170      5.95496e+7 
           8190      5.89222e+7 
           8210      5.83168e+7 
           8230      5.79781e+7 
           8250      5.74815e+7 
           8270       5.6664e+7 
           8290      5.64129e+7 
           8310      5.59398e+7 
           8330      5.54272e+7 
           8350      5.46433e+7 
           8370      5.43448e+7 
           8390      5.39576e+7 
           8410      5.34722e+7 
           8430      5.29272e+7 
           8450      5.21103e+7 
           8470      5.18929e+7 
           8490      5.14595e+7 
           8510      5.07944e+7 
           8530      5.06637e+7 
           8550      4.92643e+7 
           8570      5.04863e+7 
           8590      4.81704e+7 
