# Kurucz ODFNEW /NOVER (2003)
# teff = 10000 K (value for the effective temperature for the model. Temperatures are given in K)
# logg = 5 log(cm/s2) (value for Log(G) for the model.)
# meta = 0.5  (value for the Metallicity for the model.)
# lh = 1.25  (l/Hp where l is the  mixing length of the convective element and Hp is the pressure scale height)
# vtur = 2 km/s (Microturbulence velocity)
# alpha = 0.4  (Alpha)
#
# column 1: WAVELENGTH (ANGSTROM), Wavelength in Angstrom
# column 2: FLUX (ERG/CM2/S/A), Flux in erg/cm2/s/A
          268.5     1.97509e-23 
          273.5      1.0668e-22 
          278.5     4.29617e-22 
            284      1.7793e-21 
            290     7.88086e-21 
            296     3.29926e-20 
            301      1.0473e-19 
            308     4.98869e-19 
            318     4.15571e-18 
            328     3.09062e-17 
            338     2.05911e-16 
            348     1.24202e-15 
            357     5.80987e-15 
            366     2.52371e-14 
            375     1.02304e-13 
            385     4.51745e-13 
            395      1.8528e-12 
            405     7.10256e-12 
            414     2.25713e-11 
            422     6.04958e-11 
            430     1.56132e-10 
            441     5.45217e-10 
            451      1.60924e-9 
            460      4.09097e-9 
            470       1.1063e-8 
            480      2.86602e-8 
            490       7.1315e-8 
            500       1.7099e-7 
            506      2.91748e-7 
            512      4.91865e-7 
            520      9.27055e-7 
            530       1.9955e-6 
            540      4.16586e-6 
            550      8.47249e-6 
            560      1.67882e-5 
            570      3.24365e-5 
            580      6.11726e-5 
            590     0.000112943 
            600     0.000203999 
            610     0.000361077 
            620     0.000626817 
            630      0.00106802 
            640      0.00178809 
            650      0.00294393 
            658      0.00433553 
            665      0.00603321 
            675      0.00955415 
            685       0.0149118 
            695       0.0229543 
            705       0.0348719 
            716       0.0544449 
            726       0.0805956 
            735        0.113592 
            745        0.164566 
            755        0.235902 
            765        0.334697 
            775        0.470196 
            785        0.654328 
            795        0.887604 
            805         1.23351 
            815         1.67208 
            825         2.24823 
            835         2.99935 
            845         3.97145 
            855         5.22044 
            865         6.81484 
            875         8.83632 
            885         11.3823 
            895         14.5706 
            905         18.2425 
            915         143.803 
            925         844.666 
            935         1249.65 
            945         1775.01 
            955         2449.17 
            965         3107.61 
            975         3055.33 
            985         4134.91 
            995         4537.38 
           1005         5674.67 
           1015         6646.18 
           1025         6170.38 
           1035         8661.55 
           1045         10110.7 
           1055         11613.4 
           1065           12865 
           1075         15202.8 
           1085         17341.6 
           1095         18912.4 
           1105         34694.8 
           1115         82286.7 
           1125          107153 
           1135          137710 
           1145          157295 
           1155          166300 
           1165          208413 
           1175          233172 
           1185          232585 
           1195          119264 
           1205          173850 
           1215         44062.5 
           1225          184749 
           1235          334042 
           1245          509354 
           1255      1.26878e+6 
           1265      1.33934e+6 
           1275       3.1895e+6 
           1285      6.48726e+6 
           1295      6.86999e+6 
           1305      2.13372e+6 
           1315      7.13427e+6 
           1325      9.25802e+6 
           1335      9.16466e+6 
           1345      1.12086e+7 
           1355      1.00123e+7 
           1365       9.3338e+6 
           1375      1.05063e+7 
           1385      8.57067e+6 
           1395      9.98088e+6 
           1405      1.06412e+7 
           1415      1.14762e+7 
           1425      1.37659e+7 
           1435      1.10723e+7 
           1442      1.48926e+7 
           1447      1.57539e+7 
           1455        1.663e+7 
           1465      1.52817e+7 
           1475      1.46603e+7 
           1485      1.58002e+7 
           1495      1.86677e+7 
           1505      1.86733e+7 
           1512      1.60751e+7 
           1517      1.93105e+7 
           1525      1.87828e+7 
           1535       2.5769e+7 
           1545      5.32261e+7 
           1555      2.94167e+7 
           1565      3.01048e+7 
           1575      5.59758e+7 
           1585      8.83945e+7 
           1595      1.04518e+8 
           1605      1.14868e+8 
           1615      1.08487e+8 
           1625       7.9317e+7 
           1635        8.188e+7 
           1645      1.24545e+8 
           1655      8.50446e+7 
           1665      1.15529e+8 
           1672      7.06971e+7 
           1677      1.17233e+8 
           1685      1.40277e+8 
           1695      9.52083e+7 
           1705       1.0349e+8 
           1715      1.15536e+8 
           1725      1.14868e+8 
           1735      1.33222e+8 
           1745       1.3118e+8 
           1755      1.53969e+8 
           1765      1.11431e+8 
           1775      1.45604e+8 
           1785      1.45219e+8 
           1795      1.68802e+8 
           1805        1.461e+8 
           1815      1.46141e+8 
           1825      1.38809e+8 
           1835        1.307e+8 
           1845      1.15818e+8 
           1855      1.31816e+8 
           1865      1.36623e+8 
           1875      1.40603e+8 
           1885      1.40292e+8 
           1895      1.42046e+8 
           1905      1.28008e+8 
           1915      1.43615e+8 
           1925      1.44831e+8 
           1935       1.3063e+8 
           1945      1.46429e+8 
           1955      1.45023e+8 
           1967        1.547e+8 
           1976      1.51345e+8 
           1984      1.44155e+8 
           1995       1.3972e+8 
           2005      1.34891e+8 
           2015      1.23785e+8 
           2025      1.25928e+8 
           2035      1.34427e+8 
           2045      1.41592e+8 
           2055      1.30735e+8 
           2065      1.31089e+8 
           2074      1.39158e+8 
           2078      1.46545e+8 
           2085      1.41472e+8 
           2095      1.35352e+8 
           2105        1.272e+8 
           2115      1.27069e+8 
           2125      1.31082e+8 
           2135      1.06996e+8 
           2145      1.24408e+8 
           2155      1.24643e+8 
           2165      1.15706e+8 
           2175      1.14262e+8 
           2185      1.17038e+8 
           2195      1.23168e+8 
           2205      1.15924e+8 
           2215      1.04943e+8 
           2225      1.02884e+8 
           2235       1.1732e+8 
           2245      1.04116e+8 
           2255      9.84455e+7 
           2265      1.00339e+8 
           2275      1.07299e+8 
           2285      1.11896e+8 
           2295      1.03355e+8 
           2305      1.00801e+8 
           2315      9.69305e+7 
           2325      9.50113e+7 
           2335       8.7103e+7 
           2345      7.94149e+7 
           2355      9.47186e+7 
           2365       8.0253e+7 
           2375      8.62575e+7 
           2385      7.41441e+7 
           2395      8.36013e+7 
           2405      7.88432e+7 
           2415      8.14278e+7 
           2425      8.93676e+7 
           2435      8.38634e+7 
           2445      9.07789e+7 
           2455      8.72844e+7 
           2465      8.79292e+7 
           2475       8.2626e+7 
           2485      8.74651e+7 
           2495      8.32493e+7 
           2505      9.53857e+7 
           2513      8.16613e+7 
           2518       8.2496e+7 
           2525      7.58821e+7 
           2535      7.47746e+7 
           2545      7.15882e+7 
           2555      7.66845e+7 
           2565      7.76395e+7 
           2575      8.78725e+7 
           2585      8.87725e+7 
           2595      8.65848e+7 
           2605      8.20352e+7 
           2615      8.06267e+7 
           2625      8.85699e+7 
           2635      8.79748e+7 
           2645      1.00348e+8 
           2655      9.95184e+7 
           2665      8.63395e+7 
           2675      9.30501e+7 
           2685      9.19507e+7 
           2695      8.74416e+7 
           2705      9.04621e+7 
           2715      8.45277e+7 
           2725       8.5603e+7 
           2735      9.28046e+7 
           2745      7.62306e+7 
           2755       7.7063e+7 
           2765      7.93153e+7 
           2775      8.59314e+7 
           2785       7.7442e+7 
           2795      4.32191e+7 
           2805       5.3713e+7 
           2815      8.58694e+7 
           2825      9.10122e+7 
           2835      8.75073e+7 
           2845      8.32256e+7 
           2855      7.85717e+7 
           2865      8.73136e+7 
           2875       8.4319e+7 
           2885      8.57135e+7 
           2895      8.18005e+7 
           2910      9.19568e+7 
           2930      8.65851e+7 
           2950       8.7151e+7 
           2970      8.92399e+7 
           2990      8.92721e+7 
           3010      9.05845e+7 
           3030      8.88428e+7 
           3050       8.7398e+7 
           3070       8.6231e+7 
           3090      8.73555e+7 
           3110      8.43776e+7 
           3130      8.43679e+7 
           3150      8.53806e+7 
           3170      8.43891e+7 
           3190      7.99469e+7 
           3210      8.20066e+7 
           3230      7.93765e+7 
           3250      8.07601e+7 
           3270      8.09202e+7 
           3290      8.14813e+7 
           3310      8.17409e+7 
           3330      7.92603e+7 
           3350      7.77427e+7 
           3370      7.75094e+7 
           3390      7.70171e+7 
           3410      7.80472e+7 
           3430      7.78026e+7 
           3450      7.66816e+7 
           3470      7.55655e+7 
           3490      7.49958e+7 
           3510      7.57489e+7 
           3530        7.541e+7 
           3550       7.5585e+7 
           3570      7.34517e+7 
           3590      7.28373e+7 
           3610      7.25441e+7 
           3630      7.21872e+7 
           3640      7.14045e+7 
           3650      7.30384e+7 
           3670      7.26585e+7 
           3690      7.10679e+7 
           3710      6.90091e+7 
           3730       6.4602e+7 
           3750      7.11801e+7 
           3770      7.35175e+7 
           3790      8.94215e+7 
           3810        1.053e+8 
           3830      8.33464e+7 
           3850      1.16937e+8 
           3870      1.36989e+8 
           3890      7.32641e+7 
           3910         1.38e+8 
           3930      1.37021e+8 
           3950      1.38061e+8 
           3970      6.95499e+7 
           3990      1.32401e+8 
           4010      1.61241e+8 
           4030      1.63066e+8 
           4050      1.60963e+8 
           4070      1.47907e+8 
           4090      1.03424e+8 
           4110      7.77608e+7 
           4130       1.3468e+8 
           4150      1.50836e+8 
           4170      1.51158e+8 
           4190      1.50092e+8 
           4210      1.49513e+8 
           4230      1.45532e+8 
           4250      1.43961e+8 
           4270      1.38151e+8 
           4290      1.36575e+8 
           4310      1.21386e+8 
           4330       8.3894e+7 
           4350      7.11331e+7 
           4370      1.17381e+8 
           4390      1.24737e+8 
           4410      1.27025e+8 
           4430      1.24105e+8 
           4450       1.2706e+8 
           4470      1.25456e+8 
           4490      1.20198e+8 
           4510      1.23957e+8 
           4530      1.20689e+8 
           4550      1.18312e+8 
           4570      1.19473e+8 
           4590      1.16362e+8 
           4610      1.17425e+8 
           4630      1.13554e+8 
           4650      1.14077e+8 
           4670      1.12342e+8 
           4690      1.08421e+8 
           4710      1.03627e+8 
           4730      1.07609e+8 
           4750       1.0606e+8 
           4770       1.0452e+8 
           4790       1.0231e+8 
           4810      9.78294e+7 
           4830      8.98977e+7 
           4850      6.46634e+7 
           4870      5.23074e+7 
           4890      8.27708e+7 
           4910      9.14207e+7 
           4930      9.21592e+7 
           4950      9.30073e+7 
           4970      9.30549e+7 
           4990      9.11878e+7 
           5010      8.82144e+7 
           5030      8.83287e+7 
           5050      8.60691e+7 
           5070      8.74329e+7 
           5090      8.64927e+7 
           5110      8.55111e+7 
           5130      8.43103e+7 
           5150      8.26468e+7 
           5170      8.04878e+7 
           5190      7.97065e+7 
           5210      7.98396e+7 
           5230      7.82302e+7 
           5250      7.85962e+7 
           5270      7.47127e+7 
           5290      7.68318e+7 
           5310      7.50784e+7 
           5330      7.21821e+7 
           5350      7.41718e+7 
           5370      7.32363e+7 
           5390      7.23372e+7 
           5410      7.03939e+7 
           5430      7.03925e+7 
           5450      7.02801e+7 
           5470      6.93327e+7 
           5490       6.8511e+7 
           5510      6.79314e+7 
           5530      6.69741e+7 
           5550      6.65534e+7 
           5570       6.5746e+7 
           5590      6.49232e+7 
           5610      6.44994e+7 
           5630       6.3979e+7 
           5650      6.30311e+7 
           5670      6.21431e+7 
           5690      6.17431e+7 
           5710      6.10988e+7 
           5730      6.07269e+7 
           5750      5.97241e+7 
           5770      5.92779e+7 
           5790      5.85736e+7 
           5810      5.80282e+7 
           5830      5.74645e+7 
           5850        5.683e+7 
           5870      5.61493e+7 
           5890      5.50823e+7 
           5910       5.5023e+7 
           5930      5.44864e+7 
           5950      5.36174e+7 
           5970      5.32883e+7 
           5990      5.24837e+7 
           6010      5.19764e+7 
           6030      5.15928e+7 
           6050      5.09332e+7 
           6070      5.06626e+7 
           6090      5.01109e+7 
           6110      4.95392e+7 
           6130      4.88656e+7 
           6150      4.70323e+7 
           6170      4.75918e+7 
           6190      4.76584e+7 
           6210      4.70871e+7 
           6230      4.65562e+7 
           6250      4.55306e+7 
           6270      4.57466e+7 
           6290      4.53371e+7 
           6310      4.47181e+7 
           6330      4.43269e+7 
           6350      4.28933e+7 
           6370      4.29261e+7 
           6390       4.2966e+7 
           6410      4.23453e+7 
           6430      4.20504e+7 
           6450      4.07649e+7 
           6470      4.09543e+7 
           6490      4.00958e+7 
           6510      3.91983e+7 
           6530      3.69609e+7 
           6550      3.06029e+7 
           6570      2.48032e+7 
           6590      3.41145e+7 
           6610      3.68856e+7 
           6630      3.75085e+7 
           6650      3.75234e+7 
           6670      3.73072e+7 
           6690      3.70836e+7 
           6710       3.6806e+7 
           6730      3.63272e+7 
           6750      3.59577e+7 
           6770      3.58918e+7 
           6790      3.55214e+7 
           6810      3.52229e+7 
           6830      3.48255e+7 
           6850      3.45502e+7 
           6870      3.42631e+7 
           6890      3.39549e+7 
           6910       3.3634e+7 
           6930      3.32864e+7 
           6950      3.30187e+7 
           6970      3.26968e+7 
           6990      3.24375e+7 
           7010      3.17229e+7 
           7030      3.17912e+7 
           7050      3.15088e+7 
           7070      3.12652e+7 
           7090      3.10043e+7 
           7110      3.02578e+7 
           7130      3.03358e+7 
           7150      2.99733e+7 
           7170      2.98034e+7 
           7190      2.95635e+7 
           7210      2.93337e+7 
           7230      2.90499e+7 
           7250      2.86067e+7 
           7270      2.85764e+7 
           7290      2.82313e+7 
           7310      2.80601e+7 
           7330      2.78139e+7 
           7350      2.76153e+7 
           7370      2.73783e+7 
           7390      2.70937e+7 
           7410      2.67747e+7 
           7430      2.63155e+7 
           7450      2.62524e+7 
           7470      2.59115e+7 
           7490      2.58204e+7 
           7510       2.5689e+7 
           7530      2.55135e+7 
           7550      2.53336e+7 
           7570      2.50901e+7 
           7590      2.48933e+7 
           7610      2.46911e+7 
           7630      2.44725e+7 
           7650      2.42302e+7 
           7670      2.39823e+7 
           7690      2.37634e+7 
           7710      2.36289e+7 
           7730      2.34532e+7 
           7750      2.32413e+7 
           7770      2.22844e+7 
           7790      2.28897e+7 
           7810       2.2683e+7 
           7830      2.24592e+7 
           7850      2.21682e+7 
           7870      2.18726e+7 
           7890      2.15549e+7 
           7910      2.16194e+7 
           7930      2.14416e+7 
           7950       2.1043e+7 
           7970      2.12376e+7 
           7990      2.05755e+7 
           8010      2.08769e+7 
           8030      2.06795e+7 
           8050      2.05321e+7 
           8070      2.03605e+7 
           8090      2.02064e+7 
           8110      2.00301e+7 
           8130      1.99043e+7 
           8150      1.97585e+7 
           8170      1.96021e+7 
           8190       1.9201e+7 
           8210      1.90125e+7 
           8230      1.87611e+7 
           8250      1.88059e+7 
           8270      1.89469e+7 
           8290      1.87674e+7 
           8310       1.8621e+7 
           8330      1.83867e+7 
           8350      1.83598e+7 
           8370      1.82705e+7 
           8390      1.81209e+7 
           8410      1.79821e+7 
           8430      1.78051e+7 
           8450       1.7302e+7 
           8470       1.7514e+7 
           8490      1.73547e+7 
           8510      1.68607e+7 
           8530      1.70898e+7 
           8550      1.59272e+7 
           8570       1.6943e+7 
           8590      1.62959e+7 
           8610      1.60933e+7 
           8630      1.66703e+7 
           8650       1.6048e+7 
           8670        1.428e+7 
           8690      1.59315e+7 
           8710      1.65581e+7 
           8730      1.57458e+7 
           8750      1.33303e+7 
           8770      1.50378e+7 
           8790      1.63502e+7 
           8810       1.6494e+7 
           8830      1.57859e+7 
           8850      1.38893e+7 
           8870      1.22332e+7 
           8890      1.48757e+7 
           8910      1.58995e+7 
           8930      1.61581e+7 
           8950      1.62962e+7 
           8970      1.57381e+7 
           8990       1.4479e+7 
           9010       1.1636e+7 
           9030      1.24827e+7 
           9050       1.4571e+7 
           9070       1.5099e+7 
           9090      1.52145e+7 
           9110       1.5545e+7 
           9130       1.5556e+7 
           9150      1.54314e+7 
           9170      1.50183e+7 
