# Kurucz ODFNEW /NOVER (2003)
# teff = 34000 K (value for the effective temperature for the model. Temperatures are given in K)
# logg = 5 log(cm/s2) (value for Log(G) for the model.)
# meta = 0.2  (value for the Metallicity for the model.)
# lh = 1.25  (l/Hp where l is the  mixing length of the convective element and Hp is the pressure scale height)
# vtur = 2 km/s (Microturbulence velocity)
# alpha = 0.4  (Alpha)
#
# column 1: WAVELENGTH (ANGSTROM), Wavelength in Angstrom
# column 2: FLUX (ERG/CM2/S/A), Flux in erg/cm2/s/A
          147.2      2.83071e-5 
            151       7.2737e-5 
          155.2      0.00019588 
          158.8     0.000440215 
            162     0.000877987 
            166      0.00201038 
          170.3      0.00466669 
          173.4      0.00841953 
          176.8       0.0157546 
          180.2       0.0285795 
          181.7       0.0372931 
          186.1       0.0772022 
            191        0.167386 
          193.9        0.259411 
          198.4        0.502474 
          201.8        0.808165 
            205         1.24614 
          210.5         2.54824 
          216.2         5.10307 
          219.8         7.87348 
            223         11.3695 
          226.8          18.271 
            230          2925.1 
            234         6180.92 
            240         9806.74 
          246.5           16220 
          252.4         26356.3 
          256.8         35932.7 
            260         54523.2 
            264         76252.9 
          268.5          112488 
          273.5          154651 
          278.5          195708 
            284          412386 
            290          586417 
            296          772154 
            301      1.06697e+6 
            308      2.49609e+6 
            318      4.84975e+6 
            328      6.90785e+6 
            338      1.16401e+7 
            348      1.73554e+7 
            357      3.65943e+7 
            366      7.40066e+7 
            375      8.80844e+7 
            385      1.28552e+8 
            395      2.55507e+8 
            405      3.07631e+8 
            414       4.3703e+8 
            422      4.79596e+8 
            430      5.41398e+8 
            441      6.50459e+8 
            451      7.35045e+8 
            460      7.59085e+8 
            470      8.91889e+8 
            480       1.0252e+9 
            490      1.09082e+9 
            500      1.31076e+9 
            506       1.7567e+9 
            512     1.30231e+10 
            520     1.19578e+10 
            530     1.10615e+10 
            540     1.03315e+10 
            550     1.19763e+10 
            560     1.51004e+10 
            570      1.5795e+10 
            580     1.44779e+10 
            590     1.54945e+10 
            600     1.17414e+10 
            610     1.47827e+10 
            620     1.73821e+10 
            630     1.68451e+10 
            640     1.64313e+10 
            650     1.62961e+10 
            658     1.28577e+10 
            665     1.55548e+10 
            675     1.72396e+10 
            685     1.37276e+10 
            695     1.79479e+10 
            705     1.38087e+10 
            716     1.89513e+10 
            726     1.82891e+10 
            735     1.83286e+10 
            745     1.73254e+10 
            755     1.73076e+10 
            765     1.80291e+10 
            775     1.84813e+10 
            785     1.87856e+10 
            795     1.87302e+10 
            805     1.77911e+10 
            815     1.76538e+10 
            825     1.87373e+10 
            835     1.48671e+10 
            845     1.78339e+10 
            855      1.7566e+10 
            865     1.80766e+10 
            875     1.80899e+10 
            885     1.83472e+10 
            895     1.84107e+10 
            905     1.77623e+10 
            915     1.74914e+10 
            925     4.21092e+10 
            935     6.81731e+10 
            945     1.00621e+11 
            955     1.15172e+11 
            965     1.38535e+11 
            975     5.41143e+10 
            985      1.1566e+11 
            995     1.00904e+11 
           1005     1.05202e+11 
           1015     1.10774e+11 
           1025     7.57493e+10 
           1035       1.051e+11 
           1045      1.2459e+11 
           1055     1.17538e+11 
           1065     9.55155e+10 
           1075     1.02578e+11 
           1085     9.33195e+10 
           1095     1.01906e+11 
           1105      9.5791e+10 
           1115     9.37259e+10 
           1125     7.03407e+10 
           1135     8.89546e+10 
           1145     8.36346e+10 
           1155     7.86655e+10 
           1165     7.77594e+10 
           1175     5.21398e+10 
           1185     7.11808e+10 
           1195     6.77705e+10 
           1205     6.29039e+10 
           1215     4.54405e+10 
           1225     6.22399e+10 
           1235     6.71961e+10 
           1245       6.476e+10 
           1255     6.44592e+10 
           1265     6.55299e+10 
           1275     6.70807e+10 
           1285     6.68438e+10 
           1295     5.97996e+10 
           1305     6.06629e+10 
           1315      6.4772e+10 
           1325     6.18024e+10 
           1335     6.01655e+10 
           1345     5.84808e+10 
           1355     5.82856e+10 
           1365     5.50003e+10 
           1375     5.33025e+10 
           1385     5.09821e+10 
           1395     3.65051e+10 
           1405     3.89091e+10 
           1415     4.84199e+10 
           1425      4.3561e+10 
           1435     4.63606e+10 
           1442      4.6187e+10 
           1447      4.5836e+10 
           1455     4.35289e+10 
           1465     4.21363e+10 
           1475     4.22456e+10 
           1485     4.20083e+10 
           1495     4.06661e+10 
           1505     3.86688e+10 
           1512     3.78634e+10 
           1517     3.80693e+10 
           1525     3.69274e+10 
           1535      3.1955e+10 
           1545     2.77486e+10 
           1555     2.76343e+10 
           1565     3.04524e+10 
           1575     3.18119e+10 
           1585     3.15333e+10 
           1595     3.17877e+10 
           1605     3.02916e+10 
           1615     2.87318e+10 
           1625      2.9251e+10 
           1635     2.94129e+10 
           1645     2.92861e+10 
           1655     2.93816e+10 
           1665     2.86438e+10 
           1672     2.67739e+10 
           1677     3.08368e+10 
           1685     2.94234e+10 
           1695     2.82695e+10 
           1705     2.77134e+10 
           1715     2.66406e+10 
           1725     2.51957e+10 
           1735     2.61651e+10 
           1745     2.59576e+10 
           1755     2.55244e+10 
           1765     2.50002e+10 
           1775     2.40473e+10 
           1785     2.43414e+10 
           1795       2.385e+10 
           1805     2.37726e+10 
           1815     2.29533e+10 
           1825     2.26448e+10 
           1835     2.24624e+10 
           1845     2.10741e+10 
           1855     2.13369e+10 
           1865     2.13946e+10 
           1875      2.0852e+10 
           1885     1.97375e+10 
           1895     1.91878e+10 
           1905     1.97468e+10 
           1915     1.90202e+10 
           1925      1.7839e+10 
           1935     1.88907e+10 
           1945     1.91102e+10 
           1955     1.73667e+10 
           1967     1.80814e+10 
           1976     1.85828e+10 
           1984     1.77289e+10 
           1995     1.73332e+10 
           2005      1.7544e+10 
           2015     1.74678e+10 
           2025     1.73774e+10 
           2035     1.66094e+10 
           2045     1.64095e+10 
           2055     1.36578e+10 
           2065     1.32096e+10 
           2074     1.34753e+10 
           2078     1.32149e+10 
           2085     1.35934e+10 
           2095     1.39421e+10 
           2105     1.49033e+10 
           2115     1.51206e+10 
           2125     1.47542e+10 
           2135     1.46511e+10 
           2145     1.43551e+10 
           2155     1.43366e+10 
           2165     1.37439e+10 
           2175     1.39276e+10 
           2185     1.35108e+10 
           2195     1.36992e+10 
           2205     1.34938e+10 
           2215     1.29454e+10 
           2225     1.30423e+10 
           2235     1.28407e+10 
           2245     1.26577e+10 
           2255     1.21775e+10 
           2265     1.23089e+10 
           2275     1.21602e+10 
           2285     1.17307e+10 
           2295     1.07003e+10 
           2305     1.12437e+10 
           2315     1.12178e+10 
           2325     1.11744e+10 
           2335     1.10112e+10 
           2345     1.09086e+10 
           2355     1.06905e+10 
           2365     1.05161e+10 
           2375     1.02714e+10 
           2385      9.83577e+9 
           2395      9.88779e+9 
           2405      9.89366e+9 
           2415      9.69886e+9 
           2425       9.6421e+9 
           2435      9.44679e+9 
           2445      9.35518e+9 
           2455      9.21536e+9 
           2465       9.1178e+9 
           2475      8.97109e+9 
           2485      8.68673e+9 
           2495      6.48093e+9 
           2505      8.23038e+9 
           2513      7.96569e+9 
           2518      8.06421e+9 
           2525      8.35932e+9 
           2535      8.30757e+9 
           2545      8.06443e+9 
           2555      8.01239e+9 
           2565      7.88018e+9 
           2575      7.83898e+9 
           2585      7.75421e+9 
           2595      7.60561e+9 
           2605      7.56898e+9 
           2615      7.41589e+9 
           2625      7.36005e+9 
           2635      7.26468e+9 
           2645      7.15116e+9 
           2655      7.06693e+9 
           2665      6.88085e+9 
           2675      6.73368e+9 
           2685      6.77036e+9 
           2695      6.60351e+9 
           2705      6.53572e+9 
           2715      6.45904e+9 
           2725       6.3686e+9 
           2735       6.2224e+9 
           2745      6.25614e+9 
           2755      6.17556e+9 
           2765      6.06938e+9 
           2775       6.0717e+9 
           2785      5.95095e+9 
           2795      5.71892e+9 
           2805      5.77733e+9 
           2815      5.76488e+9 
           2825      5.67316e+9 
           2835      5.54368e+9 
           2845      5.56342e+9 
           2855      5.45935e+9 
           2865      5.38505e+9 
           2875      5.31392e+9 
           2885      5.25678e+9 
           2895      5.17827e+9 
           2910      5.03471e+9 
           2930      4.99167e+9 
           2950       4.8385e+9 
           2970      4.74024e+9 
           2990      4.59192e+9 
           3010      4.42798e+9 
           3030      4.32335e+9 
           3050      4.27858e+9 
           3070      4.21822e+9 
           3090      4.05449e+9 
           3110      4.03056e+9 
           3130      3.90654e+9 
           3150      3.84266e+9 
           3170      3.74375e+9 
           3190        3.669e+9 
           3210      3.57484e+9 
           3230      3.50196e+9 
           3250      3.45072e+9 
           3270      3.34215e+9 
           3290      3.28967e+9 
           3310      3.21403e+9 
           3330      3.13284e+9 
           3350      3.06123e+9 
           3370      2.99811e+9 
           3390      2.96178e+9 
           3410      2.89533e+9 
           3430      2.84953e+9 
           3450       2.7673e+9 
           3470      2.72067e+9 
           3490      2.66464e+9 
           3510      2.61305e+9 
           3530      2.57324e+9 
           3550      2.51495e+9 
           3570      2.46908e+9 
           3590      2.40467e+9 
           3610      2.36697e+9 
           3630      2.31403e+9 
           3640      2.29354e+9 
           3650      2.21411e+9 
           3670      2.18121e+9 
           3690      2.13981e+9 
           3710      2.05462e+9 
           3730      2.02501e+9 
           3750      1.99272e+9 
           3770       1.9244e+9 
           3790       1.9705e+9 
           3810      2.01397e+9 
           3830      1.81077e+9 
           3850      2.01384e+9 
           3870      1.96194e+9 
           3890      1.68698e+9 
           3910      1.98496e+9 
           3930      1.93744e+9 
           3950      1.86504e+9 
           3970      1.55177e+9 
           3990      1.83056e+9 
           4010      1.81471e+9 
           4030      1.72843e+9 
           4050      1.76237e+9 
           4070      1.67038e+9 
           4090      1.54787e+9 
           4110      1.41141e+9 
           4130      1.60276e+9 
           4150      1.58776e+9 
           4170      1.58804e+9 
           4190      1.55511e+9 
           4210      1.52848e+9 
           4230      1.50783e+9 
           4250      1.45665e+9 
           4270      1.42523e+9 
           4290      1.39449e+9 
           4310      1.35099e+9 
           4330      1.25096e+9 
           4350      1.16203e+9 
           4370      1.29332e+9 
           4390      1.27155e+9 
           4410      1.26303e+9 
           4430      1.25662e+9 
           4450      1.23055e+9 
           4470      1.17742e+9 
           4490      1.19454e+9 
           4510      1.17528e+9 
           4530       1.1639e+9 
           4550        1.138e+9 
           4570      1.12785e+9 
           4590      1.10513e+9 
           4610      1.07863e+9 
           4630      1.05385e+9 
           4650       1.0043e+9 
           4670      1.02591e+9 
           4690      1.00632e+9 
           4710      9.82151e+8 
           4730      9.96478e+8 
           4750      9.77985e+8 
           4770      9.70745e+8 
           4790      9.54561e+8 
           4810      9.33694e+8 
           4830      9.10879e+8 
           4850       8.4832e+8 
           4870      7.68806e+8 
           4890      8.68434e+8 
           4910      8.60498e+8 
           4930      8.33985e+8 
           4950      8.33225e+8 
           4970      8.30772e+8 
           4990      8.17757e+8 
           5010      7.86131e+8 
           5030       7.8686e+8 
           5050      7.75204e+8 
           5070      7.70287e+8 
           5090      7.56757e+8 
           5110      7.45146e+8 
           5130      7.33306e+8 
           5150      7.23005e+8 
           5170      7.11911e+8 
           5190      7.03162e+8 
           5210      6.93402e+8 
           5230      6.83867e+8 
           5250      6.72584e+8 
           5270      6.61873e+8 
           5290       6.5498e+8 
           5310      6.45258e+8 
           5330      6.36341e+8 
           5350      6.27235e+8 
           5370      6.18535e+8 
           5390      6.08857e+8 
           5410      5.95727e+8 
           5430       5.9302e+8 
           5450      5.84363e+8 
           5470      5.76132e+8 
           5490      5.68367e+8 
           5510      5.60662e+8 
           5530      5.52832e+8 
           5550       5.4581e+8 
           5570      5.38242e+8 
           5590      5.29768e+8 
           5610      5.23891e+8 
           5630       5.1699e+8 
           5650      5.09572e+8 
           5670      5.01589e+8 
           5690      4.89889e+8 
           5710       4.8198e+8 
           5730      4.76579e+8 
           5750      4.68882e+8 
           5770      4.64675e+8 
           5790      4.58336e+8 
           5810      4.51949e+8 
           5830      4.45284e+8 
           5850       4.4088e+8 
           5870      4.24072e+8 
           5890      4.27864e+8 
           5910      4.24067e+8 
           5930      4.19262e+8 
           5950      4.14331e+8 
           5970      4.10671e+8 
           5990      4.05098e+8 
           6010      4.01082e+8 
           6030      3.96074e+8 
           6050      3.91906e+8 
           6070      3.87436e+8 
           6090      3.82681e+8 
           6110      3.77697e+8 
           6130      3.73201e+8 
           6150      3.67431e+8 
           6170      3.63203e+8 
           6190      3.59463e+8 
           6210      3.55286e+8 
           6230      3.50902e+8 
           6250      3.46075e+8 
           6270      3.42223e+8 
           6290      3.38174e+8 
           6310      3.33706e+8 
           6330      3.30134e+8 
           6350      3.25675e+8 
           6370      3.22352e+8 
           6390      3.18455e+8 
           6410      3.14591e+8 
           6430      3.10988e+8 
           6450      3.07161e+8 
           6470      3.02538e+8 
           6490      2.99004e+8 
           6510      2.94956e+8 
           6530      2.90325e+8 
           6550      2.78324e+8 
           6570      2.49629e+8 
           6590      2.78808e+8 
           6610      2.78546e+8 
           6630      2.76242e+8 
           6650      2.72854e+8 
           6670      2.66469e+8 
           6690      2.63523e+8 
           6710      2.63168e+8 
           6730      2.59909e+8 
           6750      2.57784e+8 
           6770      2.55162e+8 
           6790       2.5134e+8 
           6810       2.4933e+8 
           6830      2.46281e+8 
           6850      2.43817e+8 
           6870      2.40971e+8 
           6890      2.37582e+8 
           6910      2.34607e+8 
           6930       2.3331e+8 
           6950      2.30737e+8 
           6970      2.28213e+8 
           6990      2.25636e+8 
           7010      2.22932e+8 
           7030      2.20339e+8 
           7050      2.18007e+8 
           7070      2.12758e+8 
           7090       2.1365e+8 
           7110      2.10937e+8 
           7130      2.08807e+8 
           7150      2.06867e+8 
           7170      2.04439e+8 
           7190      2.02363e+8 
           7210      2.00322e+8 
           7230      1.96563e+8 
           7250      1.95631e+8 
           7270      1.94021e+8 
           7290      1.90612e+8 
           7310       1.8988e+8 
           7330       1.8792e+8 
           7350       1.8595e+8 
           7370      1.84048e+8 
           7390      1.82156e+8 
           7410      1.80241e+8 
           7430      1.78398e+8 
           7450      1.76471e+8 
           7470      1.73867e+8 
           7490      1.72429e+8 
           7510      1.71091e+8 
           7530       1.6924e+8 
           7550      1.67703e+8 
           7570       1.6597e+8 
           7590      1.63887e+8 
           7610      1.62194e+8 
           7630      1.60898e+8 
           7650      1.59228e+8 
           7670      1.57764e+8 
           7690      1.55805e+8 
           7710      1.54471e+8 
           7730      1.52488e+8 
           7750      1.51532e+8 
           7770      1.50029e+8 
           7790      1.48614e+8 
           7810      1.47113e+8 
           7830      1.45705e+8 
           7850      1.44285e+8 
           7870      1.42458e+8 
           7890      1.41046e+8 
           7910      1.40057e+8 
           7930      1.38663e+8 
           7950      1.37417e+8 
           7970      1.35969e+8 
           7990      1.34717e+8 
           8010      1.33458e+8 
           8030      1.32116e+8 
           8050      1.30932e+8 
           8070      1.29665e+8 
           8090      1.28333e+8 
           8110      1.26201e+8 
           8130      1.25979e+8 
           8150      1.24704e+8 
           8170       1.2362e+8 
           8190      1.21613e+8 
           8210      1.20289e+8 
           8230      1.18938e+8 
           8250      1.18295e+8 
           8270      1.16275e+8 
           8290      1.16054e+8 
           8310      1.15207e+8 
           8330      1.13965e+8 
           8350      1.12539e+8 
           8370      1.11765e+8 
           8390      1.11051e+8 
           8410      1.09911e+8 
           8430       1.0903e+8 
           8450       1.0757e+8 
           8470      1.07083e+8 
           8490      1.05963e+8 
           8510      1.04789e+8 
           8530      1.04003e+8 
           8550      1.03069e+8 
           8570      1.02399e+8 
