# Kurucz ODFNEW /NOVER (2003)
# teff = 25000 K (value for the effective temperature for the model. Temperatures are given in K)
# logg = 3.5 log(cm/s2) (value for Log(G) for the model.)
# meta = -2.5  (value for the Metallicity for the model.)
# lh = 1.25  (l/Hp where l is the  mixing length of the convective element and Hp is the pressure scale height)
# vtur = 2 km/s (Microturbulence velocity)
# alpha = 0  (Alpha)
#
# column 1: WAVELENGTH (ANGSTROM), Wavelength in Angstrom
# column 2: FLUX (ERG/CM2/S/A), Flux in erg/cm2/s/A
          147.2     1.97233e-13 
            151     9.37982e-13 
          155.2     4.79439e-12 
          158.8     1.80556e-11 
            162      5.5796e-11 
            166     2.15024e-10 
          170.3     8.48944e-10 
          173.4      2.19027e-9 
          176.8      5.94678e-9 
          180.2      1.55103e-8 
          181.7      2.33878e-8 
          186.1      7.51551e-8 
            191      2.58478e-7 
          193.9      5.19574e-7 
          198.4      1.47189e-6 
          201.8      3.13525e-6 
            205      6.23484e-6 
          210.5      1.92649e-5 
          216.2      5.83852e-5 
          219.8     0.000113864 
            223     0.000202149 
          226.8     0.000390848 
            230      0.00357993 
            234      0.00825205 
            240       0.0196998 
          246.5        0.048327 
          252.4        0.105398 
          256.8        0.170421 
            260          0.2675 
            264        0.426512 
          268.5        0.708495 
          273.5         1.21925 
          278.5         2.05845 
            284         3.58037 
            290         6.37842 
            296         11.0663 
            301         17.0595 
            308         29.5172 
            318         69.5871 
            328         146.904 
            338         296.397 
            348         572.137 
            357         999.368 
            366         1697.98 
            375         2794.16 
            385         4735.01 
            395         7776.28 
            405         12436.8 
            414         18592.3 
            422         26115.3 
            430         36136.7 
            441         55511.5 
            451         80285.2 
            460          110065 
            470          154002 
            480          211894 
            490          287435 
            500          384415 
            506      2.64924e+6 
            512      7.35972e+6 
            520      8.52434e+6 
            530      1.08211e+7 
            540      1.14154e+7 
            550       1.4926e+7 
            560      1.70153e+7 
            570      1.97455e+7 
            580      1.97537e+7 
            590      2.46178e+7 
            600      2.85896e+7 
            610      3.24285e+7 
            620      3.60892e+7 
            630      4.05015e+7 
            640      4.42749e+7 
            650      4.96302e+7 
            658      5.40212e+7 
            665      5.77253e+7 
            675      6.22992e+7 
            685      6.75299e+7 
            695      7.59932e+7 
            705       8.1709e+7 
            716      8.98878e+7 
            726      9.70135e+7 
            735      1.04701e+8 
            745      1.13312e+8 
            755      1.21903e+8 
            765      1.30491e+8 
            775      1.40255e+8 
            785      1.50087e+8 
            795      1.59537e+8 
            805      1.69911e+8 
            815      1.79867e+8 
            825      1.91314e+8 
            835      1.98549e+8 
            845       2.1294e+8 
            855      2.23989e+8 
            865      2.36669e+8 
            875      2.49762e+8 
            885      2.62447e+8 
            895      2.75027e+8 
            905      2.85703e+8 
            915      5.27684e+8 
            925      6.00698e+9 
            935      1.3161e+10 
            945     2.42986e+10 
            955     2.72783e+10 
            965     3.20936e+10 
            975     1.78096e+10 
            985     3.14616e+10 
            995      2.9966e+10 
           1005     3.09131e+10 
           1015      2.9388e+10 
           1025     1.71256e+10 
           1035      2.7754e+10 
           1045      2.9871e+10 
           1055     2.92076e+10 
           1065     2.73809e+10 
           1075     2.77195e+10 
           1085     2.60601e+10 
           1095     2.71236e+10 
           1105     2.61953e+10 
           1115     2.57651e+10 
           1125     2.44774e+10 
           1135     2.49686e+10 
           1145     2.41749e+10 
           1155     2.41602e+10 
           1165     2.37794e+10 
           1175     2.11337e+10 
           1185     2.27364e+10 
           1195     2.18869e+10 
           1205     2.04035e+10 
           1215     1.16059e+10 
           1225     2.03306e+10 
           1235     2.07529e+10 
           1245     2.02526e+10 
           1255     2.00965e+10 
           1265     1.96788e+10 
           1275     1.94276e+10 
           1285     1.90678e+10 
           1295     1.80425e+10 
           1305     1.80151e+10 
           1315     1.80375e+10 
           1325      1.7538e+10 
           1335     1.69966e+10 
           1345     1.70242e+10 
           1355      1.6785e+10 
           1365     1.64362e+10 
           1375     1.61428e+10 
           1385     1.58732e+10 
           1395     1.51929e+10 
           1405     1.50281e+10 
           1415     1.49965e+10 
           1425     1.47339e+10 
           1435     1.45207e+10 
           1442     1.43723e+10 
           1447     1.42355e+10 
           1455     1.40276e+10 
           1465     1.37732e+10 
           1475     1.35348e+10 
           1485     1.33045e+10 
           1495     1.30671e+10 
           1505     1.27892e+10 
           1512     1.26335e+10 
           1517      1.2543e+10 
           1525     1.23573e+10 
           1535     1.19798e+10 
           1545     1.17587e+10 
           1555     1.15193e+10 
           1565     1.14937e+10 
           1575     1.13563e+10 
           1585     1.11802e+10 
           1595     1.10025e+10 
           1605     1.07014e+10 
           1615     1.05214e+10 
           1625     1.04125e+10 
           1635     1.02503e+10 
           1645      9.88857e+9 
           1655      9.95869e+9 
           1665      9.80817e+9 
           1672      9.67945e+9 
           1677      9.66187e+9 
           1685      9.52324e+9 
           1695      9.35075e+9 
           1705      9.18281e+9 
           1715      8.99304e+9 
           1725      8.87236e+9 
           1735      8.76575e+9 
           1745      8.61881e+9 
           1755      8.50301e+9 
           1765      8.30402e+9 
           1775       8.2076e+9 
           1785      8.11271e+9 
           1795      7.99462e+9 
           1805      7.88825e+9 
           1815      7.74301e+9 
           1825      7.63158e+9 
           1835       7.5192e+9 
           1845      7.32769e+9 
           1855      7.13755e+9 
           1865      7.07855e+9 
           1875      7.05393e+9 
           1885      6.84548e+9 
           1895      6.67397e+9 
           1905      6.70167e+9 
           1915      6.51218e+9 
           1925      6.40922e+9 
           1935      6.37806e+9 
           1945      6.33515e+9 
           1955      6.12758e+9 
           1967      6.13162e+9 
           1976      6.09249e+9 
           1984      5.96382e+9 
           1995      5.80207e+9 
           2005      5.82043e+9 
           2015       5.7654e+9 
           2025      5.69896e+9 
           2035      5.58996e+9 
           2045      5.51002e+9 
           2055      5.31441e+9 
           2065      5.21907e+9 
           2074      5.24797e+9 
           2078       5.1579e+9 
           2085      5.17991e+9 
           2095      5.09917e+9 
           2105      5.07753e+9 
           2115      5.02466e+9 
           2125      4.96655e+9 
           2135      4.89542e+9 
           2145      4.82008e+9 
           2155      4.76539e+9 
           2165      4.70106e+9 
           2175      4.63842e+9 
           2185      4.57586e+9 
           2195      4.52073e+9 
           2205      4.46029e+9 
           2215      4.39876e+9 
           2225      4.34196e+9 
           2235      4.28359e+9 
           2245      4.23086e+9 
           2255       4.1709e+9 
           2265      4.12152e+9 
           2275      4.06826e+9 
           2285      4.01642e+9 
           2295      3.92656e+9 
           2305       3.9103e+9 
           2315      3.86196e+9 
           2325      3.81313e+9 
           2335      3.76292e+9 
           2345      3.71754e+9 
           2355      3.67123e+9 
           2365      3.62502e+9 
           2375      3.57913e+9 
           2385      3.53163e+9 
           2395      3.49012e+9 
           2405      3.44722e+9 
           2415      3.40381e+9 
           2425      3.36317e+9 
           2435      3.32099e+9 
           2445      3.28065e+9 
           2455      3.24116e+9 
           2465      3.20165e+9 
           2475      3.16267e+9 
           2485      3.12427e+9 
           2495      3.03936e+9 
           2505        3.049e+9 
           2513       3.0091e+9 
           2518      3.00132e+9 
           2525      2.97679e+9 
           2535      2.94145e+9 
           2545      2.90256e+9 
           2555       2.8714e+9 
           2565      2.83817e+9 
           2575      2.80532e+9 
           2585      2.77249e+9 
           2595      2.74009e+9 
           2605      2.72559e+9 
           2615      2.69376e+9 
           2625       2.6607e+9 
           2635      2.62454e+9 
           2645      2.59536e+9 
           2655      2.56281e+9 
           2665      2.53067e+9 
           2675      2.50031e+9 
           2685      2.48464e+9 
           2695      2.44093e+9 
           2705      2.42832e+9 
           2715      2.40091e+9 
           2725      2.35795e+9 
           2735      2.34572e+9 
           2745      2.32037e+9 
           2755      2.29477e+9 
           2765      2.25252e+9 
           2775      2.24434e+9 
           2785      2.21937e+9 
           2795      2.18943e+9 
           2805       2.1694e+9 
           2815      2.14702e+9 
           2825      2.10518e+9 
           2835      2.09232e+9 
           2845      2.07754e+9 
           2855      2.05488e+9 
           2865      2.03271e+9 
           2875      2.01085e+9 
           2885      1.98924e+9 
           2895      1.96788e+9 
           2910      1.93634e+9 
           2930      1.89539e+9 
           2950      1.84445e+9 
           2970      1.81679e+9 
           2990      1.77891e+9 
           3010        1.742e+9 
           3030      1.70644e+9 
           3050       1.6715e+9 
           3070      1.63752e+9 
           3090      1.60381e+9 
           3110      1.57203e+9 
           3130      1.54208e+9 
           3150      1.51117e+9 
           3170      1.48065e+9 
           3190      1.44064e+9 
           3210      1.42252e+9 
           3230      1.39485e+9 
           3250       1.3675e+9 
           3270      1.34258e+9 
           3290      1.31496e+9 
           3310      1.29165e+9 
           3330      1.26708e+9 
           3350      1.24088e+9 
           3370      1.21973e+9 
           3390      1.19689e+9 
           3410       1.1746e+9 
           3430      1.14759e+9 
           3450      1.12248e+9 
           3470       1.1052e+9 
           3490      1.08515e+9 
           3510       1.0704e+9 
           3530      1.05186e+9 
           3550      1.03332e+9 
           3570      1.01917e+9 
           3590      9.95893e+8 
           3610      9.79541e+8 
           3630      9.60743e+8 
           3640      9.57917e+8 
           3650      9.47331e+8 
           3670      9.34237e+8 
           3690      9.08421e+8 
           3710      8.84941e+8 
           3730      8.63752e+8 
           3750      9.28368e+8 
           3770       9.2912e+8 
           3790      9.57422e+8 
           3810      9.89985e+8 
           3830      8.80668e+8 
           3850      9.98342e+8 
           3870      9.88805e+8 
           3890      8.40092e+8 
           3910      9.67519e+8 
           3930      9.48379e+8 
           3950      9.35033e+8 
           3970      7.78968e+8 
           3990      9.00572e+8 
           4010      8.86691e+8 
           4030      8.47617e+8 
           4050      8.63084e+8 
           4070      8.46936e+8 
           4090      8.04734e+8 
           4110      7.16366e+8 
           4130      7.97526e+8 
           4150      7.86533e+8 
           4170      7.77815e+8 
           4190      7.66695e+8 
           4210      7.54071e+8 
           4230      7.41757e+8 
           4250      7.29536e+8 
           4270       7.1718e+8 
           4290      7.06006e+8 
           4310      6.93324e+8 
           4330      6.50163e+8 
           4350       5.9775e+8 
           4370      6.59818e+8 
           4390      6.39197e+8 
           4410      6.40754e+8 
           4430      6.28474e+8 
           4450      6.20897e+8 
           4470       5.9286e+8 
           4490      6.01605e+8 
           4510      5.92336e+8 
           4530      5.83152e+8 
           4550      5.74034e+8 
           4570      5.65268e+8 
           4590      5.56651e+8 
           4610      5.48198e+8 
           4630      5.39887e+8 
           4650       5.3135e+8 
           4670      5.23665e+8 
           4690      5.15235e+8 
           4710      5.02717e+8 
           4730      5.00529e+8 
           4750      4.93033e+8 
           4770      4.85878e+8 
           4790      4.78709e+8 
           4810      4.71642e+8 
           4830      4.63772e+8 
           4850      4.40304e+8 
           4870      3.98127e+8 
           4890      4.43118e+8 
           4910      4.38234e+8 
           4930      4.24533e+8 
           4950      4.25891e+8 
           4970      4.19847e+8 
           4990      4.13871e+8 
           5010      4.03834e+8 
           5030      4.02252e+8 
           5050      3.94582e+8 
           5070      3.91035e+8 
           5090      3.85583e+8 
           5110      3.80219e+8 
           5130      3.74941e+8 
           5150      3.69748e+8 
           5170      3.64666e+8 
           5190      3.59665e+8 
           5210      3.54744e+8 
           5230      3.49901e+8 
           5250      3.45149e+8 
           5270      3.40486e+8 
           5290      3.35884e+8 
           5310      3.31367e+8 
           5330      3.26936e+8 
           5350      3.22561e+8 
           5370      3.18269e+8 
           5390      3.14044e+8 
           5410       3.0986e+8 
           5430      3.05818e+8 
           5450      3.01802e+8 
           5470      2.97849e+8 
           5490      2.93958e+8 
           5510       2.9014e+8 
           5530      2.86382e+8 
           5550      2.82683e+8 
           5570      2.79042e+8 
           5590      2.75457e+8 
           5610      2.71929e+8 
           5630      2.68467e+8 
           5650      2.65047e+8 
           5670      2.61681e+8 
           5690      2.58355e+8 
           5710      2.55127e+8 
           5730      2.51926e+8 
           5750      2.48764e+8 
           5770      2.45673e+8 
           5790      2.42619e+8 
           5810      2.39601e+8 
           5830      2.36641e+8 
           5850      2.33727e+8 
           5870      2.25063e+8 
           5890      2.27924e+8 
           5910      2.25241e+8 
           5930      2.22503e+8 
           5950      2.19797e+8 
           5970      2.17142e+8 
           5990      2.14519e+8 
           6010      2.11946e+8 
           6030      2.09403e+8 
           6050      2.06899e+8 
           6070      2.04433e+8 
           6090      2.02006e+8 
           6110      1.99616e+8 
           6130      1.97263e+8 
           6150      1.94936e+8 
           6170      1.92645e+8 
           6190      1.90399e+8 
           6210      1.88179e+8 
           6230      1.85982e+8 
           6250      1.83829e+8 
           6270        1.817e+8 
           6290      1.79604e+8 
           6310       1.7754e+8 
           6330      1.75508e+8 
           6350      1.73498e+8 
           6370      1.71519e+8 
           6390       1.6957e+8 
           6410      1.67652e+8 
           6430      1.65754e+8 
           6450      1.63886e+8 
           6470      1.62046e+8 
           6490      1.60226e+8 
           6510      1.58434e+8 
           6530      1.56467e+8 
           6550      1.51745e+8 
           6570      1.36789e+8 
           6590       1.5082e+8 
           6610      1.49848e+8 
           6630      1.48208e+8 
           6650      1.46671e+8 
           6670      1.43879e+8 
           6690      1.42338e+8 
           6710      1.41934e+8 
           6730      1.40393e+8 
           6750      1.38876e+8 
           6770      1.37375e+8 
           6790      1.35897e+8 
           6810      1.34441e+8 
           6830      1.33001e+8 
           6850      1.31583e+8 
           6870      1.30188e+8 
           6890      1.28806e+8 
           6910      1.27446e+8 
           6930      1.26092e+8 
           6950      1.24774e+8 
           6970      1.23462e+8 
           6990      1.22155e+8 
           7010      1.20892e+8 
           7030      1.19633e+8 
           7050      1.18395e+8 
           7070      1.15367e+8 
           7090      1.15953e+8 
           7110      1.14758e+8 
           7130      1.13582e+8 
           7150      1.12416e+8 
           7170      1.11241e+8 
           7190      1.10127e+8 
           7210       1.0901e+8 
           7230       1.0786e+8 
           7250      1.06814e+8 
           7270      1.05735e+8 
           7290      1.03844e+8 
           7310      1.03601e+8 
           7330      1.02581e+8 
           7350      1.01549e+8 
           7370      1.00541e+8 
           7390      9.95421e+7 
           7410      9.85527e+7 
           7430      9.75793e+7 
           7450      9.66284e+7 
           7470      9.56729e+7 
           7490      9.47328e+7 
           7510      9.37681e+7 
           7530      9.28919e+7 
           7550       9.1984e+7 
           7570       9.1091e+7 
           7590      9.02062e+7 
           7610      8.93293e+7 
           7630      8.84669e+7 
           7650      8.76187e+7 
           7670      8.67781e+7 
           7690      8.59387e+7 
           7710      8.51195e+7 
           7730      8.43076e+7 
           7750      8.34967e+7 
           7770      8.27118e+7 
           7790      8.19337e+7 
           7810      8.10946e+7 
           7830      8.03921e+7 
           7850      7.97201e+7 
           7870      7.89687e+7 
           7890      7.81876e+7 
           7910      7.74977e+7 
           7930      7.66999e+7 
           7950      7.58913e+7 
           7970      7.51372e+7 
           7990      7.44724e+7 
           8010      7.37545e+7 
           8030       7.3113e+7 
           8050      7.24827e+7 
           8070       7.1852e+7 
           8090      7.10655e+7 
           8110       7.0492e+7 
           8130      6.99404e+7 
           8150      6.91722e+7 
           8170      6.86985e+7 
           8190      6.79927e+7 
           8210      6.72427e+7 
           8230      6.68495e+7 
           8250      6.62656e+7 
           8270      6.53286e+7 
           8290      6.49973e+7 
           8310      6.44393e+7 
           8330      6.38479e+7 
           8350      6.29751e+7 
           8370      6.25723e+7 
           8390      6.20978e+7 
           8410      6.15205e+7 
           8430      6.08896e+7 
           8450      6.00266e+7 
           8470      5.95859e+7 
           8490      5.93578e+7 
           8510      5.82728e+7 
           8530       5.8528e+7 
           8550      5.64405e+7 
           8570      5.83471e+7 
