# Kurucz ODFNEW /NOVER (2003)
# teff = 28000 K (value for the effective temperature for the model. Temperatures are given in K)
# logg = 4.5 log(cm/s2) (value for Log(G) for the model.)
# meta = 0.5  (value for the Metallicity for the model.)
# lh = 1.25  (l/Hp where l is the  mixing length of the convective element and Hp is the pressure scale height)
# vtur = 2 km/s (Microturbulence velocity)
# alpha = 0  (Alpha)
#
# column 1: WAVELENGTH (ANGSTROM), Wavelength in Angstrom
# column 2: FLUX (ERG/CM2/S/A), Flux in erg/cm2/s/A
          147.2     7.69808e-11 
            151     2.64343e-10 
          155.2       9.659e-10 
          158.8      2.78453e-9 
            162      6.87757e-9 
            166      2.03239e-8 
          170.3      6.14453e-8 
          173.4      1.32987e-7 
          176.8      2.99846e-7 
          180.2      6.56677e-7 
          181.7      9.19148e-7 
          186.1      2.40212e-6 
            191      6.67768e-6 
          193.9       1.1937e-5 
          198.4      2.84883e-5 
          201.8      5.36436e-5 
            205      9.55786e-5 
          210.5     0.000248601 
          216.2      0.00063736 
          219.8      0.00112843 
            223        0.001848 
          226.8      0.00332462 
            230        0.151888 
            234        0.324096 
            240        0.666994 
          246.5         1.43141 
          252.4         2.78447 
          256.8         4.32175 
            260         6.84076 
            264         10.2982 
          268.5          16.327 
          273.5         26.2031 
          278.5         40.8353 
            284         75.4804 
            290         123.882 
            296          199.17 
            301         289.525 
            308         525.159 
            318         1141.54 
            328         2120.54 
            338         4110.77 
            348         7397.46 
            357         38163.9 
            366           87115 
            375          120074 
            385          193053 
            395          450651 
            405          621693 
            414          927844 
            422      1.24486e+6 
            430      1.72397e+6 
            441      2.40394e+6 
            451      2.95918e+6 
            460      3.62255e+6 
            470      4.91317e+6 
            480      6.39688e+6 
            490      8.17053e+6 
            500       9.9987e+6 
            506      2.87348e+7 
            512      2.50488e+8 
            520      2.54292e+8 
            530       2.5848e+8 
            540      2.57303e+8 
            550      3.78423e+8 
            560      4.50189e+8 
            570      4.94038e+8 
            580      4.58918e+8 
            590      5.58666e+8 
            600      5.46143e+8 
            610      6.43933e+8 
            620      7.07122e+8 
            630      6.95692e+8 
            640      5.94885e+8 
            650      4.72396e+8 
            658      6.17722e+8 
            665      7.74867e+8 
            675      8.48752e+8 
            685      7.85726e+8 
            695      1.13286e+9 
            705      1.04653e+9 
            716      1.26285e+9 
            726      1.24803e+9 
            735      1.27867e+9 
            745      1.42329e+9 
            755      1.46845e+9 
            765      1.54361e+9 
            775      1.62634e+9 
            785      1.71906e+9 
            795      1.73199e+9 
            805      1.73341e+9 
            815      1.73674e+9 
            825      1.89171e+9 
            835      1.49244e+9 
            845      1.83557e+9 
            855      1.81159e+9 
            865       1.9153e+9 
            875      2.00114e+9 
            885      2.13303e+9 
            895       2.1946e+9 
            905      2.11583e+9 
            915      2.50168e+9 
            925     1.14931e+10 
            935     2.33017e+10 
            945     3.95854e+10 
            955     4.73336e+10 
            965     5.44083e+10 
            975      9.84797e+9 
            985     3.98464e+10 
            995     3.95746e+10 
           1005     4.65678e+10 
           1015      4.9498e+10 
           1025     2.97744e+10 
           1035     4.13788e+10 
           1045     5.94681e+10 
           1055     5.40373e+10 
           1065     4.15018e+10 
           1075     4.76281e+10 
           1085      4.2914e+10 
           1095     4.76133e+10 
           1105     4.35436e+10 
           1115     4.21206e+10 
           1125     3.03497e+10 
           1135     4.20179e+10 
           1145     3.87728e+10 
           1155     3.84178e+10 
           1165     3.71476e+10 
           1175     1.90018e+10 
           1185     3.38788e+10 
           1195     3.25438e+10 
           1205     2.49885e+10 
           1215     1.98516e+10 
           1225     2.99953e+10 
           1235     3.41649e+10 
           1245     3.23131e+10 
           1255     3.19294e+10 
           1265     3.33382e+10 
           1275     3.46944e+10 
           1285     3.48615e+10 
           1295     2.58225e+10 
           1305     2.78329e+10 
           1315     3.41692e+10 
           1325     3.16662e+10 
           1335     3.06989e+10 
           1345     3.07085e+10 
           1355      3.0259e+10 
           1365     2.75932e+10 
           1375     2.62926e+10 
           1385     2.48695e+10 
           1395     1.60226e+10 
           1405     1.79118e+10 
           1415     2.19013e+10 
           1425     2.09327e+10 
           1435     2.23141e+10 
           1442     2.27085e+10 
           1447     2.24115e+10 
           1455     2.13062e+10 
           1465     1.93225e+10 
           1475     2.01938e+10 
           1485     1.99672e+10 
           1495     1.93756e+10 
           1505      1.7188e+10 
           1512     1.55056e+10 
           1517     1.59912e+10 
           1525     1.63724e+10 
           1535     1.32719e+10 
           1545     1.21155e+10 
           1555     1.20144e+10 
           1565     1.35327e+10 
           1575     1.46008e+10 
           1585      1.4857e+10 
           1595     1.45688e+10 
           1605     1.49096e+10 
           1615     1.42729e+10 
           1625     1.42207e+10 
           1635     1.51694e+10 
           1645     1.53363e+10 
           1655     1.51213e+10 
           1665     1.53085e+10 
           1672      1.4178e+10 
           1677     1.65744e+10 
           1685     1.56505e+10 
           1695      1.4673e+10 
           1705     1.44211e+10 
           1715      1.3481e+10 
           1725     1.30264e+10 
           1735     1.37027e+10 
           1745     1.34991e+10 
           1755     1.34875e+10 
           1765     1.34283e+10 
           1775     1.23447e+10 
           1785     1.27412e+10 
           1795     1.30019e+10 
           1805     1.31033e+10 
           1815     1.16533e+10 
           1825     1.20519e+10 
           1835     1.17285e+10 
           1845     1.05936e+10 
           1855     1.09909e+10 
           1865     1.10997e+10 
           1875     1.14145e+10 
           1885     1.01193e+10 
           1895      9.45636e+9 
           1905     1.02926e+10 
           1915      9.61058e+9 
           1925      8.93974e+9 
           1935      9.73924e+9 
           1945     1.00142e+10 
           1955      8.77176e+9 
           1967      9.68559e+9 
           1976      1.0154e+10 
           1984      9.35761e+9 
           1995      9.22811e+9 
           2005      9.64871e+9 
           2015      9.52906e+9 
           2025      9.75029e+9 
           2035      8.82168e+9 
           2045       9.0074e+9 
           2055      8.28389e+9 
           2065      8.20024e+9 
           2074      8.63176e+9 
           2078       7.7967e+9 
           2085      8.31622e+9 
           2095      7.97393e+9 
           2105      8.44648e+9 
           2115      8.50778e+9 
           2125      8.52133e+9 
           2135      8.35326e+9 
           2145      7.91185e+9 
           2155      8.26707e+9 
           2165      8.16034e+9 
           2175      8.10299e+9 
           2185      7.78895e+9 
           2195      7.94427e+9 
           2205      7.93204e+9 
           2215      7.75462e+9 
           2225      7.55761e+9 
           2235      7.40325e+9 
           2245      7.45734e+9 
           2255      7.18709e+9 
           2265      7.28392e+9 
           2275      7.16005e+9 
           2285      7.09701e+9 
           2295      6.14473e+9 
           2305      6.80244e+9 
           2315      6.62191e+9 
           2325      6.57545e+9 
           2335      6.40262e+9 
           2345         6.47e+9 
           2355      6.38196e+9 
           2365      6.32163e+9 
           2375       6.1334e+9 
           2385      6.07379e+9 
           2395      5.99612e+9 
           2405       5.9119e+9 
           2415      5.85413e+9 
           2425      5.83004e+9 
           2435      5.64596e+9 
           2445      5.65861e+9 
           2455      5.64867e+9 
           2465      5.55054e+9 
           2475      5.45043e+9 
           2485      5.27762e+9 
           2495      4.08791e+9 
           2505      5.04185e+9 
           2513      4.86669e+9 
           2518      5.04857e+9 
           2525      5.06807e+9 
           2535      5.03355e+9 
           2545      4.82098e+9 
           2555      4.86792e+9 
           2565      4.79018e+9 
           2575      4.79498e+9 
           2585      4.73061e+9 
           2595      4.68337e+9 
           2605      4.63143e+9 
           2615      4.54765e+9 
           2625      4.52543e+9 
           2635      4.48344e+9 
           2645      4.39758e+9 
           2655      4.38173e+9 
           2665      4.15105e+9 
           2675      4.17004e+9 
           2685      4.18209e+9 
           2695        3.998e+9 
           2705      3.86835e+9 
           2715      3.89715e+9 
           2725      3.93166e+9 
           2735      3.88211e+9 
           2745      3.80923e+9 
           2755      3.78848e+9 
           2765      3.73387e+9 
           2775      3.78078e+9 
           2785      3.70628e+9 
           2795      3.54743e+9 
           2805      3.58184e+9 
           2815      3.60802e+9 
           2825      3.55354e+9 
           2835      3.40214e+9 
           2845      3.45623e+9 
           2855      3.38089e+9 
           2865      3.37918e+9 
           2875      3.33944e+9 
           2885      3.29176e+9 
           2895       3.2388e+9 
           2910      3.15856e+9 
           2930      3.14477e+9 
           2950      3.03903e+9 
           2970      2.99004e+9 
           2990      2.91035e+9 
           3010      2.78261e+9 
           3030      2.77517e+9 
           3050      2.73926e+9 
           3070       2.7068e+9 
           3090      2.57442e+9 
           3110      2.58294e+9 
           3130      2.50377e+9 
           3150      2.46942e+9 
           3170      2.39412e+9 
           3190      2.35502e+9 
           3210      2.31933e+9 
           3230      2.25354e+9 
           3250      2.22685e+9 
           3270      2.16626e+9 
           3290      2.12524e+9 
           3310      2.08279e+9 
           3330       2.0306e+9 
           3350      1.99679e+9 
           3370       1.9512e+9 
           3390      1.92746e+9 
           3410      1.88846e+9 
           3430      1.85135e+9 
           3450        1.807e+9 
           3470      1.77265e+9 
           3490      1.73492e+9 
           3510      1.70285e+9 
           3530      1.68225e+9 
           3550      1.64733e+9 
           3570      1.62141e+9 
           3590      1.56817e+9 
           3610       1.5444e+9 
           3630      1.52048e+9 
           3640      1.51817e+9 
           3650      1.49156e+9 
           3670      1.47465e+9 
           3690       1.4475e+9 
           3710      1.38656e+9 
           3730      1.33894e+9 
           3750      1.34463e+9 
           3770      1.31139e+9 
           3790      1.36486e+9 
           3810      1.40896e+9 
           3830       1.2415e+9 
           3850      1.41583e+9 
           3870      1.39072e+9 
           3890      1.16683e+9 
           3910      1.40482e+9 
           3930      1.35958e+9 
           3950       1.3293e+9 
           3970        1.081e+9 
           3990      1.29225e+9 
           4010      1.28785e+9 
           4030      1.21609e+9 
           4050      1.23891e+9 
           4070      1.16608e+9 
           4090      1.08854e+9 
           4110       9.8437e+8 
           4130      1.12394e+9 
           4150      1.11694e+9 
           4170      1.11715e+9 
           4190      1.10428e+9 
           4210      1.09503e+9 
           4230      1.06859e+9 
           4250      1.03038e+9 
           4270      1.00263e+9 
           4290      9.85194e+8 
           4310      9.45509e+8 
           4330        8.732e+8 
           4350      8.11753e+8 
           4370      9.00529e+8 
           4390      9.06222e+8 
           4410      8.98447e+8 
           4430      8.95114e+8 
           4450      8.77517e+8 
           4470      8.39514e+8 
           4490      8.53336e+8 
           4510      8.45544e+8 
           4530      8.34276e+8 
           4550      8.23482e+8 
           4570      8.09435e+8 
           4590      7.94118e+8 
           4610      7.70473e+8 
           4630      7.57258e+8 
           4650      7.27272e+8 
           4670      7.37691e+8 
           4690      7.32595e+8 
           4710      7.01932e+8 
           4730      7.09042e+8 
           4750       6.9729e+8 
           4770      6.99419e+8 
           4790      6.85627e+8 
           4810      6.68946e+8 
           4830      6.55052e+8 
           4850      6.11528e+8 
           4870      5.48601e+8 
           4890      6.27276e+8 
           4910      6.21801e+8 
           4930      6.00367e+8 
           4950      6.00937e+8 
           4970      5.99985e+8 
           4990      5.89254e+8 
           5010      5.60214e+8 
           5030      5.69154e+8 
           5050      5.57017e+8 
           5070      5.56237e+8 
           5090      5.45607e+8 
           5110      5.35689e+8 
           5130      5.21757e+8 
           5150      5.17343e+8 
           5170      5.14236e+8 
           5190      5.08351e+8 
           5210      5.00083e+8 
           5230      4.93374e+8 
           5250      4.86574e+8 
           5270      4.77665e+8 
           5290      4.73387e+8 
           5310        4.661e+8 
           5330      4.60209e+8 
           5350       4.5297e+8 
           5370      4.47904e+8 
           5390      4.41085e+8 
           5410      4.35629e+8 
           5430      4.29513e+8 
           5450      4.23195e+8 
           5470      4.17475e+8 
           5490      4.11751e+8 
           5510      4.07651e+8 
           5530      4.00408e+8 
           5550      3.97026e+8 
           5570      3.91253e+8 
           5590       3.8647e+8 
           5610      3.81073e+8 
           5630      3.76576e+8 
           5650      3.69348e+8 
           5670      3.62329e+8 
           5690      3.55469e+8 
           5710      3.54266e+8 
           5730       3.5081e+8 
           5750      3.44614e+8 
           5770      3.42976e+8 
           5790      3.37824e+8 
           5810      3.33661e+8 
           5830      3.28028e+8 
           5850      3.24798e+8 
           5870      3.11754e+8 
           5890      3.12887e+8 
           5910       3.1101e+8 
           5930      3.06591e+8 
           5950      3.02565e+8 
           5970      3.01978e+8 
           5990      2.95566e+8 
           6010      2.93738e+8 
           6030      2.88922e+8 
           6050      2.85832e+8 
           6070      2.83266e+8 
           6090      2.79946e+8 
           6110      2.76391e+8 
           6130      2.73437e+8 
           6150      2.67887e+8 
           6170      2.65331e+8 
           6190      2.63128e+8 
           6210      2.60478e+8 
           6230      2.57615e+8 
           6250      2.53384e+8 
           6270      2.50793e+8 
           6290      2.48286e+8 
           6310      2.44945e+8 
           6330       2.4262e+8 
           6350      2.38805e+8 
           6370      2.36955e+8 
           6390      2.33979e+8 
           6410      2.31311e+8 
           6430       2.2889e+8 
           6450      2.26069e+8 
           6470      2.22073e+8 
           6490      2.19892e+8 
           6510      2.17601e+8 
           6530      2.14044e+8 
           6550      2.05477e+8 
           6570      1.81518e+8 
           6590      2.04682e+8 
           6610      2.05083e+8 
           6630      2.03548e+8 
           6650       2.0115e+8 
           6670      1.97066e+8 
           6690      1.94989e+8 
           6710      1.94765e+8 
           6730      1.91796e+8 
           6750      1.90595e+8 
           6770      1.88542e+8 
           6790      1.84181e+8 
           6810      1.83888e+8 
           6830      1.81812e+8 
           6850      1.80254e+8 
           6870      1.78232e+8 
           6890      1.75913e+8 
           6910      1.73547e+8 
           6930      1.72562e+8 
           6950      1.70752e+8 
           6970      1.68928e+8 
           6990      1.67022e+8 
           7010      1.65181e+8 
           7030      1.63297e+8 
           7050      1.61614e+8 
           7070      1.57189e+8 
           7090      1.57817e+8 
           7110      1.54829e+8 
           7130      1.53369e+8 
           7150      1.52836e+8 
           7170      1.51648e+8 
           7190      1.50208e+8 
           7210      1.48629e+8 
           7230      1.44449e+8 
           7250      1.45087e+8 
           7270      1.44005e+8 
           7290      1.41337e+8 
           7310      1.40988e+8 
           7330      1.39434e+8 
           7350      1.38132e+8 
           7370      1.36773e+8 
           7390      1.35365e+8 
           7410       1.3399e+8 
           7430       1.3256e+8 
           7450      1.31232e+8 
           7470      1.28896e+8 
           7490       1.2839e+8 
           7510      1.27206e+8 
           7530      1.25761e+8 
           7550      1.24784e+8 
           7570      1.23541e+8 
           7590      1.22256e+8 
           7610      1.20743e+8 
           7630      1.19794e+8 
           7650      1.18634e+8 
           7670      1.17516e+8 
           7690      1.16313e+8 
           7710      1.15121e+8 
           7730      1.13902e+8 
           7750      1.12983e+8 
           7770      1.11391e+8 
           7790      1.10807e+8 
           7810      1.09672e+8 
           7830       1.0867e+8 
           7850      1.07592e+8 
           7870      1.06261e+8 
           7890       1.0496e+8 
           7910       1.0428e+8 
           7930      1.03233e+8 
           7950      1.02339e+8 
           7970      1.01399e+8 
           7990      1.00396e+8 
           8010      9.94139e+7 
           8030      9.84577e+7 
           8050      9.76261e+7 
           8070       9.6761e+7 
           8090      9.57479e+7 
           8110       9.4102e+7 
           8130      9.40842e+7 
           8150      9.31863e+7 
           8170      9.24258e+7 
           8190      9.08123e+7 
           8210      9.01133e+7 
           8230      8.89195e+7 
           8250      8.88929e+7 
           8270      8.69377e+7 
           8290      8.71272e+7 
           8310      8.64901e+7 
           8330      8.57332e+7 
           8350      8.45449e+7 
           8370      8.39263e+7 
           8390       8.3441e+7 
           8410      8.25546e+7 
           8430      8.19036e+7 
           8450      8.04347e+7 
           8470      8.04124e+7 
           8490      7.94643e+7 
           8510      7.86543e+7 
           8530      7.80787e+7 
           8550      7.69666e+7 
           8570      7.71721e+7 
