# Kurucz ODFNEW /NOVER (2003)
# teff = 24000 K (value for the effective temperature for the model. Temperatures are given in K)
# logg = 4.5 log(cm/s2) (value for Log(G) for the model.)
# meta = -1  (value for the Metallicity for the model.)
# lh = 1.25  (l/Hp where l is the  mixing length of the convective element and Hp is the pressure scale height)
# vtur = 2 km/s (Microturbulence velocity)
# alpha = 0.4  (Alpha)
#
# column 1: WAVELENGTH (ANGSTROM), Wavelength in Angstrom
# column 2: FLUX (ERG/CM2/S/A), Flux in erg/cm2/s/A
          147.2     3.47923e-15 
            151     1.61511e-14 
          155.2     8.11061e-14 
          158.8      3.0361e-13 
            162     9.38077e-13 
            166     3.63072e-12 
          170.3     1.45524e-11 
          173.4     3.80682e-11 
          176.8     1.05378e-10 
          180.2     2.81456e-10 
          181.7     4.29358e-10 
          186.1      1.42955e-9 
            191      5.13084e-9 
          193.9      1.06173e-8 
          198.4       3.1527e-8 
          201.8      6.95747e-8 
            205      1.43224e-7 
          210.5       4.7144e-7 
          216.2      1.52264e-6 
          219.8       3.0959e-6 
            223      5.70802e-6 
          226.8      1.15425e-5 
            230     0.000253292 
            234     0.000590915 
            240      0.00147781 
          246.5      0.00378216 
          252.4      0.00860959 
          256.8       0.0148741 
            260       0.0231432 
            264       0.0379254 
          268.5       0.0649602 
          273.5        0.115327 
          278.5        0.201313 
            284        0.364338 
            290        0.672155 
            296         1.20712 
            301         1.92937 
            308          3.5376 
            318         8.57815 
            328         18.8141 
            338         40.1877 
            348         81.0766 
            357         151.843 
            366         270.592 
            375         456.737 
            385         804.494 
            395         1364.27 
            405         2251.63 
            414         3479.66 
            422         4967.94 
            430         7036.22 
            441         11160.2 
            451         16666.4 
            460         23315.9 
            470           33510 
            480         47192.6 
            490         65630.3 
            500         90032.3 
            506          621089 
            512      2.17751e+6 
            520      2.66079e+6 
            530       3.5283e+6 
            540      3.84778e+6 
            550      5.30834e+6 
            560      6.18372e+6 
            570      7.50943e+6 
            580      7.59193e+6 
            590      9.83761e+6 
            600      1.16284e+7 
            610      1.36923e+7 
            620      1.54083e+7 
            630      1.76177e+7 
            640      1.89919e+7 
            650      2.10291e+7 
            658      2.42728e+7 
            665      2.63142e+7 
            675      2.85301e+7 
            685      3.13322e+7 
            695      3.64621e+7 
            705      3.94129e+7 
            716      4.43487e+7 
            726      4.78828e+7 
            735      5.20249e+7 
            745      5.76798e+7 
            755      6.28132e+7 
            765      6.80041e+7 
            775      7.40946e+7 
            785       8.0252e+7 
            795      8.53688e+7 
            805      9.16615e+7 
            815      9.75024e+7 
            825      1.05232e+8 
            835      1.08092e+8 
            845      1.17605e+8 
            855      1.24492e+8 
            865      1.33074e+8 
            875      1.41854e+8 
            885      1.51269e+8 
            895      1.59623e+8 
            905      1.64661e+8 
            915      2.28492e+8 
            925      1.12536e+9 
            935      3.30221e+9 
            945     1.07911e+10 
            955     1.72518e+10 
            965     2.34349e+10 
            975      6.35145e+9 
            985     2.78109e+10 
            995     2.63906e+10 
           1005     2.80615e+10 
           1015     2.47212e+10 
           1025      6.40633e+9 
           1035     1.99969e+10 
           1045     2.94912e+10 
           1055     2.83834e+10 
           1065     2.45384e+10 
           1075     2.68165e+10 
           1085     2.45224e+10 
           1095     2.65471e+10 
           1105     2.41765e+10 
           1115     2.37103e+10 
           1125      2.1396e+10 
           1135     2.38611e+10 
           1145      2.1489e+10 
           1155     2.24525e+10 
           1165     2.23871e+10 
           1175     1.77029e+10 
           1185     2.13051e+10 
           1195      1.8857e+10 
           1205     1.32177e+10 
           1215      4.92583e+9 
           1225      1.4611e+10 
           1235     1.85185e+10 
           1245     1.87197e+10 
           1255     1.81813e+10 
           1265     1.79152e+10 
           1275      1.8163e+10 
           1285      1.7723e+10 
           1295     1.43398e+10 
           1305      1.4429e+10 
           1315     1.67036e+10 
           1325     1.59024e+10 
           1335     1.52871e+10 
           1345      1.5232e+10 
           1355     1.52836e+10 
           1365     1.44088e+10 
           1375     1.41811e+10 
           1385     1.41076e+10 
           1395     1.21646e+10 
           1405     1.25413e+10 
           1415     1.30642e+10 
           1425     1.27787e+10 
           1435      1.2752e+10 
           1442     1.28749e+10 
           1447     1.26547e+10 
           1455      1.2389e+10 
           1465     1.19496e+10 
           1475     1.17741e+10 
           1485     1.14577e+10 
           1495      1.1277e+10 
           1505     1.06198e+10 
           1512     1.01594e+10 
           1517     1.03122e+10 
           1525     1.02718e+10 
           1535      9.50719e+9 
           1545      9.57344e+9 
           1555      9.14222e+9 
           1565      9.36323e+9 
           1575      9.48724e+9 
           1585      9.29862e+9 
           1595      9.25836e+9 
           1605       8.9816e+9 
           1615      8.80616e+9 
           1625      8.73663e+9 
           1635      8.79652e+9 
           1645      8.58632e+9 
           1655      8.45742e+9 
           1665      8.45493e+9 
           1672      8.21988e+9 
           1677      8.41139e+9 
           1685      8.25939e+9 
           1695      8.00789e+9 
           1705      7.75535e+9 
           1715      7.48585e+9 
           1725      7.37323e+9 
           1735      7.38547e+9 
           1745      7.24787e+9 
           1755      7.24061e+9 
           1765      6.93205e+9 
           1775      6.82737e+9 
           1785      6.77391e+9 
           1795      6.81382e+9 
           1805      6.75136e+9 
           1815      6.43861e+9 
           1825      6.47039e+9 
           1835      6.31738e+9 
           1845      5.91363e+9 
           1855      5.84052e+9 
           1865      5.87229e+9 
           1875      5.94044e+9 
           1885      5.52759e+9 
           1895      5.23977e+9 
           1905       5.4737e+9 
           1915      5.25673e+9 
           1925      5.09948e+9 
           1935      5.21453e+9 
           1945      5.25257e+9 
           1955       4.9147e+9 
           1967      5.08159e+9 
           1976      5.20126e+9 
           1984       4.9231e+9 
           1995       4.7956e+9 
           2005      4.84535e+9 
           2015      4.82697e+9 
           2025      4.86578e+9 
           2035      4.62876e+9 
           2045      4.59351e+9 
           2055       4.4482e+9 
           2065      4.47228e+9 
           2074      4.54092e+9 
           2078      4.36467e+9 
           2085      4.38802e+9 
           2095      4.23275e+9 
           2105      4.28777e+9 
           2115      4.24976e+9 
           2125      4.26851e+9 
           2135      4.18159e+9 
           2145      4.05795e+9 
           2155      4.08478e+9 
           2165      4.03821e+9 
           2175      3.97226e+9 
           2185      3.92004e+9 
           2195      3.89199e+9 
           2205      3.83639e+9 
           2215      3.78801e+9 
           2225      3.71538e+9 
           2235      3.66712e+9 
           2245      3.64521e+9 
           2255      3.57584e+9 
           2265      3.55542e+9 
           2275       3.5072e+9 
           2285      3.47433e+9 
           2295      3.36344e+9 
           2305      3.37715e+9 
           2315       3.3157e+9 
           2325      3.27901e+9 
           2335      3.20552e+9 
           2345      3.17324e+9 
           2355      3.16082e+9 
           2365      3.11131e+9 
           2375      3.07121e+9 
           2385      3.02915e+9 
           2395      2.99753e+9 
           2405      2.95781e+9 
           2415      2.91386e+9 
           2425      2.90371e+9 
           2435      2.85087e+9 
           2445       2.8242e+9 
           2455      2.80049e+9 
           2465      2.76101e+9 
           2475       2.7286e+9 
           2485      2.69521e+9 
           2495      2.58584e+9 
           2505      2.62581e+9 
           2513      2.55358e+9 
           2518      2.58118e+9 
           2525      2.55962e+9 
           2535      2.52727e+9 
           2545      2.47005e+9 
           2555      2.47234e+9 
           2565      2.43626e+9 
           2575      2.42584e+9 
           2585      2.39876e+9 
           2595      2.37086e+9 
           2605      2.35552e+9 
           2615      2.33121e+9 
           2625      2.30741e+9 
           2635      2.27832e+9 
           2645      2.25967e+9 
           2655       2.2321e+9 
           2665      2.19315e+9 
           2675      2.17273e+9 
           2685      2.16436e+9 
           2695      2.11487e+9 
           2705      2.11085e+9 
           2715      2.08792e+9 
           2725      2.04634e+9 
           2735      2.04395e+9 
           2745      2.00148e+9 
           2755      1.98678e+9 
           2765      1.95608e+9 
           2775      1.95825e+9 
           2785      1.93382e+9 
           2795      1.86797e+9 
           2805      1.87809e+9 
           2815      1.87451e+9 
           2825      1.83266e+9 
           2835      1.80039e+9 
           2845      1.81248e+9 
           2855      1.79273e+9 
           2865      1.77611e+9 
           2875      1.75666e+9 
           2885      1.73885e+9 
           2895      1.71989e+9 
           2910      1.69121e+9 
           2930      1.65328e+9 
           2950      1.60852e+9 
           2970      1.58962e+9 
           2990      1.55418e+9 
           3010      1.52254e+9 
           3030      1.49499e+9 
           3050      1.46508e+9 
           3070      1.43618e+9 
           3090      1.40092e+9 
           3110      1.37876e+9 
           3130      1.35246e+9 
           3150      1.32623e+9 
           3170      1.29977e+9 
           3190      1.26268e+9 
           3210      1.25024e+9 
           3230      1.22546e+9 
           3250       1.2024e+9 
           3270      1.18104e+9 
           3290      1.15687e+9 
           3310      1.13733e+9 
           3330      1.11596e+9 
           3350      1.09311e+9 
           3370      1.07487e+9 
           3390       1.0554e+9 
           3410      1.03619e+9 
           3430      1.01242e+9 
           3450      9.90274e+8 
           3470      9.75293e+8 
           3490      9.57652e+8 
           3510      9.42917e+8 
           3530      9.28483e+8 
           3550      9.12371e+8 
           3570      9.01852e+8 
           3590       8.7897e+8 
           3610      8.66454e+8 
           3630      8.49384e+8 
           3640       8.4879e+8 
           3650       8.3357e+8 
           3670      8.23418e+8 
           3690      8.08236e+8 
           3710      7.80167e+8 
           3730      7.47399e+8 
           3750      7.67577e+8 
           3770      7.63245e+8 
           3790      8.09186e+8 
           3810      8.46987e+8 
           3830      7.33458e+8 
           3850      8.77286e+8 
           3870      8.93094e+8 
           3890      6.90965e+8 
           3910      8.82381e+8 
           3930      8.70788e+8 
           3950      8.54556e+8 
           3970      6.43415e+8 
           3990      8.17441e+8 
           4010      8.21232e+8 
           4030      7.65734e+8 
           4050       8.0431e+8 
           4070      7.80595e+8 
           4090      7.04697e+8 
           4110      6.10788e+8 
           4130      7.30979e+8 
           4150      7.29507e+8 
           4170      7.25797e+8 
           4190      7.16353e+8 
           4210      7.06119e+8 
           4230      6.93899e+8 
           4250      6.80856e+8 
           4270      6.64513e+8 
           4290      6.56346e+8 
           4310      6.39844e+8 
           4330      5.66534e+8 
           4350      5.14371e+8 
           4370      6.07067e+8 
           4390      5.85304e+8 
           4410      5.95775e+8 
           4430      5.85858e+8 
           4450      5.79082e+8 
           4470      5.39049e+8 
           4490      5.58439e+8 
           4510      5.53478e+8 
           4530      5.44435e+8 
           4550      5.35437e+8 
           4570      5.26919e+8 
           4590      5.19172e+8 
           4610      5.11167e+8 
           4630      5.03456e+8 
           4650      4.93141e+8 
           4670      4.87959e+8 
           4690      4.81597e+8 
           4710      4.65628e+8 
           4730      4.65875e+8 
           4750      4.58353e+8 
           4770      4.53822e+8 
           4790      4.46724e+8 
           4810      4.38132e+8 
           4830      4.28084e+8 
           4850       3.8758e+8 
           4870      3.44359e+8 
           4890      4.07938e+8 
           4910      4.06528e+8 
           4930      3.90185e+8 
           4950      3.96971e+8 
           4970      3.91967e+8 
           4990      3.86244e+8 
           5010      3.74161e+8 
           5030      3.75197e+8 
           5050      3.66204e+8 
           5070      3.64948e+8 
           5090      3.59759e+8 
           5110       3.5464e+8 
           5130      3.49446e+8 
           5150      3.44621e+8 
           5170      3.40198e+8 
           5190      3.35539e+8 
           5210      3.30248e+8 
           5230      3.26473e+8 
           5250      3.22036e+8 
           5270      3.17616e+8 
           5290      3.13388e+8 
           5310      3.09148e+8 
           5330      3.04909e+8 
           5350       3.0062e+8 
           5370      2.96948e+8 
           5390      2.92972e+8 
           5410      2.89085e+8 
           5430       2.8503e+8 
           5450      2.81382e+8 
           5470      2.77691e+8 
           5490      2.74209e+8 
           5510      2.70634e+8 
           5530      2.67091e+8 
           5550      2.63689e+8 
           5570      2.60245e+8 
           5590      2.56963e+8 
           5610      2.53566e+8 
           5630      2.50449e+8 
           5650      2.46814e+8 
           5670       2.4367e+8 
           5690      2.40622e+8 
           5710      2.37911e+8 
           5730      2.34979e+8 
           5750      2.31877e+8 
           5770      2.29175e+8 
           5790      2.26325e+8 
           5810      2.23497e+8 
           5830      2.20714e+8 
           5850      2.18018e+8 
           5870       2.0781e+8 
           5890      2.11885e+8 
           5910      2.10065e+8 
           5930      2.07504e+8 
           5950      2.04867e+8 
           5970      2.02577e+8 
           5990      2.00029e+8 
           6010       1.9773e+8 
           6030      1.95343e+8 
           6050      1.93025e+8 
           6070      1.90732e+8 
           6090      1.88456e+8 
           6110      1.86245e+8 
           6130      1.84049e+8 
           6150      1.81729e+8 
           6170      1.79721e+8 
           6190      1.77657e+8 
           6210      1.75586e+8 
           6230      1.73539e+8 
           6250      1.71475e+8 
           6270       1.6953e+8 
           6290      1.67587e+8 
           6310      1.65618e+8 
           6330      1.63774e+8 
           6350      1.61595e+8 
           6370      1.59913e+8 
           6390      1.58222e+8 
           6410      1.56411e+8 
           6430      1.54692e+8 
           6450      1.52938e+8 
           6470      1.51157e+8 
           6490      1.49493e+8 
           6510        1.475e+8 
           6530      1.45087e+8 
           6550      1.37072e+8 
           6570      1.20922e+8 
           6590      1.38779e+8 
           6610      1.39312e+8 
           6630      1.38258e+8 
           6650      1.36891e+8 
           6670      1.33793e+8 
           6690      1.32372e+8 
           6710      1.32504e+8 
           6730      1.31044e+8 
           6750      1.29665e+8 
           6770      1.28276e+8 
           6790      1.26753e+8 
           6810      1.25522e+8 
           6830      1.24174e+8 
           6850      1.22872e+8 
           6870      1.21567e+8 
           6890      1.20275e+8 
           6910      1.19004e+8 
           6930      1.17745e+8 
           6950      1.16523e+8 
           6970      1.15304e+8 
           6990       1.1409e+8 
           7010      1.12904e+8 
           7030      1.11729e+8 
           7050      1.10572e+8 
           7070      1.07544e+8 
           7090      1.08309e+8 
           7110      1.07194e+8 
           7130      1.06097e+8 
           7150      1.05003e+8 
           7170       1.0392e+8 
           7190      1.02883e+8 
           7210      1.01842e+8 
           7230      1.00271e+8 
           7250      9.97755e+7 
           7270      9.87854e+7 
           7290      9.69397e+7 
           7310      9.68048e+7 
           7330      9.58496e+7 
           7350      9.48963e+7 
           7370      9.39519e+7 
           7390      9.30164e+7 
           7410      9.21033e+7 
           7430      9.11782e+7 
           7450      9.03024e+7 
           7470      8.93874e+7 
           7490      8.85346e+7 
           7510      8.76429e+7 
           7530      8.68191e+7 
           7550      8.59831e+7 
           7570       8.5148e+7 
           7590      8.43206e+7 
           7610      8.35072e+7 
           7630      8.27076e+7 
           7650      8.19152e+7 
           7670      8.11299e+7 
           7690      8.03517e+7 
           7710      7.95868e+7 
           7730      7.88288e+7 
           7750      7.80837e+7 
           7770      7.71706e+7 
           7790      7.66196e+7 
           7810      7.58448e+7 
           7830      7.51813e+7 
           7850      7.45236e+7 
           7870      7.38169e+7 
           7890      7.30377e+7 
           7910      7.24881e+7 
           7930      7.18174e+7 
           7950      7.10631e+7 
           7970      7.03096e+7 
           7990      6.96335e+7 
           8010      6.90219e+7 
           8030      6.83806e+7 
           8050      6.77564e+7 
           8070       6.7149e+7 
           8090      6.64606e+7 
           8110      6.59212e+7 
           8130      6.53807e+7 
           8150      6.47313e+7 
           8170      6.42398e+7 
           8190       6.3567e+7 
           8210      6.28384e+7 
           8230      6.24277e+7 
           8250      6.19206e+7 
           8270      6.10431e+7 
           8290      6.07873e+7 
           8310      6.02714e+7 
           8330      5.97108e+7 
           8350      5.88794e+7 
           8370      5.85607e+7 
           8390      5.81481e+7 
           8410      5.76321e+7 
           8430       5.7078e+7 
           8450       5.6117e+7 
           8470      5.60518e+7 
           8490      5.54274e+7 
           8510      5.49591e+7 
           8530      5.44635e+7 
           8550        5.357e+7 
           8570      5.40281e+7 
