# Kurucz ODFNEW /NOVER (2003)
# teff = 21000 K (value for the effective temperature for the model. Temperatures are given in K)
# logg = 3 log(cm/s2) (value for Log(G) for the model.)
# meta = -2  (value for the Metallicity for the model.)
# lh = 1.25  (l/Hp where l is the  mixing length of the convective element and Hp is the pressure scale height)
# vtur = 2 km/s (Microturbulence velocity)
# alpha = 0  (Alpha)
#
# column 1: WAVELENGTH (ANGSTROM), Wavelength in Angstrom
# column 2: FLUX (ERG/CM2/S/A), Flux in erg/cm2/s/A
          147.2     2.74065e-18 
            151     1.75188e-17 
          155.2     1.22185e-16 
          158.8     5.93715e-16 
            162     2.27783e-15 
            166     1.13452e-14 
          170.3     5.84382e-14 
          173.4     1.80825e-13 
          176.8     5.95365e-13 
          180.2     1.87088e-12 
          181.7     3.05698e-12 
          186.1     1.23081e-11 
            191     5.36659e-11 
          193.9     1.23679e-10 
          198.4     4.29622e-10 
          201.8      1.05914e-9 
            205      2.40641e-9 
          210.5      9.27747e-9 
          216.2      3.48227e-8 
          219.8      7.73631e-8 
            223      1.53748e-7 
          226.8      3.38468e-7 
            230      1.25026e-6 
            234      2.94415e-6 
            240      8.56405e-6 
          246.5      2.56701e-5 
          252.4      6.65456e-5 
          256.8     0.000127964 
            260     0.000210511 
            264     0.000375432 
          268.5     0.000703844 
          273.5       0.0013796 
          278.5      0.00264082 
            284      0.00524579 
            290       0.0107473 
            296       0.0213407 
            301       0.0369727 
            308       0.0763276 
            318        0.210065 
            328        0.533453 
            338          1.2791 
            348         2.90672 
            357         5.83499 
            366         11.3031 
            375          21.126 
            385          40.836 
            395          76.092 
            405         137.184 
            414         227.142 
            422         348.458 
            430         525.058 
            441         900.229 
            451         1432.36 
            460         2133.97 
            470         3258.91 
            480         4878.68 
            490         7173.39 
            500         10364.6 
            506         70553.3 
            512          204716 
            520          260478 
            530          376716 
            540          414661 
            550          612606 
            560          749579 
            570          931944 
            580          936896 
            590      1.26395e+6 
            600      1.62266e+6 
            610      1.95624e+6 
            620       2.2938e+6 
            630      2.70953e+6 
            640      3.09321e+6 
            650      3.60296e+6 
            658      4.12427e+6 
            665      4.53166e+6 
            675      5.08168e+6 
            685      5.77099e+6 
            695      6.74506e+6 
            705      7.56142e+6 
            716      8.63311e+6 
            726      9.62701e+6 
            735      1.06905e+7 
            745       1.2008e+7 
            755      1.33522e+7 
            765      1.47518e+7 
            775      1.63481e+7 
            785      1.80134e+7 
            795      1.96821e+7 
            805      2.15291e+7 
            815      2.33629e+7 
            825      2.55587e+7 
            835      2.73087e+7 
            845      2.98218e+7 
            855      3.20936e+7 
            865      3.47751e+7 
            875      3.76136e+7 
            885      4.04875e+7 
            895      4.33446e+7 
            905      4.57558e+7 
            915      9.96917e+7 
            925      1.72416e+9 
            935      4.56225e+9 
            945      8.92355e+9 
            955     1.02668e+10 
            965     1.20621e+10 
            975      5.53706e+9 
            985     1.20347e+10 
            995     1.15489e+10 
           1005     1.20323e+10 
           1015     1.15419e+10 
           1025      6.26003e+9 
           1035      1.0401e+10 
           1045     1.23828e+10 
           1055     1.19891e+10 
           1065     1.10133e+10 
           1075     1.16273e+10 
           1085     1.08952e+10 
           1095     1.15788e+10 
           1105     1.10604e+10 
           1115     1.10677e+10 
           1125     1.04265e+10 
           1135     1.08984e+10 
           1145     1.03839e+10 
           1155     1.06584e+10 
           1165     1.05903e+10 
           1175      9.17576e+9 
           1185     1.02634e+10 
           1195      9.64416e+9 
           1205      8.43475e+9 
           1215      4.36848e+9 
           1225      8.98301e+9 
           1235      9.49218e+9 
           1245      9.40739e+9 
           1255      9.24659e+9 
           1265       9.0925e+9 
           1275      9.15112e+9 
           1285      8.99419e+9 
           1295       8.2403e+9 
           1305      8.34633e+9 
           1315      8.61724e+9 
           1325      8.36127e+9 
           1335      8.02193e+9 
           1345      8.16902e+9 
           1355      8.16092e+9 
           1365      7.95141e+9 
           1375      7.81983e+9 
           1385      7.74817e+9 
           1395      7.32251e+9 
           1405      7.35472e+9 
           1415      7.38585e+9 
           1425      7.28775e+9 
           1435      7.23538e+9 
           1442       7.2048e+9 
           1447      7.13422e+9 
           1455      7.03908e+9 
           1465      6.90592e+9 
           1475      6.81451e+9 
           1485       6.7104e+9 
           1495      6.60845e+9 
           1505      6.43892e+9 
           1512      6.31122e+9 
           1517      6.32093e+9 
           1525      6.24733e+9 
           1535      5.98073e+9 
           1545      5.98563e+9 
           1555      5.81307e+9 
           1565       5.8793e+9 
           1575      5.85591e+9 
           1585      5.77775e+9 
           1595      5.71782e+9 
           1605      5.53784e+9 
           1615      5.46023e+9 
           1625      5.44245e+9 
           1635      5.41794e+9 
           1645      5.28948e+9 
           1655      5.26261e+9 
           1665      5.21888e+9 
           1672      5.10857e+9 
           1677      5.17018e+9 
           1685      5.09865e+9 
           1695      4.99054e+9 
           1705      4.89303e+9 
           1715      4.77773e+9 
           1725      4.73642e+9 
           1735      4.69825e+9 
           1745      4.62303e+9 
           1755       4.6056e+9 
           1765      4.44569e+9 
           1775      4.41834e+9 
           1785      4.39924e+9 
           1795      4.36486e+9 
           1805      4.33074e+9 
           1815      4.21727e+9 
           1825      4.18691e+9 
           1835      4.12999e+9 
           1845      3.95729e+9 
           1855       3.8704e+9 
           1865      3.88175e+9 
           1875      3.90261e+9 
           1885      3.71044e+9 
           1895      3.58315e+9 
           1905      3.67924e+9 
           1915      3.55585e+9 
           1925      3.48962e+9 
           1935        3.527e+9 
           1945      3.53145e+9 
           1955      3.36087e+9 
           1967      3.42349e+9 
           1976      3.45017e+9 
           1984      3.33369e+9 
           1995      3.24108e+9 
           2005      3.27321e+9 
           2015       3.2718e+9 
           2025      3.26124e+9 
           2035      3.16395e+9 
           2045      3.12768e+9 
           2055      3.04415e+9 
           2065      3.02852e+9 
           2074      3.07796e+9 
           2078      2.98586e+9 
           2085      2.99089e+9 
           2095      2.91228e+9 
           2105      2.92693e+9 
           2115      2.90412e+9 
           2125      2.89704e+9 
           2135      2.85401e+9 
           2145      2.79438e+9 
           2155      2.78684e+9 
           2165      2.75762e+9 
           2175      2.71894e+9 
           2185      2.69056e+9 
           2195      2.66524e+9 
           2205      2.63213e+9 
           2215      2.60235e+9 
           2225      2.56539e+9 
           2235      2.53366e+9 
           2245      2.51271e+9 
           2255      2.47707e+9 
           2265       2.4548e+9 
           2275      2.42599e+9 
           2285      2.40098e+9 
           2295      2.34634e+9 
           2305      2.34446e+9 
           2315      2.31188e+9 
           2325      2.28716e+9 
           2335      2.25427e+9 
           2345      2.23029e+9 
           2355      2.21227e+9 
           2365      2.18465e+9 
           2375      2.15994e+9 
           2385      2.13233e+9 
           2395      2.10937e+9 
           2405      2.08692e+9 
           2415      2.06024e+9 
           2425      2.04469e+9 
           2435      2.01872e+9 
           2445      1.99789e+9 
           2455      1.97802e+9 
           2465      1.95463e+9 
           2475      1.93327e+9 
           2485       1.9114e+9 
           2495      1.86131e+9 
           2505      1.86911e+9 
           2513      1.83897e+9 
           2518      1.84184e+9 
           2525      1.82798e+9 
           2535      1.80731e+9 
           2545      1.78069e+9 
           2555      1.76995e+9 
           2565      1.74965e+9 
           2575       1.7341e+9 
           2585      1.71513e+9 
           2595      1.69662e+9 
           2605      1.69078e+9 
           2615      1.67352e+9 
           2625      1.65456e+9 
           2635      1.63204e+9 
           2645      1.61892e+9 
           2655      1.60097e+9 
           2665      1.58166e+9 
           2675      1.56507e+9 
           2685      1.55777e+9 
           2695      1.52979e+9 
           2705      1.52488e+9 
           2715      1.50902e+9 
           2725      1.48239e+9 
           2735      1.47822e+9 
           2745      1.45832e+9 
           2755      1.44472e+9 
           2765      1.42118e+9 
           2775      1.41903e+9 
           2785      1.40405e+9 
           2795      1.37545e+9 
           2805      1.37016e+9 
           2815      1.36235e+9 
           2825      1.33695e+9 
           2835      1.32482e+9 
           2845      1.32139e+9 
           2855      1.30817e+9 
           2865      1.29552e+9 
           2875      1.28252e+9 
           2885      1.26993e+9 
           2895      1.25726e+9 
           2910       1.2385e+9 
           2930      1.21411e+9 
           2950      1.18341e+9 
           2970      1.16783e+9 
           2990      1.14497e+9 
           3010       1.1229e+9 
           3030      1.10217e+9 
           3050      1.08129e+9 
           3070      1.06097e+9 
           3090      1.04026e+9 
           3110      1.02154e+9 
           3130      1.00376e+9 
           3150      9.84907e+8 
           3170       9.6637e+8 
           3190       9.4174e+8 
           3210      9.31504e+8 
           3230      9.14479e+8 
           3250      8.97838e+8 
           3270      8.82731e+8 
           3290      8.65697e+8 
           3310      8.51622e+8 
           3330      8.36565e+8 
           3350      8.20228e+8 
           3370      8.07403e+8 
           3390      7.93347e+8 
           3410      7.79565e+8 
           3430      7.62143e+8 
           3450      7.46274e+8 
           3470      7.35944e+8 
           3490      7.24286e+8 
           3510      7.16055e+8 
           3530      7.04457e+8 
           3550      6.92835e+8 
           3570      6.83882e+8 
           3590      6.69327e+8 
           3610      6.58607e+8 
           3630      6.47224e+8 
           3640      6.45464e+8 
           3650      6.33194e+8 
           3670      6.24633e+8 
           3690      6.02746e+8 
           3710      6.04093e+8 
           3730      6.08192e+8 
           3750       6.7451e+8 
           3770      6.75934e+8 
           3790      6.91662e+8 
           3810      7.15978e+8 
           3830      6.39795e+8 
           3850      7.21816e+8 
           3870      7.10803e+8 
           3890      6.14036e+8 
           3910      6.97541e+8 
           3930      6.82215e+8 
           3950      6.75155e+8 
           3970      5.70392e+8 
           3990      6.51771e+8 
           4010        6.406e+8 
           4030      6.15167e+8 
           4050       6.2438e+8 
           4070      6.13255e+8 
           4090      5.87949e+8 
           4110      5.24969e+8 
           4130      5.79089e+8 
           4150      5.71356e+8 
           4170      5.65238e+8 
           4190      5.57859e+8 
           4210      5.49213e+8 
           4230      5.40579e+8 
           4250       5.3202e+8 
           4270      5.22647e+8 
           4290      5.15656e+8 
           4310       5.0717e+8 
           4330       4.7977e+8 
           4350      4.41006e+8 
           4370       4.8385e+8 
           4390      4.69736e+8 
           4410       4.6996e+8 
           4430      4.61196e+8 
           4450      4.56166e+8 
           4470      4.37254e+8 
           4490      4.42431e+8 
           4510      4.36089e+8 
           4530      4.29585e+8 
           4550      4.23178e+8 
           4570      4.16885e+8 
           4590      4.10863e+8 
           4610      4.04878e+8 
           4630       3.9898e+8 
           4650       3.9275e+8 
           4670      3.87476e+8 
           4690      3.81883e+8 
           4710      3.72346e+8 
           4730      3.70854e+8 
           4750       3.6535e+8 
           4770       3.6067e+8 
           4790      3.55563e+8 
           4810      3.50496e+8 
           4830      3.45128e+8 
           4850      3.29988e+8 
           4870        2.985e+8 
           4890      3.30535e+8 
           4910      3.26676e+8 
           4930      3.17117e+8 
           4950      3.17758e+8 
           4970      3.13437e+8 
           4990      3.09129e+8 
           5010      3.01743e+8 
           5030      3.00762e+8 
           5050      2.94987e+8 
           5070      2.92694e+8 
           5090      2.88755e+8 
           5110      2.84883e+8 
           5130      2.81034e+8 
           5150      2.77279e+8 
           5170      2.73644e+8 
           5190      2.70029e+8 
           5210      2.66433e+8 
           5230      2.62966e+8 
           5250      2.59518e+8 
           5270      2.56128e+8 
           5290      2.52794e+8 
           5310      2.49504e+8 
           5330      2.46269e+8 
           5350      2.43089e+8 
           5370      2.39975e+8 
           5390      2.36901e+8 
           5410      2.33878e+8 
           5430      2.30881e+8 
           5450      2.27959e+8 
           5470      2.25074e+8 
           5490      2.22237e+8 
           5510      2.19448e+8 
           5530      2.16693e+8 
           5550      2.13985e+8 
           5570      2.11321e+8 
           5590      2.08703e+8 
           5610      2.06104e+8 
           5630      2.03573e+8 
           5650      2.01048e+8 
           5670      1.98554e+8 
           5690      1.96102e+8 
           5710      1.93772e+8 
           5730      1.91412e+8 
           5750       1.8908e+8 
           5770      1.86809e+8 
           5790      1.84566e+8 
           5810      1.82349e+8 
           5830      1.80158e+8 
           5850      1.78003e+8 
           5870      1.71719e+8 
           5890      1.73704e+8 
           5910      1.71743e+8 
           5930      1.69708e+8 
           5950      1.67707e+8 
           5970       1.6575e+8 
           5990      1.63805e+8 
           6010      1.61904e+8 
           6030      1.60013e+8 
           6050      1.58164e+8 
           6070      1.56336e+8 
           6090      1.54529e+8 
           6110      1.52752e+8 
           6130      1.51005e+8 
           6150      1.49267e+8 
           6170      1.47579e+8 
           6190      1.45899e+8 
           6210      1.44248e+8 
           6230      1.42615e+8 
           6250      1.41009e+8 
           6270       1.3943e+8 
           6290       1.3786e+8 
           6310      1.36325e+8 
           6330      1.34806e+8 
           6350      1.33286e+8 
           6370      1.31819e+8 
           6390      1.30377e+8 
           6410      1.28932e+8 
           6430      1.27521e+8 
           6450      1.26124e+8 
           6470      1.24734e+8 
           6490      1.23376e+8 
           6510      1.22041e+8 
           6530      1.20606e+8 
           6550      1.17306e+8 
           6570      1.05753e+8 
           6590      1.16338e+8 
           6610        1.156e+8 
           6630      1.14372e+8 
           6650      1.13234e+8 
           6670      1.11201e+8 
           6690      1.10041e+8 
           6710       1.0967e+8 
           6730      1.08512e+8 
           6750      1.07374e+8 
           6770      1.06247e+8 
           6790      1.05115e+8 
           6810      1.04036e+8 
           6830      1.02951e+8 
           6850      1.01877e+8 
           6870      1.00822e+8 
           6890      9.97848e+7 
           6910      9.87583e+7 
           6930      9.77341e+7 
           6950      9.67357e+7 
           6970      9.57471e+7 
           6990      9.47604e+7 
           7010      9.38065e+7 
           7030      9.28543e+7 
           7050      9.19113e+7 
           7070      8.96133e+7 
           7090      9.00677e+7 
           7110      8.91668e+7 
           7130      8.82745e+7 
           7150      8.73908e+7 
           7170      8.65009e+7 
           7190      8.56559e+7 
           7210      8.48045e+7 
           7230      8.38387e+7 
           7250      8.31403e+7 
           7270      8.23199e+7 
           7290      8.08764e+7 
           7310      8.06954e+7 
           7330       7.9926e+7 
           7350       7.9143e+7 
           7370      7.83742e+7 
           7390      7.76125e+7 
           7410      7.68648e+7 
           7430      7.61172e+7 
           7450      7.53968e+7 
           7470      7.46695e+7 
           7490      7.39557e+7 
           7510      7.32216e+7 
           7530      7.25541e+7 
           7550      7.18596e+7 
           7570       7.1178e+7 
           7590      7.05026e+7 
           7610      6.98398e+7 
           7630      6.91764e+7 
           7650      6.85255e+7 
           7670      6.78868e+7 
           7690      6.72475e+7 
           7710      6.66139e+7 
           7730      6.59985e+7 
           7750      6.53761e+7 
           7770      6.47716e+7 
           7790      6.41849e+7 
           7810      6.35355e+7 
           7830      6.30024e+7 
           7850      6.24922e+7 
           7870      6.19196e+7 
           7890      6.13156e+7 
           7910      6.07349e+7 
           7930      6.00995e+7 
           7950      5.95298e+7 
           7970      5.89509e+7 
           7990      5.84555e+7 
           8010       5.7905e+7 
           8030      5.74224e+7 
           8050      5.69462e+7 
           8070      5.64676e+7 
           8090       5.5841e+7 
           8110      5.54016e+7 
           8130      5.49999e+7 
           8150      5.43838e+7 
           8170      5.40417e+7 
           8190      5.34939e+7 
           8210      5.28099e+7 
           8230      5.25202e+7 
           8250       5.2061e+7 
           8270      5.13292e+7 
           8290      5.10736e+7 
           8310      5.06469e+7 
           8330      5.01961e+7 
           8350      4.95231e+7 
           8370      4.91399e+7 
           8390      4.87759e+7 
           8410      4.83071e+7 
           8430      4.78555e+7 
           8450      4.72515e+7 
           8470       4.6639e+7 
           8490       4.6961e+7 
           8510      4.55997e+7 
           8530        4.646e+7 
           8550      4.41145e+7 
           8570      4.64694e+7 
           8590      4.40257e+7 
