# Kurucz ODFNEW /NOVER (2003)
# teff = 27000 K (value for the effective temperature for the model. Temperatures are given in K)
# logg = 4.5 log(cm/s2) (value for Log(G) for the model.)
# meta = -0.5  (value for the Metallicity for the model.)
# lh = 1.25  (l/Hp where l is the  mixing length of the convective element and Hp is the pressure scale height)
# vtur = 2 km/s (Microturbulence velocity)
# alpha = 0  (Alpha)
#
# column 1: WAVELENGTH (ANGSTROM), Wavelength in Angstrom
# column 2: FLUX (ERG/CM2/S/A), Flux in erg/cm2/s/A
          147.2     4.87259e-12 
            151     1.86506e-11 
          155.2     7.67768e-11 
          158.8      2.4469e-10 
            162     6.59922e-10 
            166      2.17252e-9 
          170.3      7.38259e-9 
          173.4      1.72367e-8 
          176.8      4.22995e-8 
          180.2      1.00563e-7 
          181.7      1.45911e-7 
          186.1      4.21228e-7 
            191      1.29869e-6 
          193.9      2.46405e-6 
          198.4      6.42159e-6 
          201.8      1.28792e-5 
            205      2.42873e-5 
          210.5      6.91432e-5 
          216.2      0.00019336 
          219.8     0.000360135 
            223     0.000615446 
          226.8      0.00114099 
            230        0.147402 
            234        0.337568 
            240        0.713039 
          246.5         1.55231 
          252.4         3.06939 
          256.8          4.6155 
            260         7.13334 
            264         10.5447 
          268.5         16.5789 
          273.5         26.6604 
          278.5          42.053 
            284         71.0945 
            290         116.849 
            296         189.023 
            301         273.957 
            308         447.164 
            318         973.974 
            328         1828.11 
            338         3473.68 
            348         6175.55 
            357           12772 
            366         21230.3 
            375         31448.4 
            385         49932.4 
            395         78368.9 
            405          115445 
            414          164327 
            422          214486 
            430          287121 
            441          412622 
            451          562332 
            460          724759 
            470          974465 
            480      1.27357e+6 
            490      1.66163e+6 
            500       2.1347e+6 
            506      1.10276e+7 
            512      4.82667e+7 
            520      5.36658e+7 
            530      6.23837e+7 
            540      6.45892e+7 
            550      8.44771e+7 
            560      9.56516e+7 
            570      1.10375e+8 
            580      1.07712e+8 
            590      1.32294e+8 
            600      1.43785e+8 
            610      1.62183e+8 
            620      1.76487e+8 
            630      1.89238e+8 
            640      1.88144e+8 
            650      1.94419e+8 
            658      2.22097e+8 
            665      2.43599e+8 
            675       2.5346e+8 
            685      2.62548e+8 
            695      3.12537e+8 
            705      3.19203e+8 
            716      3.53518e+8 
            726      3.67319e+8 
            735      3.81879e+8 
            745      4.19013e+8 
            755       4.4158e+8 
            765       4.6766e+8 
            775      4.95423e+8 
            785      5.26208e+8 
            795      5.43923e+8 
            805      5.65264e+8 
            815      5.80784e+8 
            825      6.20313e+8 
            835       5.9436e+8 
            845      6.49967e+8 
            855      6.69432e+8 
            865      7.04192e+8 
            875      7.41379e+8 
            885      7.82198e+8 
            895      8.10907e+8 
            905      8.18614e+8 
            915      1.01271e+9 
            925      5.02908e+9 
            935     1.23233e+10 
            945      2.8364e+10 
            955     3.68945e+10 
            965     4.73205e+10 
            975     1.22864e+10 
            985     4.64706e+10 
            995     4.28015e+10 
           1005     4.65716e+10 
           1015     4.45321e+10 
           1025     1.86962e+10 
           1035     3.73661e+10 
           1045     5.07055e+10 
           1055     4.77078e+10 
           1065     4.07113e+10 
           1075     4.45017e+10 
           1085     3.99698e+10 
           1095     4.38398e+10 
           1105     4.07637e+10 
           1115      4.0157e+10 
           1125     3.44902e+10 
           1135     3.94649e+10 
           1145     3.59194e+10 
           1155     3.67064e+10 
           1165     3.61289e+10 
           1175     2.54128e+10 
           1185     3.37446e+10 
           1195     3.15439e+10 
           1205     2.52617e+10 
           1215     1.33257e+10 
           1225     2.72513e+10 
           1235     3.08749e+10 
           1245     3.02375e+10 
           1255     2.97289e+10 
           1265     2.96892e+10 
           1275     2.99947e+10 
           1285     2.94247e+10 
           1295     2.45151e+10 
           1305     2.52845e+10 
           1315     2.79035e+10 
           1325     2.63595e+10 
           1335     2.54524e+10 
           1345     2.53024e+10 
           1355     2.52217e+10 
           1365      2.3707e+10 
           1375     2.31761e+10 
           1385     2.27857e+10 
           1395     1.87613e+10 
           1405      1.9487e+10 
           1415     2.07046e+10 
           1425     1.98678e+10 
           1435     2.01974e+10 
           1442     2.04638e+10 
           1447     2.00473e+10 
           1455     1.95249e+10 
           1465     1.85414e+10 
           1475     1.84536e+10 
           1485     1.81102e+10 
           1495     1.77187e+10 
           1505     1.65004e+10 
           1512     1.52277e+10 
           1517     1.55379e+10 
           1525     1.56549e+10 
           1535     1.38073e+10 
           1545     1.36229e+10 
           1555     1.30417e+10 
           1565     1.37745e+10 
           1575     1.42577e+10 
           1585     1.40835e+10 
           1595     1.39822e+10 
           1605     1.36342e+10 
           1615     1.32329e+10 
           1625      1.3193e+10 
           1635       1.351e+10 
           1645     1.32085e+10 
           1655     1.31723e+10 
           1665     1.31283e+10 
           1672     1.26599e+10 
           1677     1.33844e+10 
           1685     1.29645e+10 
           1695     1.24529e+10 
           1705     1.20374e+10 
           1715     1.15577e+10 
           1725     1.13127e+10 
           1735     1.14973e+10 
           1745     1.12663e+10 
           1755     1.12475e+10 
           1765     1.09339e+10 
           1775     1.05107e+10 
           1785     1.05531e+10 
           1795      1.0618e+10 
           1805     1.05873e+10 
           1815      9.85891e+9 
           1825      9.99899e+9 
           1835       9.7415e+9 
           1845       8.9581e+9 
           1855      8.98648e+9 
           1865       9.0915e+9 
           1875      9.22164e+9 
           1885      8.38061e+9 
           1895      7.84821e+9 
           1905      8.31093e+9 
           1915       7.9434e+9 
           1925      7.58628e+9 
           1935      7.91477e+9 
           1945      8.05875e+9 
           1955      7.35012e+9 
           1967      7.75067e+9 
           1976      8.04812e+9 
           1984      7.49476e+9 
           1995      7.33444e+9 
           2005      7.44795e+9 
           2015      7.42431e+9 
           2025      7.53142e+9 
           2035      7.00691e+9 
           2045      7.00882e+9 
           2055      6.71579e+9 
           2065      6.71884e+9 
           2074      6.93829e+9 
           2078      6.49466e+9 
           2085      6.62635e+9 
           2095      6.37132e+9 
           2105      6.56055e+9 
           2115      6.51592e+9 
           2125       6.5667e+9 
           2135      6.42516e+9 
           2145      6.16389e+9 
           2155      6.28577e+9 
           2165      6.21939e+9 
           2175      6.11702e+9 
           2185      6.00079e+9 
           2195      5.99159e+9 
           2205        5.918e+9 
           2215      5.83835e+9 
           2225      5.71027e+9 
           2235      5.60845e+9 
           2245      5.60293e+9 
           2255      5.47311e+9 
           2265      5.45786e+9 
           2275      5.38239e+9 
           2285      5.33322e+9 
           2295      5.05389e+9 
           2305      5.16627e+9 
           2315      5.05607e+9 
           2325      4.99358e+9 
           2335      4.88871e+9 
           2345      4.87588e+9 
           2355      4.83116e+9 
           2365      4.76924e+9 
           2375      4.68188e+9 
           2385      4.62939e+9 
           2395      4.56704e+9 
           2405      4.50328e+9 
           2415      4.44074e+9 
           2425      4.41348e+9 
           2435      4.31955e+9 
           2445      4.28637e+9 
           2455      4.25352e+9 
           2465      4.19403e+9 
           2475      4.13382e+9 
           2485      4.07512e+9 
           2495      3.77212e+9 
           2505      3.95711e+9 
           2513      3.81146e+9 
           2518      3.89509e+9 
           2525      3.86968e+9 
           2535      3.82227e+9 
           2545      3.72453e+9 
           2555      3.71598e+9 
           2565      3.67526e+9 
           2575      3.64524e+9 
           2585      3.60136e+9 
           2595      3.55883e+9 
           2605      3.52984e+9 
           2615      3.48659e+9 
           2625      3.45176e+9 
           2635      3.41064e+9 
           2645      3.36686e+9 
           2655      3.33112e+9 
           2665      3.25748e+9 
           2675      3.23043e+9 
           2685      3.21707e+9 
           2695      3.12602e+9 
           2705      3.10717e+9 
           2715      3.08228e+9 
           2725      3.03656e+9 
           2735      3.02044e+9 
           2745      2.96458e+9 
           2755      2.94339e+9 
           2765      2.89341e+9 
           2775      2.89481e+9 
           2785      2.85434e+9 
           2795      2.76716e+9 
           2805      2.77284e+9 
           2815      2.76468e+9 
           2825      2.70714e+9 
           2835      2.64434e+9 
           2845      2.66852e+9 
           2855      2.63109e+9 
           2865      2.60839e+9 
           2875      2.57934e+9 
           2885      2.55144e+9 
           2895       2.5196e+9 
           2910      2.47296e+9 
           2930      2.42273e+9 
           2950       2.3502e+9 
           2970      2.31874e+9 
           2990      2.26448e+9 
           3010      2.20526e+9 
           3030       2.1732e+9 
           3050      2.12929e+9 
           3070      2.08676e+9 
           3090      2.02342e+9 
           3110      1.99791e+9 
           3130      1.95419e+9 
           3150      1.91575e+9 
           3170      1.87313e+9 
           3190      1.82273e+9 
           3210      1.80096e+9 
           3230      1.76172e+9 
           3250      1.72866e+9 
           3270      1.69405e+9 
           3290      1.65841e+9 
           3310      1.62866e+9 
           3330       1.5954e+9 
           3350      1.56274e+9 
           3370      1.53383e+9 
           3390      1.50572e+9 
           3410      1.47694e+9 
           3430      1.44218e+9 
           3450      1.40965e+9 
           3470       1.3861e+9 
           3490       1.3594e+9 
           3510      1.33658e+9 
           3530      1.31543e+9 
           3550      1.29079e+9 
           3570      1.27442e+9 
           3590      1.23924e+9 
           3610      1.22017e+9 
           3630      1.19653e+9 
           3640      1.19556e+9 
           3650       1.1716e+9 
           3670       1.1568e+9 
           3690      1.13533e+9 
           3710      1.09556e+9 
           3730      1.05232e+9 
           3750      1.06438e+9 
           3770      1.04842e+9 
           3790      1.09483e+9 
           3810      1.13566e+9 
           3830      9.97265e+8 
           3850      1.16121e+9 
           3870      1.16853e+9 
           3890      9.39651e+8 
           3910      1.15265e+9 
           3930      1.13093e+9 
           3950      1.11185e+9 
           3970       8.7281e+8 
           3990       1.0665e+9 
           4010      1.06592e+9 
           4030       1.0018e+9 
           4050      1.03856e+9 
           4070      1.00254e+9 
           4090      9.22022e+8 
           4110      8.14406e+8 
           4130      9.46302e+8 
           4150      9.41227e+8 
           4170      9.35319e+8 
           4190      9.21926e+8 
           4210      9.10105e+8 
           4230      8.92761e+8 
           4250      8.73428e+8 
           4270      8.51029e+8 
           4290      8.41598e+8 
           4310      8.19569e+8 
           4330      7.41547e+8 
           4350      6.78083e+8 
           4370      7.77668e+8 
           4390      7.56231e+8 
           4410      7.62249e+8 
           4430      7.52004e+8 
           4450      7.41397e+8 
           4470      6.97389e+8 
           4490       7.1653e+8 
           4510      7.09004e+8 
           4530      6.97231e+8 
           4550      6.85583e+8 
           4570      6.74184e+8 
           4590      6.63601e+8 
           4610      6.51899e+8 
           4630      6.41833e+8 
           4650       6.2533e+8 
           4670      6.22231e+8 
           4690      6.14555e+8 
           4710      5.94063e+8 
           4730      5.94152e+8 
           4750        5.844e+8 
           4770      5.79824e+8 
           4790      5.70494e+8 
           4810       5.5949e+8 
           4830      5.47212e+8 
           4850      5.04287e+8 
           4870      4.51896e+8 
           4890      5.22365e+8 
           4910      5.18821e+8 
           4930      4.99477e+8 
           4950      5.04812e+8 
           4970      4.99217e+8 
           4990      4.91637e+8 
           5010      4.75037e+8 
           5030      4.77283e+8 
           5050      4.66774e+8 
           5070      4.64036e+8 
           5090      4.57169e+8 
           5110      4.50423e+8 
           5130      4.42924e+8 
           5150       4.3682e+8 
           5170      4.31727e+8 
           5190      4.25889e+8 
           5210      4.19544e+8 
           5230      4.14028e+8 
           5250      4.08337e+8 
           5270      4.02504e+8 
           5290      3.97177e+8 
           5310      3.91639e+8 
           5330      3.86292e+8 
           5350      3.80816e+8 
           5370      3.75973e+8 
           5390      3.70776e+8 
           5410      3.65864e+8 
           5430      3.60823e+8 
           5450      3.55935e+8 
           5470      3.51209e+8 
           5490       3.4658e+8 
           5510      3.42158e+8 
           5530      3.37457e+8 
           5550      3.33207e+8 
           5570      3.28754e+8 
           5590      3.24562e+8 
           5610      3.20241e+8 
           5630      3.16175e+8 
           5650      3.11627e+8 
           5670      3.07007e+8 
           5690      3.02572e+8 
           5710      2.99809e+8 
           5730      2.96079e+8 
           5750      2.91881e+8 
           5770      2.88797e+8 
           5790      2.85097e+8 
           5810      2.81508e+8 
           5830      2.77751e+8 
           5850      2.74402e+8 
           5870       2.6251e+8 
           5890      2.66225e+8 
           5910      2.64081e+8 
           5930      2.60621e+8 
           5950      2.57318e+8 
           5970      2.54709e+8 
           5990      2.51236e+8 
           6010      2.48409e+8 
           6030      2.45241e+8 
           6050      2.42356e+8 
           6070      2.39525e+8 
           6090      2.36623e+8 
           6110      2.33785e+8 
           6130      2.31009e+8 
           6150      2.27865e+8 
           6170      2.25332e+8 
           6190      2.22796e+8 
           6210      2.20191e+8 
           6230      2.17596e+8 
           6250      2.14903e+8 
           6270      2.12452e+8 
           6290      2.09998e+8 
           6310      2.07496e+8 
           6330      2.05134e+8 
           6350      2.02517e+8 
           6370      2.00347e+8 
           6390      1.98043e+8 
           6410      1.95773e+8 
           6430      1.93573e+8 
           6450      1.91333e+8 
           6470      1.88883e+8 
           6490      1.86817e+8 
           6510      1.84649e+8 
           6530       1.8169e+8 
           6550      1.73215e+8 
           6570      1.53616e+8 
           6590      1.73825e+8 
           6610      1.74137e+8 
           6630      1.72694e+8 
           6650      1.70856e+8 
           6670      1.67174e+8 
           6690      1.65393e+8 
           6710      1.65321e+8 
           6730      1.63366e+8 
           6750      1.61722e+8 
           6770      1.59954e+8 
           6790       1.5773e+8 
           6810      1.56415e+8 
           6830      1.54725e+8 
           6850        1.531e+8 
           6870      1.51444e+8 
           6890      1.49765e+8 
           6910      1.48126e+8 
           6930      1.46613e+8 
           6950      1.45061e+8 
           6970      1.43516e+8 
           6990      1.41986e+8 
           7010      1.40487e+8 
           7030      1.38996e+8 
           7050      1.37526e+8 
           7070      1.33862e+8 
           7090      1.34667e+8 
           7110      1.33217e+8 
           7130      1.31841e+8 
           7150      1.30486e+8 
           7170      1.29121e+8 
           7190      1.27806e+8 
           7210      1.26489e+8 
           7230      1.24097e+8 
           7250      1.23836e+8 
           7270      1.22628e+8 
           7290      1.20361e+8 
           7310      1.20119e+8 
           7330      1.18911e+8 
           7350      1.17714e+8 
           7370      1.16528e+8 
           7390      1.15353e+8 
           7410      1.14196e+8 
           7430      1.13036e+8 
           7450      1.11928e+8 
           7470      1.10674e+8 
           7490      1.09701e+8 
           7510      1.08577e+8 
           7530      1.07516e+8 
           7550      1.06484e+8 
           7570      1.05429e+8 
           7590      1.04397e+8 
           7610      1.03335e+8 
           7630      1.02354e+8 
           7650      1.01362e+8 
           7670      1.00373e+8 
           7690      9.93997e+7 
           7710      9.84347e+7 
           7730      9.74783e+7 
           7750      9.65431e+7 
           7770      9.54726e+7 
           7790      9.47037e+7 
           7810      9.37437e+7 
           7830      9.29029e+7 
           7850      9.20755e+7 
           7870      9.11702e+7 
           7890      9.02184e+7 
           7910      8.94918e+7 
           7930      8.86216e+7 
           7950      8.77709e+7 
           7970      8.68387e+7 
           7990      8.59678e+7 
           8010       8.5175e+7 
           8030      8.43715e+7 
           8050      8.35923e+7 
           8070      8.28777e+7 
           8090      8.19734e+7 
           8110      8.12087e+7 
           8130      8.06159e+7 
           8150       7.9818e+7 
           8170       7.9185e+7 
           8190      7.82933e+7 
           8210      7.74149e+7 
           8230      7.68333e+7 
           8250      7.62453e+7 
           8270      7.51113e+7 
           8290      7.48206e+7 
           8310      7.41881e+7 
           8330      7.34848e+7 
           8350      7.24794e+7 
           8370      7.20528e+7 
           8390      7.15278e+7 
           8410      7.08843e+7 
           8430      7.02091e+7 
           8450      6.90646e+7 
           8470      6.89437e+7 
           8490      6.81697e+7 
           8510      6.76052e+7 
           8530      6.69675e+7 
           8550      6.59898e+7 
           8570       6.6308e+7 
