# Kurucz ODFNEW /NOVER (2003)
# teff = 26000 K (value for the effective temperature for the model. Temperatures are given in K)
# logg = 5 log(cm/s2) (value for Log(G) for the model.)
# meta = -2.5  (value for the Metallicity for the model.)
# lh = 1.25  (l/Hp where l is the  mixing length of the convective element and Hp is the pressure scale height)
# vtur = 2 km/s (Microturbulence velocity)
# alpha = 0.4  (Alpha)
#
# column 1: WAVELENGTH (ANGSTROM), Wavelength in Angstrom
# column 2: FLUX (ERG/CM2/S/A), Flux in erg/cm2/s/A
          147.2     4.78391e-13 
            151     2.17849e-12 
          155.2     1.06971e-11 
          158.8     3.91752e-11 
            162     1.18448e-10 
            166     4.44909e-10 
          170.3      1.72153e-9 
          173.4      4.37841e-9 
          176.8      1.17378e-8 
          180.2      3.03012e-8 
          181.7      4.55158e-8 
          186.1      1.44445e-7 
            191      4.90385e-7 
          193.9      9.81072e-7 
          198.4       2.7604e-6 
          201.8      5.84374e-6 
            205      1.15632e-5 
          210.5      3.55277e-5 
          216.2     0.000106767 
          219.8     0.000207461 
            223     0.000367427 
          226.8     0.000708545 
            230      0.00392817 
            234      0.00852657 
            240       0.0202459 
          246.5       0.0491999 
          252.4         0.10674 
          256.8        0.179704 
            260        0.270677 
            264        0.431923 
          268.5        0.717274 
          273.5         1.23431 
          278.5         2.08434 
            284         3.62493 
            290         6.46084 
            296         11.2203 
            301          17.462 
            308         31.0314 
            318         70.6153 
            328         149.264 
            338         301.103 
            348         581.563 
            357          1016.1 
            366         1725.73 
            375          2845.6 
            385         4819.39 
            395         7919.71 
            405         12673.2 
            414         18946.8 
            422         26633.6 
            430         36894.6 
            441           56666 
            451         81957.7 
            460          112442 
            470          157297 
            480          216505 
            490          293742 
            500          392869 
            506      2.02228e+6 
            512      7.12619e+6 
            520      8.50623e+6 
            530      1.12938e+7 
            540      1.18247e+7 
            550      1.54515e+7 
            560      1.76159e+7 
            570      2.03763e+7 
            580       2.0523e+7 
            590      2.54501e+7 
            600      2.95628e+7 
            610      3.33711e+7 
            620      3.71829e+7 
            630       4.1632e+7 
            640      4.57704e+7 
            650      5.11915e+7 
            658      5.54656e+7 
            665       5.9263e+7 
            675      6.43729e+7 
            685       7.0014e+7 
            695      7.78534e+7 
            705      8.41952e+7 
            716      9.20998e+7 
            726      9.95795e+7 
            735      1.07449e+8 
            745      1.15926e+8 
            755      1.24652e+8 
            765      1.33504e+8 
            775       1.4314e+8 
            785      1.52893e+8 
            795      1.62649e+8 
            805      1.73149e+8 
            815      1.83707e+8 
            825      1.94806e+8 
            835      2.03465e+8 
            845      2.17329e+8 
            855      2.28612e+8 
            865      2.41216e+8 
            875      2.53625e+8 
            885      2.66319e+8 
            895      2.79039e+8 
            905      2.89742e+8 
            915      3.74824e+8 
            925        1.663e+9 
            935      4.38169e+9 
            945     1.51696e+10 
            955     2.53451e+10 
            965     3.54797e+10 
            975     1.34027e+10 
            985     4.59464e+10 
            995     4.51379e+10 
           1005     4.69296e+10 
           1015      3.8685e+10 
           1025      8.95939e+9 
           1035     3.38581e+10 
           1045      4.3523e+10 
           1055     4.31621e+10 
           1065     4.06714e+10 
           1075     4.06811e+10 
           1085     3.74289e+10 
           1095     3.92086e+10 
           1105     3.74593e+10 
           1115     3.65722e+10 
           1125     3.46866e+10 
           1135      3.5049e+10 
           1145      3.3428e+10 
           1155      3.3199e+10 
           1165       3.244e+10 
           1175     2.90059e+10 
           1185     3.05064e+10 
           1195     2.82516e+10 
           1205     2.29438e+10 
           1215      6.42282e+9 
           1225      2.1311e+10 
           1235     2.61794e+10 
           1245      2.6079e+10 
           1255      2.5799e+10 
           1265     2.50772e+10 
           1275     2.48291e+10 
           1285     2.42708e+10 
           1295      2.2727e+10 
           1305      2.2557e+10 
           1315     2.26139e+10 
           1325     2.18876e+10 
           1335     2.11529e+10 
           1345     2.10353e+10 
           1355     2.06726e+10 
           1365     2.01056e+10 
           1375     1.97293e+10 
           1385     1.93237e+10 
           1395     1.84235e+10 
           1405     1.81605e+10 
           1415     1.80422e+10 
           1425     1.77021e+10 
           1435     1.73412e+10 
           1442     1.71212e+10 
           1447     1.69366e+10 
           1455     1.66496e+10 
           1465     1.62979e+10 
           1475     1.59665e+10 
           1485     1.56367e+10 
           1495     1.53207e+10 
           1505      1.4915e+10 
           1512     1.47592e+10 
           1517     1.46256e+10 
           1525     1.43807e+10 
           1535     1.39891e+10 
           1545     1.37157e+10 
           1555     1.34164e+10 
           1565     1.32837e+10 
           1575     1.30536e+10 
           1585     1.28045e+10 
           1595     1.25722e+10 
           1605     1.22671e+10 
           1615     1.20313e+10 
           1625     1.18622e+10 
           1635     1.16423e+10 
           1645     1.12503e+10 
           1655      1.1238e+10 
           1665     1.10434e+10 
           1672     1.08806e+10 
           1677     1.08194e+10 
           1685     1.06589e+10 
           1695     1.04588e+10 
           1705      1.0263e+10 
           1715     1.00635e+10 
           1725      9.88887e+9 
           1735      9.73529e+9 
           1745      9.56266e+9 
           1755      9.40899e+9 
           1765      9.18754e+9 
           1775      9.06219e+9 
           1785      8.91967e+9 
           1795      8.78724e+9 
           1805      8.64494e+9 
           1815      8.48956e+9 
           1825      8.35391e+9 
           1835      8.21443e+9 
           1845       8.0351e+9 
           1855      7.82444e+9 
           1865      7.72776e+9 
           1875      7.68016e+9 
           1885      7.50241e+9 
           1895      7.32178e+9 
           1905      7.29453e+9 
           1915      7.10996e+9 
           1925      6.99907e+9 
           1935      6.92581e+9 
           1945      6.85408e+9 
           1955      6.68133e+9 
           1967      6.62304e+9 
           1976      6.55358e+9 
           1984      6.44045e+9 
           1995      6.28954e+9 
           2005      6.25845e+9 
           2015      6.17663e+9 
           2025      6.09115e+9 
           2035      5.98741e+9 
           2045      5.89773e+9 
           2055      5.75733e+9 
           2065      5.66761e+9 
           2074      5.63954e+9 
           2078      5.55094e+9 
           2085      5.53782e+9 
           2095      5.44456e+9 
           2105      5.40171e+9 
           2115      5.33357e+9 
           2125      5.26239e+9 
           2135      5.18568e+9 
           2145      5.10846e+9 
           2155       5.0395e+9 
           2165      4.96958e+9 
           2175      4.89867e+9 
           2185       4.8316e+9 
           2195      4.76523e+9 
           2205      4.69894e+9 
           2215      4.63419e+9 
           2225      4.56995e+9 
           2235      4.50697e+9 
           2245      4.44688e+9 
           2255      4.38545e+9 
           2265      4.32735e+9 
           2275      4.26901e+9 
           2285      4.21203e+9 
           2295      4.13206e+9 
           2305      4.09969e+9 
           2315       4.0453e+9 
           2325      3.99217e+9 
           2335       3.9385e+9 
           2345      3.88724e+9 
           2355      3.83772e+9 
           2365      3.78735e+9 
           2375      3.73809e+9 
           2385      3.68906e+9 
           2395      3.64223e+9 
           2405      3.59591e+9 
           2415      3.54921e+9 
           2425      3.50526e+9 
           2435      3.46014e+9 
           2445      3.41664e+9 
           2455      3.37411e+9 
           2465      3.33172e+9 
           2475      3.29016e+9 
           2485      3.24909e+9 
           2495      3.17674e+9 
           2505      3.16872e+9 
           2513      3.13199e+9 
           2518       3.1176e+9 
           2525       3.0913e+9 
           2535      3.05359e+9 
           2545      3.01254e+9 
           2555      2.97937e+9 
           2565      2.94359e+9 
           2575      2.90895e+9 
           2585      2.87414e+9 
           2595      2.83973e+9 
           2605      2.82579e+9 
           2615      2.79227e+9 
           2625      2.75912e+9 
           2635      2.72438e+9 
           2645      2.69127e+9 
           2655      2.65623e+9 
           2665      2.61893e+9 
           2675       2.5827e+9 
           2685       2.5705e+9 
           2695      2.51863e+9 
           2705      2.51121e+9 
           2715      2.48212e+9 
           2725      2.42969e+9 
           2735      2.42505e+9 
           2745      2.39696e+9 
           2755      2.36996e+9 
           2765      2.31954e+9 
           2775      2.31704e+9 
           2785      2.29077e+9 
           2795      2.25251e+9 
           2805       2.2359e+9 
           2815      2.21467e+9 
           2825      2.16102e+9 
           2835      2.14749e+9 
           2845      2.14164e+9 
           2855      2.11797e+9 
           2865      2.09467e+9 
           2875       2.0717e+9 
           2885      2.04908e+9 
           2895      2.02672e+9 
           2910      1.99373e+9 
           2930      1.95072e+9 
           2950      1.89116e+9 
           2970      1.86872e+9 
           2990      1.82914e+9 
           3010      1.79078e+9 
           3030      1.75351e+9 
           3050      1.71714e+9 
           3070      1.68173e+9 
           3090      1.64673e+9 
           3110      1.61363e+9 
           3130      1.58257e+9 
           3150      1.55062e+9 
           3170      1.51934e+9 
           3190      1.47299e+9 
           3210      1.45872e+9 
           3230      1.42951e+9 
           3250      1.40113e+9 
           3270      1.37555e+9 
           3290       1.3467e+9 
           3310      1.32284e+9 
           3330      1.29742e+9 
           3350      1.27005e+9 
           3370      1.24846e+9 
           3390      1.22485e+9 
           3410      1.20181e+9 
           3430        1.174e+9 
           3450      1.14761e+9 
           3470      1.12995e+9 
           3490      1.10915e+9 
           3510       1.0903e+9 
           3530       1.0717e+9 
           3550      1.05305e+9 
           3570      1.04155e+9 
           3590       1.0139e+9 
           3610      1.00059e+9 
           3630      9.78412e+8 
           3640      9.78531e+8 
           3650      9.67832e+8 
           3670       9.5527e+8 
           3690      9.38939e+8 
           3710      9.07823e+8 
           3730      8.74258e+8 
           3750      8.68279e+8 
           3770      8.46792e+8 
           3790      8.88287e+8 
           3810      9.30787e+8 
           3830      8.02748e+8 
           3850      9.67309e+8 
           3870      9.95119e+8 
           3890      7.51587e+8 
           3910      9.81368e+8 
           3930      9.85284e+8 
           3950      9.52321e+8 
           3970      6.99276e+8 
           3990      9.07931e+8 
           4010      9.19889e+8 
           4030      8.50447e+8 
           4050      9.04242e+8 
           4070      8.81118e+8 
           4090      7.76268e+8 
           4110      6.66699e+8 
           4130      8.20629e+8 
           4150      8.20175e+8 
           4170      8.16746e+8 
           4190       8.0665e+8 
           4210      7.93244e+8 
           4230      7.79866e+8 
           4250       7.6664e+8 
           4270      7.52182e+8 
           4290      7.37775e+8 
           4310      7.17011e+8 
           4330      6.21027e+8 
           4350      5.62332e+8 
           4370      6.78322e+8 
           4390      6.51337e+8 
           4410      6.69269e+8 
           4430      6.56789e+8 
           4450      6.48863e+8 
           4470      5.96537e+8 
           4490      6.27356e+8 
           4510        6.196e+8 
           4530      6.09809e+8 
           4550      6.00128e+8 
           4570      5.90702e+8 
           4590      5.81507e+8 
           4610      5.72519e+8 
           4630      5.63664e+8 
           4650      5.54645e+8 
           4670      5.46397e+8 
           4690      5.37859e+8 
           4710      5.21261e+8 
           4730      5.21796e+8 
           4750      5.13838e+8 
           4770      5.06227e+8 
           4790      4.97624e+8 
           4810      4.88544e+8 
           4830      4.75593e+8 
           4850      4.22366e+8 
           4870      3.73665e+8 
           4890      4.50949e+8 
           4910      4.51611e+8 
           4930      4.32051e+8 
           4950      4.42343e+8 
           4970      4.36334e+8 
           4990       4.3003e+8 
           5010      4.17012e+8 
           5030      4.17678e+8 
           5050      4.08674e+8 
           5070       4.0594e+8 
           5090      4.00183e+8 
           5110      3.94517e+8 
           5130       3.8897e+8 
           5150      3.83498e+8 
           5170       3.7814e+8 
           5190      3.72882e+8 
           5210      3.67679e+8 
           5230      3.62614e+8 
           5250      3.57614e+8 
           5270      3.52708e+8 
           5290      3.47878e+8 
           5310      3.43125e+8 
           5330       3.3846e+8 
           5350      3.33881e+8 
           5370      3.29373e+8 
           5390      3.24949e+8 
           5410      3.20595e+8 
           5430      3.16308e+8 
           5450      3.12101e+8 
           5470      3.07959e+8 
           5490      3.03895e+8 
           5510      2.99881e+8 
           5530      2.95942e+8 
           5550      2.92076e+8 
           5570       2.8827e+8 
           5590      2.84523e+8 
           5610      2.80834e+8 
           5630      2.77203e+8 
           5650      2.73627e+8 
           5670      2.70118e+8 
           5690      2.66663e+8 
           5710      2.63273e+8 
           5730      2.59924e+8 
           5750      2.56626e+8 
           5770      2.53402e+8 
           5790      2.50204e+8 
           5810      2.47068e+8 
           5830      2.43979e+8 
           5850      2.40937e+8 
           5870      2.28299e+8 
           5890      2.34158e+8 
           5910      2.32101e+8 
           5930      2.29242e+8 
           5950      2.26426e+8 
           5970      2.23664e+8 
           5990      2.20934e+8 
           6010      2.18246e+8 
           6030      2.15599e+8 
           6050      2.13002e+8 
           6070      2.10435e+8 
           6090      2.07908e+8 
           6110      2.05419e+8 
           6130      2.02977e+8 
           6150      2.00554e+8 
           6170      1.98187e+8 
           6190      1.95837e+8 
           6210      1.93532e+8 
           6230      1.91263e+8 
           6250      1.89018e+8 
           6270      1.86808e+8 
           6290      1.84641e+8 
           6310      1.82488e+8 
           6330      1.80378e+8 
           6350      1.78291e+8 
           6370      1.76244e+8 
           6390       1.7423e+8 
           6410      1.72227e+8 
           6430      1.70264e+8 
           6450      1.68332e+8 
           6470       1.6642e+8 
           6490      1.64403e+8 
           6510      1.62061e+8 
           6530      1.59055e+8 
           6550      1.48646e+8 
           6570      1.30618e+8 
           6590      1.52043e+8 
           6610        1.529e+8 
           6630      1.51714e+8 
           6650      1.50496e+8 
           6670      1.46639e+8 
           6690      1.45107e+8 
           6710      1.45599e+8 
           6730      1.44011e+8 
           6750       1.4244e+8 
           6770      1.40893e+8 
           6790      1.39361e+8 
           6810      1.37861e+8 
           6830      1.36369e+8 
           6850      1.34907e+8 
           6870       1.3346e+8 
           6890      1.32028e+8 
           6910      1.30618e+8 
           6930       1.2923e+8 
           6950      1.27863e+8 
           6970       1.2651e+8 
           6990       1.2517e+8 
           7010      1.23859e+8 
           7030      1.22553e+8 
           7050      1.21275e+8 
           7070      1.17726e+8 
           7090      1.18756e+8 
           7110      1.17523e+8 
           7130      1.16309e+8 
           7150      1.15106e+8 
           7170      1.13908e+8 
           7190       1.1275e+8 
           7210      1.11597e+8 
           7230      1.10418e+8 
           7250      1.09329e+8 
           7270      1.08216e+8 
           7290      1.06098e+8 
           7310      1.06019e+8 
           7330      1.04965e+8 
           7350      1.03906e+8 
           7370      1.02864e+8 
           7390      1.01832e+8 
           7410      1.00817e+8 
           7430      9.98108e+7 
           7450      9.88344e+7 
           7470      9.78536e+7 
           7490      9.68885e+7 
           7510      9.58988e+7 
           7530      9.49914e+7 
           7550      9.40593e+7 
           7570      9.31356e+7 
           7590      9.22269e+7 
           7610      9.13264e+7 
           7630      9.04406e+7 
           7650      8.95628e+7 
           7670      8.86992e+7 
           7690      8.78435e+7 
           7710      8.69954e+7 
           7730      8.61612e+7 
           7750      8.53345e+7 
           7770      8.45151e+7 
           7790      8.37154e+7 
           7810      8.28734e+7 
           7830      8.21311e+7 
           7850      8.14441e+7 
           7870      8.06718e+7 
           7890      7.98639e+7 
           7910      7.91656e+7 
           7930      7.84253e+7 
           7950      7.76854e+7 
           7970      7.68275e+7 
           7990      7.61011e+7 
           8010      7.53634e+7 
           8030      7.46496e+7 
           8050      7.39594e+7 
           8070      7.32809e+7 
           8090      7.25333e+7 
           8110      7.19183e+7 
           8130      7.13255e+7 
           8150      7.06242e+7 
           8170      7.00361e+7 
           8190       6.9335e+7 
           8210      6.86511e+7 
           8230      6.82011e+7 
           8250      6.76051e+7 
           8270      6.66946e+7 
           8290      6.63677e+7 
           8310      6.58141e+7 
           8330      6.51835e+7 
           8350      6.42881e+7 
           8370      6.39436e+7 
           8390      6.34732e+7 
           8410      6.29107e+7 
           8430      6.23156e+7 
           8450      6.13298e+7 
           8470      6.12296e+7 
           8490      6.05442e+7 
           8510      6.01143e+7 
           8530      5.94444e+7 
           8550      5.88214e+7 
           8570      5.87216e+7 
