# Kurucz ODFNEW /NOVER (2003)
# teff = 25000 K (value for the effective temperature for the model. Temperatures are given in K)
# logg = 4 log(cm/s2) (value for Log(G) for the model.)
# meta = 0.5  (value for the Metallicity for the model.)
# lh = 1.25  (l/Hp where l is the  mixing length of the convective element and Hp is the pressure scale height)
# vtur = 2 km/s (Microturbulence velocity)
# alpha = 0  (Alpha)
#
# column 1: WAVELENGTH (ANGSTROM), Wavelength in Angstrom
# column 2: FLUX (ERG/CM2/S/A), Flux in erg/cm2/s/A
          147.2     2.98319e-14 
            151     1.23915e-13 
          155.2     5.53277e-13 
          158.8     1.87891e-12 
            162     5.33815e-12 
            166     1.86765e-11 
          170.3     6.71881e-11 
          173.4      1.6401e-10 
          176.8      4.2009e-10 
          180.2      1.04063e-9 
          181.7      1.53591e-9 
          186.1      4.66827e-9 
            191      1.52371e-8 
          193.9       2.9848e-8 
          198.4      8.16941e-8 
          201.8      1.69996e-7 
            205      3.31773e-7 
          210.5      1.00274e-6 
          216.2      2.98208e-6 
          219.8      5.77516e-6 
            223      1.02195e-5 
          226.8      1.97841e-5 
            230     0.000791559 
            234      0.00179854 
            240      0.00424121 
          246.5       0.0103473 
          252.4       0.0225763 
          256.8       0.0378659 
            260       0.0626954 
            264        0.100036 
          268.5        0.168371 
          273.5        0.292153 
          278.5        0.497224 
            284        0.951772 
            290         1.69958 
            296         2.98822 
            301         4.65085 
            308          9.0783 
            318          21.698 
            328         45.4944 
            338         97.7009 
            348         193.535 
            357         1026.09 
            366         2144.91 
            375         3209.94 
            385         5373.97 
            395         10621.3 
            405         16060.5 
            414         24085.7 
            422         35539.7 
            430         51798.8 
            441         78016.8 
            451          104830 
            460          138286 
            470          197745 
            480          270905 
            490          368696 
            500          479230 
            506      1.95916e+6 
            512      2.40529e+7 
            520      2.63975e+7 
            530      2.91137e+7 
            540      3.06797e+7 
            550      4.78888e+7 
            560      5.75353e+7 
            570      6.75319e+7 
            580      6.37215e+7 
            590      8.41564e+7 
            600       9.0999e+7 
            610      1.07734e+8 
            620      1.17076e+8 
            630      1.17556e+8 
            640      9.77602e+7 
            650      6.06958e+7 
            658      1.04371e+8 
            665      1.43067e+8 
            675      1.59853e+8 
            685      1.58327e+8 
            695      2.26977e+8 
            705      2.23866e+8 
            716      2.58494e+8 
            726      2.61614e+8 
            735       2.7199e+8 
            745      3.13907e+8 
            755      3.32413e+8 
            765      3.55213e+8 
            775      3.78056e+8 
            785      4.04103e+8 
            795       4.1385e+8 
            805      4.23647e+8 
            815      4.31617e+8 
            825      4.75732e+8 
            835      3.81952e+8 
            845       4.7433e+8 
            855      4.74374e+8 
            865      5.07979e+8 
            875       5.4067e+8 
            885      5.87731e+8 
            895      6.12672e+8 
            905      5.88444e+8 
            915      8.35647e+8 
            925      5.60851e+9 
            935     1.19777e+10 
            945     2.05019e+10 
            955     2.53459e+10 
            965       2.645e+10 
            975      3.94141e+9 
            985     1.76168e+10 
            995     2.02881e+10 
           1005      2.6091e+10 
           1015     2.76028e+10 
           1025     1.68154e+10 
           1035     2.11051e+10 
           1045     3.41564e+10 
           1055      3.0794e+10 
           1065     2.30696e+10 
           1075     2.76207e+10 
           1085     2.44162e+10 
           1095     2.80131e+10 
           1105     2.47649e+10 
           1115     2.31009e+10 
           1125     1.68013e+10 
           1135     2.50239e+10 
           1145      2.2776e+10 
           1155     2.31283e+10 
           1165     2.24182e+10 
           1175     1.07868e+10 
           1185     2.08359e+10 
           1195     1.93867e+10 
           1205     1.17111e+10 
           1215     1.18902e+10 
           1225     1.84995e+10 
           1235     2.17211e+10 
           1245     2.05207e+10 
           1255     2.02395e+10 
           1265      2.1055e+10 
           1275     2.19351e+10 
           1285      2.2046e+10 
           1295     1.38395e+10 
           1305     1.54337e+10 
           1315      2.1444e+10 
           1325     1.96887e+10 
           1335     1.88622e+10 
           1345     1.95243e+10 
           1355     1.90227e+10 
           1365     1.68683e+10 
           1375     1.61563e+10 
           1385     1.52575e+10 
           1395      9.50233e+9 
           1405     1.08422e+10 
           1415     1.30655e+10 
           1425     1.30366e+10 
           1435     1.37993e+10 
           1442     1.41793e+10 
           1447     1.39336e+10 
           1455     1.33051e+10 
           1465     1.18185e+10 
           1475     1.25182e+10 
           1485     1.23891e+10 
           1495     1.20387e+10 
           1505     1.05159e+10 
           1512      9.24791e+9 
           1517      9.63625e+9 
           1525     1.00872e+10 
           1535      8.12257e+9 
           1545      7.59511e+9 
           1555      7.56474e+9 
           1565      8.44649e+9 
           1575      9.15191e+9 
           1585      9.41019e+9 
           1595      9.13175e+9 
           1605       9.5657e+9 
           1615      9.32368e+9 
           1625      9.10185e+9 
           1635      9.93436e+9 
           1645      9.99967e+9 
           1655      9.82101e+9 
           1665     1.01339e+10 
           1672       9.4292e+9 
           1677     1.07828e+10 
           1685     1.03589e+10 
           1695      9.60868e+9 
           1705      9.45185e+9 
           1715      8.74289e+9 
           1725      8.60054e+9 
           1735      9.13344e+9 
           1745      8.88802e+9 
           1755      8.96119e+9 
           1765      8.90601e+9 
           1775      8.12689e+9 
           1785      8.43171e+9 
           1795      8.80665e+9 
           1805      8.95414e+9 
           1815      7.66113e+9 
           1825      8.10902e+9 
           1835      7.83337e+9 
           1845      7.01427e+9 
           1855      7.18069e+9 
           1865      7.26971e+9 
           1875      7.76171e+9 
           1885      6.73331e+9 
           1895      6.23608e+9 
           1905       6.9695e+9 
           1915      6.34062e+9 
           1925      5.95244e+9 
           1935      6.52626e+9 
           1945      6.65899e+9 
           1955      5.84636e+9 
           1967      6.58176e+9 
           1976      6.86166e+9 
           1984      6.33163e+9 
           1995      6.21391e+9 
           2005      6.63124e+9 
           2015      6.47976e+9 
           2025      6.69943e+9 
           2035      5.98422e+9 
           2045      6.21321e+9 
           2055      5.85992e+9 
           2065      5.78679e+9 
           2074      6.20357e+9 
           2078      5.41545e+9 
           2085      5.91028e+9 
           2095      5.57151e+9 
           2105      5.83328e+9 
           2115      5.90382e+9 
           2125      5.92147e+9 
           2135      5.82067e+9 
           2145       5.4612e+9 
           2155      5.77276e+9 
           2165       5.7742e+9 
           2175      5.72465e+9 
           2185       5.4336e+9 
           2195       5.5911e+9 
           2205      5.60326e+9 
           2215      5.47292e+9 
           2225      5.30924e+9 
           2235      5.23053e+9 
           2245      5.30289e+9 
           2255      5.07697e+9 
           2265      5.19989e+9 
           2275      5.10434e+9 
           2285      5.12059e+9 
           2295      4.43955e+9 
           2305      4.90696e+9 
           2315      4.72843e+9 
           2325      4.69139e+9 
           2335       4.5131e+9 
           2345      4.57677e+9 
           2355      4.55966e+9 
           2365      4.51949e+9 
           2375      4.40878e+9 
           2385      4.37864e+9 
           2395      4.33467e+9 
           2405      4.23558e+9 
           2415      4.22654e+9 
           2425      4.21828e+9 
           2435      4.06521e+9 
           2445      4.10815e+9 
           2455      4.12763e+9 
           2465      4.03109e+9 
           2475      3.95725e+9 
           2485      3.84732e+9 
           2495      3.07138e+9 
           2505      3.69434e+9 
           2513      3.55279e+9 
           2518      3.73157e+9 
           2525      3.68024e+9 
           2535      3.64141e+9 
           2545      3.47559e+9 
           2555      3.56166e+9 
           2565      3.50188e+9 
           2575      3.53797e+9 
           2585      3.47682e+9 
           2595       3.4484e+9 
           2605       3.4172e+9 
           2615      3.35652e+9 
           2625      3.34258e+9 
           2635      3.31862e+9 
           2645      3.27445e+9 
           2655      3.27527e+9 
           2665      3.07941e+9 
           2675      3.12803e+9 
           2685      3.12024e+9 
           2695      2.98182e+9 
           2705      2.87558e+9 
           2715      2.90744e+9 
           2725       2.9423e+9 
           2735       2.9171e+9 
           2745      2.83144e+9 
           2755      2.82442e+9 
           2765      2.80077e+9 
           2775      2.84329e+9 
           2785      2.78716e+9 
           2795      2.67028e+9 
           2805      2.70356e+9 
           2815      2.72056e+9 
           2825      2.68892e+9 
           2835      2.55552e+9 
           2845      2.59642e+9 
           2855      2.54267e+9 
           2865      2.56089e+9 
           2875      2.53244e+9 
           2885      2.49876e+9 
           2895      2.44939e+9 
           2910      2.40093e+9 
           2930      2.38779e+9 
           2950      2.30843e+9 
           2970       2.2762e+9 
           2990      2.22365e+9 
           3010      2.12301e+9 
           3030      2.13361e+9 
           3050      2.10393e+9 
           3070      2.07833e+9 
           3090      1.97749e+9 
           3110      1.98435e+9 
           3130      1.92908e+9 
           3150      1.90413e+9 
           3170      1.84475e+9 
           3190      1.81625e+9 
           3210      1.79149e+9 
           3230      1.74349e+9 
           3250       1.7232e+9 
           3270      1.67939e+9 
           3290      1.64699e+9 
           3310      1.61649e+9 
           3330      1.57838e+9 
           3350      1.55418e+9 
           3370      1.51977e+9 
           3390      1.50068e+9 
           3410      1.47253e+9 
           3430      1.44103e+9 
           3450      1.40918e+9 
           3470      1.38359e+9 
           3490      1.35436e+9 
           3510      1.33044e+9 
           3530      1.31661e+9 
           3550      1.29088e+9 
           3570      1.27155e+9 
           3590      1.22907e+9 
           3610      1.20869e+9 
           3630      1.19481e+9 
           3640      1.19411e+9 
           3650      1.17395e+9 
           3670      1.16208e+9 
           3690      1.13762e+9 
           3710       1.0911e+9 
           3730      1.05086e+9 
           3750      1.09444e+9 
           3770      1.08195e+9 
           3790       1.1269e+9 
           3810      1.16558e+9 
           3830      1.02716e+9 
           3850      1.16581e+9 
           3870       1.1435e+9 
           3890      9.72539e+8 
           3910      1.15076e+9 
           3930      1.10734e+9 
           3950      1.09316e+9 
           3970      9.01996e+8 
           3990      1.05985e+9 
           4010      1.05373e+9 
           4030      9.97327e+8 
           4050      1.01196e+9 
           4070      9.55964e+8 
           4090      9.03082e+8 
           4110      8.18621e+8 
           4130      9.19245e+8 
           4150        9.136e+8 
           4170      9.12484e+8 
           4190      9.04673e+8 
           4210      8.97947e+8 
           4230      8.75664e+8 
           4250      8.46669e+8 
           4270      8.22309e+8 
           4290      8.10832e+8 
           4310      7.79616e+8 
           4330      7.26397e+8 
           4350      6.75774e+8 
           4370      7.41883e+8 
           4390      7.49096e+8 
           4410      7.41038e+8 
           4430      7.36071e+8 
           4450      7.24142e+8 
           4470      6.95881e+8 
           4490      7.04084e+8 
           4510       6.9915e+8 
           4530      6.87978e+8 
           4550      6.80342e+8 
           4570      6.67997e+8 
           4590       6.5643e+8 
           4610      6.36849e+8 
           4630      6.27633e+8 
           4650      6.05729e+8 
           4670      6.11037e+8 
           4690      6.07824e+8 
           4710      5.81496e+8 
           4730      5.85194e+8 
           4750      5.75868e+8 
           4770      5.78963e+8 
           4790      5.67046e+8 
           4810      5.53531e+8 
           4830      5.44144e+8 
           4850      5.14264e+8 
           4870      4.61776e+8 
           4890       5.2227e+8 
           4910       5.1679e+8 
           4930      4.99539e+8 
           4950        4.994e+8 
           4970       4.9821e+8 
           4990      4.88914e+8 
           5010      4.64096e+8 
           5030       4.7295e+8 
           5050        4.615e+8 
           5070      4.61765e+8 
           5090      4.53359e+8 
           5110      4.44739e+8 
           5130      4.32173e+8 
           5150       4.2959e+8 
           5170      4.28077e+8 
           5190      4.23078e+8 
           5210      4.15048e+8 
           5230      4.10392e+8 
           5250      4.05357e+8 
           5270      3.97742e+8 
           5290      3.94485e+8 
           5310      3.88325e+8 
           5330      3.83428e+8 
           5350      3.77341e+8 
           5370        3.737e+8 
           5390      3.68131e+8 
           5410      3.63972e+8 
           5430      3.58153e+8 
           5450      3.53119e+8 
           5470      3.48338e+8 
           5490      3.43843e+8 
           5510      3.40768e+8 
           5530       3.3455e+8 
           5550      3.32094e+8 
           5570        3.272e+8 
           5590      3.23597e+8 
           5610      3.18852e+8 
           5630      3.15355e+8 
           5650      3.08429e+8 
           5670      3.02636e+8 
           5690      2.97824e+8 
           5710      2.97036e+8 
           5730      2.94082e+8 
           5750      2.89021e+8 
           5770       2.8779e+8 
           5790      2.83535e+8 
           5810      2.80136e+8 
           5830      2.75501e+8 
           5850      2.72784e+8 
           5870      2.62379e+8 
           5890      2.62652e+8 
           5910      2.61169e+8 
           5930      2.57353e+8 
           5950      2.53796e+8 
           5970      2.53874e+8 
           5990      2.48275e+8 
           6010      2.47043e+8 
           6030      2.42941e+8 
           6050      2.40349e+8 
           6070      2.38369e+8 
           6090      2.35577e+8 
           6110      2.32695e+8 
           6130      2.30307e+8 
           6150      2.25385e+8 
           6170      2.23432e+8 
           6190      2.21705e+8 
           6210      2.19537e+8 
           6230      2.17188e+8 
           6250      2.13466e+8 
           6270      2.11407e+8 
           6290       2.0937e+8 
           6310      2.06569e+8 
           6330      2.04729e+8 
           6350      2.01181e+8 
           6370      1.99762e+8 
           6390      1.97415e+8 
           6410       1.9525e+8 
           6430      1.93354e+8 
           6450      1.90952e+8 
           6470      1.87713e+8 
           6490      1.85797e+8 
           6510       1.8416e+8 
           6530      1.81231e+8 
           6550      1.75094e+8 
           6570      1.54812e+8 
           6590      1.73279e+8 
           6610      1.73672e+8 
           6630      1.72248e+8 
           6650      1.70234e+8 
           6670      1.67039e+8 
           6690      1.65326e+8 
           6710      1.64986e+8 
           6730      1.62477e+8 
           6750      1.61499e+8 
           6770      1.59757e+8 
           6790      1.55794e+8 
           6810      1.55757e+8 
           6830      1.54087e+8 
           6850      1.52811e+8 
           6870      1.51141e+8 
           6890      1.49233e+8 
           6910      1.47345e+8 
           6930      1.46315e+8 
           6950       1.4485e+8 
           6970      1.43345e+8 
           6990      1.41732e+8 
           7010      1.40196e+8 
           7030      1.38675e+8 
           7050      1.37215e+8 
           7070      1.33478e+8 
           7090      1.34045e+8 
           7110       1.3081e+8 
           7130       1.2967e+8 
           7150      1.29822e+8 
           7170      1.28887e+8 
           7190      1.27668e+8 
           7210       1.2633e+8 
           7230      1.22519e+8 
           7250       1.2337e+8 
           7270      1.22436e+8 
           7290      1.20198e+8 
           7310      1.19922e+8 
           7330      1.18602e+8 
           7350      1.17539e+8 
           7370      1.16389e+8 
           7390      1.15208e+8 
           7410      1.14052e+8 
           7430       1.1279e+8 
           7450      1.11724e+8 
           7470      1.09756e+8 
           7490      1.09372e+8 
           7510      1.08323e+8 
           7530      1.07104e+8 
           7550      1.06306e+8 
           7570      1.05271e+8 
           7590      1.04188e+8 
           7610      1.02958e+8 
           7630      1.02115e+8 
           7650       1.0115e+8 
           7670      1.00194e+8 
           7690      9.92086e+7 
           7710      9.81875e+7 
           7730      9.71883e+7 
           7750      9.63863e+7 
           7770      9.47426e+7 
           7790      9.45485e+7 
           7810      9.35831e+7 
           7830      9.27492e+7 
           7850      9.17698e+7 
           7870      9.07322e+7 
           7890      8.95466e+7 
           7910      8.90342e+7 
           7930      8.81483e+7 
           7950      8.72344e+7 
           7970      8.65303e+7 
           7990      8.55547e+7 
           8010      8.48932e+7 
           8030      8.41027e+7 
           8050      8.34005e+7 
           8070      8.26868e+7 
           8090      8.18065e+7 
           8110      8.05558e+7 
           8130      8.04506e+7 
           8150      7.96422e+7 
           8170      7.90496e+7 
           8190      7.77541e+7 
           8210      7.70739e+7 
           8230      7.60602e+7 
           8250      7.60682e+7 
           8270      7.44173e+7 
           8290      7.45739e+7 
           8310      7.39917e+7 
           8330      7.33871e+7 
           8350      7.23498e+7 
           8370      7.18216e+7 
           8390      7.14047e+7 
           8410      7.06606e+7 
           8430      7.00554e+7 
           8450      6.86689e+7 
           8470      6.87021e+7 
           8490      6.80077e+7 
           8510       6.7137e+7 
           8530      6.69572e+7 
           8550       6.5325e+7 
           8570      6.64721e+7 
           8590      6.37991e+7 
