# Kurucz ODFNEW /NOVER (2003)
# teff = 24000 K (value for the effective temperature for the model. Temperatures are given in K)
# logg = 4.5 log(cm/s2) (value for Log(G) for the model.)
# meta = -1.5  (value for the Metallicity for the model.)
# lh = 1.25  (l/Hp where l is the  mixing length of the convective element and Hp is the pressure scale height)
# vtur = 2 km/s (Microturbulence velocity)
# alpha = 0  (Alpha)
#
# column 1: WAVELENGTH (ANGSTROM), Wavelength in Angstrom
# column 2: FLUX (ERG/CM2/S/A), Flux in erg/cm2/s/A
          147.2     3.29684e-15 
            151     1.65423e-14 
          155.2     9.01791e-14 
          158.8     3.60559e-13 
            162     1.17673e-12 
            166     4.85212e-12 
          170.3     2.07004e-11 
          173.4     5.63975e-11 
          176.8     1.62716e-10 
          180.2     4.51316e-10 
          181.7     6.99351e-10 
          186.1      2.42703e-9 
            191      9.06769e-9 
          193.9      1.91665e-8 
          198.4      5.85969e-8 
          201.8      1.31817e-7 
            205      2.75736e-7 
          210.5      9.29278e-7 
          216.2      3.06067e-6 
          219.8      6.28771e-6 
            223      1.16854e-5 
          226.8      2.38247e-5 
            230     0.000169941 
            234     0.000387235 
            240     0.000989634 
          246.5      0.00259193 
          252.4      0.00600111 
          256.8        0.010589 
            260       0.0164814 
            264       0.0273672 
          268.5       0.0474599 
          273.5       0.0855472 
          278.5         0.15112 
            284        0.275751 
            290        0.516581 
            296        0.940964 
            301         1.52208 
            308         2.84795 
            318          6.9576 
            328         15.6944 
            338         33.7475 
            348         69.1498 
            357         127.214 
            366          227.06 
            375         391.424 
            385           696.4 
            395         1198.27 
            405         2003.92 
            414         3113.26 
            422         4517.14 
            430         6448.61 
            441         10333.9 
            451         15500.7 
            460         21925.4 
            470           31721 
            480         45066.9 
            490         63061.8 
            500         86879.8 
            506          518269 
            512      1.67323e+6 
            520      2.06727e+6 
            530      2.77887e+6 
            540      3.03464e+6 
            550      4.15349e+6 
            560      4.86781e+6 
            570      5.86963e+6 
            580      5.95981e+6 
            590      7.68156e+6 
            600      9.20737e+6 
            610      1.07491e+7 
            620      1.22074e+7 
            630      1.40184e+7 
            640      1.54785e+7 
            650      1.75543e+7 
            658      1.96803e+7 
            665      2.13212e+7 
            675      2.33186e+7 
            685      2.57964e+7 
            695      2.95776e+7 
            705      3.23926e+7 
            716      3.61403e+7 
            726      3.94708e+7 
            735       4.3052e+7 
            745      4.73993e+7 
            755       5.1728e+7 
            765      5.60841e+7 
            775      6.10589e+7 
            785      6.61359e+7 
            795      7.09499e+7 
            805      7.63255e+7 
            815       8.1616e+7 
            825      8.78966e+7 
            835      9.23257e+7 
            845      9.94499e+7 
            855      1.05429e+8 
            865      1.12733e+8 
            875      1.20199e+8 
            885      1.27715e+8 
            895      1.34951e+8 
            905      1.40462e+8 
            915      2.01039e+8 
            925      1.02409e+9 
            935      3.03917e+9 
            945     1.05405e+10 
            955     1.71734e+10 
            965     2.34256e+10 
            975      7.47257e+9 
            985      2.8664e+10 
            995     2.80569e+10 
           1005     2.92976e+10 
           1015     2.50141e+10 
           1025      6.19369e+9 
           1035     2.10942e+10 
           1045     2.91669e+10 
           1055     2.84159e+10 
           1065     2.56388e+10 
           1075     2.69941e+10 
           1085     2.47371e+10 
           1095     2.63331e+10 
           1105     2.48698e+10 
           1115     2.46157e+10 
           1125     2.28292e+10 
           1135     2.37316e+10 
           1145       2.212e+10 
           1155     2.26573e+10 
           1165     2.23158e+10 
           1175     1.87423e+10 
           1185      2.1109e+10 
           1195     1.93084e+10 
           1205     1.53133e+10 
           1215      4.60989e+9 
           1225     1.50039e+10 
           1235     1.84002e+10 
           1245     1.84094e+10 
           1255     1.80555e+10 
           1265      1.7713e+10 
           1275     1.77298e+10 
           1285     1.73464e+10 
           1295     1.56652e+10 
           1305     1.56319e+10 
           1315     1.62585e+10 
           1325     1.56335e+10 
           1335     1.49468e+10 
           1345     1.50638e+10 
           1355     1.49881e+10 
           1365     1.44292e+10 
           1375     1.41791e+10 
           1385     1.39601e+10 
           1395     1.30371e+10 
           1405     1.30514e+10 
           1415      1.3048e+10 
           1425     1.28125e+10 
           1435     1.26462e+10 
           1442     1.25906e+10 
           1447     1.24242e+10 
           1455     1.22127e+10 
           1465     1.18808e+10 
           1475     1.16872e+10 
           1485     1.14278e+10 
           1495     1.12256e+10 
           1505     1.08034e+10 
           1512     1.05076e+10 
           1517     1.05275e+10 
           1525     1.03851e+10 
           1535      9.84759e+9 
           1545      9.83479e+9 
           1555      9.48451e+9 
           1565      9.59487e+9 
           1575      9.55406e+9 
           1585       9.3892e+9 
           1595      9.27036e+9 
           1605      8.96713e+9 
           1615      8.80587e+9 
           1625      8.75303e+9 
           1635      8.69928e+9 
           1645      8.45782e+9 
           1655      8.38067e+9 
           1665      8.31537e+9 
           1672      8.09954e+9 
           1677      8.20108e+9 
           1685      8.06819e+9 
           1695      7.87047e+9 
           1705      7.68045e+9 
           1715      7.47637e+9 
           1725      7.36867e+9 
           1735      7.31301e+9 
           1745      7.17178e+9 
           1755       7.1282e+9 
           1765      6.83929e+9 
           1775      6.79377e+9 
           1785      6.73927e+9 
           1795      6.68766e+9 
           1805      6.61619e+9 
           1815      6.41837e+9 
           1825      6.36598e+9 
           1835      6.25103e+9 
           1845      5.95978e+9 
           1855      5.83133e+9 
           1865      5.83438e+9 
           1875      5.85686e+9 
           1885      5.54795e+9 
           1895      5.34163e+9 
           1905      5.47349e+9 
           1915      5.27964e+9 
           1925      5.16485e+9 
           1935      5.20799e+9 
           1945      5.21841e+9 
           1955      4.95176e+9 
           1967      5.03427e+9 
           1976      5.07574e+9 
           1984      4.88788e+9 
           1995      4.74619e+9 
           2005      4.78322e+9 
           2015       4.7674e+9 
           2025      4.74993e+9 
           2035      4.59565e+9 
           2045      4.53649e+9 
           2055      4.41064e+9 
           2065      4.38861e+9 
           2074      4.44292e+9 
           2078      4.30997e+9 
           2085      4.30794e+9 
           2095      4.18889e+9 
           2105      4.20743e+9 
           2115      4.16883e+9 
           2125      4.15221e+9 
           2135      4.08167e+9 
           2145       3.9949e+9 
           2155      3.97519e+9 
           2165       3.9273e+9 
           2175      3.86674e+9 
           2185      3.82109e+9 
           2195      3.78057e+9 
           2205      3.72729e+9 
           2215      3.68012e+9 
           2225      3.62239e+9 
           2235       3.5739e+9 
           2245      3.53877e+9 
           2255      3.48442e+9 
           2265      3.44916e+9 
           2275      3.40384e+9 
           2285      3.36545e+9 
           2295      3.28254e+9 
           2305      3.27689e+9 
           2315      3.22741e+9 
           2325      3.18939e+9 
           2335      3.13802e+9 
           2345      3.09911e+9 
           2355      3.07258e+9 
           2365      3.02948e+9 
           2375      2.99266e+9 
           2385      2.95007e+9 
           2395      2.91623e+9 
           2405      2.88095e+9 
           2415      2.84306e+9 
           2425      2.81889e+9 
           2435      2.77863e+9 
           2445      2.74738e+9 
           2455      2.71867e+9 
           2465      2.68307e+9 
           2475      2.65178e+9 
           2485      2.61938e+9 
           2495      2.55007e+9 
           2505      2.55491e+9 
           2513      2.50418e+9 
           2518      2.51689e+9 
           2525      2.49474e+9 
           2535      2.46302e+9 
           2545      2.42573e+9 
           2555      2.40937e+9 
           2565      2.38003e+9 
           2575      2.35687e+9 
           2585       2.3297e+9 
           2595      2.30227e+9 
           2605      2.29057e+9 
           2615      2.26636e+9 
           2625      2.24175e+9 
           2635       2.2131e+9 
           2645      2.19063e+9 
           2655      2.16299e+9 
           2665      2.13114e+9 
           2675      2.10634e+9 
           2685      2.09831e+9 
           2695      2.05439e+9 
           2705      2.05005e+9 
           2715      2.02725e+9 
           2725      1.98633e+9 
           2735      1.98336e+9 
           2745      1.95224e+9 
           2755      1.93377e+9 
           2765      1.89931e+9 
           2775      1.89851e+9 
           2785      1.87689e+9 
           2795       1.8318e+9 
           2805        1.827e+9 
           2815      1.81765e+9 
           2825      1.77611e+9 
           2835      1.75497e+9 
           2845      1.75904e+9 
           2855      1.74036e+9 
           2865      1.72277e+9 
           2875      1.70425e+9 
           2885      1.68643e+9 
           2895       1.6686e+9 
           2910       1.6421e+9 
           2930      1.60738e+9 
           2950      1.56155e+9 
           2970      1.54268e+9 
           2990      1.51027e+9 
           3010      1.47971e+9 
           3030      1.45096e+9 
           3050      1.42183e+9 
           3070      1.39349e+9 
           3090      1.36443e+9 
           3110      1.33879e+9 
           3130      1.31374e+9 
           3150       1.2883e+9 
           3170      1.26258e+9 
           3190      1.22691e+9 
           3210      1.21434e+9 
           3230      1.19079e+9 
           3250      1.16805e+9 
           3270      1.14743e+9 
           3290      1.12409e+9 
           3310       1.1049e+9 
           3330      1.08433e+9 
           3350      1.06216e+9 
           3370      1.04465e+9 
           3390      1.02557e+9 
           3410       1.0069e+9 
           3430      9.83892e+8 
           3450      9.62421e+8 
           3470      9.48136e+8 
           3490      9.31145e+8 
           3510      9.16772e+8 
           3530      9.02664e+8 
           3550      8.87111e+8 
           3570      8.76993e+8 
           3590      8.55381e+8 
           3610      8.43183e+8 
           3630      8.26284e+8 
           3640      8.25503e+8 
           3650      8.11315e+8 
           3670       8.0121e+8 
           3690      7.86267e+8 
           3710      7.59146e+8 
           3730      7.27118e+8 
           3750      7.47833e+8 
           3770      7.44479e+8 
           3790      7.90408e+8 
           3810      8.29027e+8 
           3830      7.15917e+8 
           3850      8.60384e+8 
           3870      8.77297e+8 
           3890      6.74434e+8 
           3910       8.6523e+8 
           3930      8.58788e+8 
           3950      8.38692e+8 
           3970      6.28094e+8 
           3990      8.02012e+8 
           4010      8.05184e+8 
           4030      7.50518e+8 
           4050      7.89243e+8 
           4070      7.70156e+8 
           4090       6.9222e+8 
           4110      5.97273e+8 
           4130       7.2009e+8 
           4150      7.17148e+8 
           4170      7.13015e+8 
           4190      7.03756e+8 
           4210      6.92431e+8 
           4230      6.80824e+8 
           4250       6.6928e+8 
           4270      6.55483e+8 
           4290      6.45558e+8 
           4310      6.29745e+8 
           4330      5.55824e+8 
           4350      5.04277e+8 
           4370      5.97262e+8 
           4390      5.74416e+8 
           4410      5.86399e+8 
           4430      5.75185e+8 
           4450      5.68866e+8 
           4470      5.28755e+8 
           4490      5.50011e+8 
           4510      5.43125e+8 
           4530      5.34558e+8 
           4550      5.26175e+8 
           4570      5.17972e+8 
           4590      5.10159e+8 
           4610      5.02321e+8 
           4630      4.94617e+8 
           4650      4.86416e+8 
           4670      4.79789e+8 
           4690      4.72691e+8 
           4710      4.58547e+8 
           4730      4.58095e+8 
           4750      4.50907e+8 
           4770      4.45262e+8 
           4790      4.38399e+8 
           4810      4.30544e+8 
           4830      4.20736e+8 
           4850      3.79716e+8 
           4870      3.36893e+8 
           4890      4.00297e+8 
           4910       3.9909e+8 
           4930      3.83148e+8 
           4950      3.90067e+8 
           4970      3.84647e+8 
           4990      3.79149e+8 
           5010      3.68083e+8 
           5030      3.68437e+8 
           5050      3.60487e+8 
           5070       3.5822e+8 
           5090      3.53201e+8 
           5110      3.48277e+8 
           5130      3.43334e+8 
           5150      3.38584e+8 
           5170      3.34039e+8 
           5190      3.29455e+8 
           5210      3.24835e+8 
           5230      3.20523e+8 
           5250      3.16159e+8 
           5270      3.11865e+8 
           5290      3.07667e+8 
           5310      3.03536e+8 
           5330      2.99459e+8 
           5350      2.95408e+8 
           5370      2.91553e+8 
           5390      2.87681e+8 
           5410      2.83872e+8 
           5430      2.80098e+8 
           5450      2.76435e+8 
           5470      2.72831e+8 
           5490      2.69284e+8 
           5510      2.65782e+8 
           5530      2.62335e+8 
           5550      2.58956e+8 
           5570      2.55618e+8 
           5590      2.52346e+8 
           5610      2.49113e+8 
           5630      2.45956e+8 
           5650      2.42754e+8 
           5670       2.3965e+8 
           5690      2.36595e+8 
           5710      2.33728e+8 
           5730      2.30802e+8 
           5750      2.27901e+8 
           5770       2.2509e+8 
           5790       2.2229e+8 
           5810      2.19546e+8 
           5830      2.16823e+8 
           5850      2.14165e+8 
           5870      2.04071e+8 
           5890      2.08345e+8 
           5910      2.06409e+8 
           5930      2.03883e+8 
           5950      2.01398e+8 
           5970      1.99004e+8 
           5990      1.96585e+8 
           6010      1.94247e+8 
           6030      1.91914e+8 
           6050      1.89638e+8 
           6070      1.87379e+8 
           6090      1.85154e+8 
           6110      1.82975e+8 
           6130      1.80821e+8 
           6150      1.78671e+8 
           6170      1.76604e+8 
           6190       1.7454e+8 
           6210      1.72509e+8 
           6230       1.7051e+8 
           6250      1.68534e+8 
           6270      1.66598e+8 
           6290      1.64673e+8 
           6310       1.6278e+8 
           6330      1.60935e+8 
           6350      1.59044e+8 
           6370      1.57267e+8 
           6390        1.555e+8 
           6410      1.53743e+8 
           6430      1.52013e+8 
           6450      1.50311e+8 
           6470      1.48601e+8 
           6490      1.46944e+8 
           6510      1.44967e+8 
           6530      1.42587e+8 
           6550      1.34596e+8 
           6570      1.18705e+8 
           6590       1.3655e+8 
           6610      1.36923e+8 
           6630      1.35884e+8 
           6650      1.34574e+8 
           6670       1.3149e+8 
           6690      1.30099e+8 
           6710      1.30245e+8 
           6730      1.28832e+8 
           6750      1.27449e+8 
           6770      1.26081e+8 
           6790      1.24686e+8 
           6810      1.23386e+8 
           6830      1.22075e+8 
           6850      1.20785e+8 
           6870        1.195e+8 
           6890      1.18236e+8 
           6910      1.16992e+8 
           6930      1.15761e+8 
           6950      1.14549e+8 
           6970       1.1335e+8 
           6990      1.12163e+8 
           7010      1.11002e+8 
           7030      1.09846e+8 
           7050      1.08708e+8 
           7070      1.05712e+8 
           7090       1.0648e+8 
           7110       1.0539e+8 
           7130      1.04311e+8 
           7150      1.03242e+8 
           7170      1.02176e+8 
           7190      1.01156e+8 
           7210      1.00132e+8 
           7230      9.88653e+7 
           7250      9.81199e+7 
           7270      9.71317e+7 
           7290      9.53093e+7 
           7310      9.51833e+7 
           7330      9.42439e+7 
           7350      9.33063e+7 
           7370      9.23844e+7 
           7390      9.14643e+7 
           7410      9.05664e+7 
           7430        8.967e+7 
           7450      8.88023e+7 
           7470      8.79291e+7 
           7490      8.70707e+7 
           7510      8.61867e+7 
           7530       8.5384e+7 
           7550      8.45555e+7 
           7570      8.37346e+7 
           7590      8.29277e+7 
           7610      8.21281e+7 
           7630      8.13357e+7 
           7650      8.05569e+7 
           7670      7.97851e+7 
           7690      7.90267e+7 
           7710       7.8275e+7 
           7730        7.753e+7 
           7750      7.67916e+7 
           7770      7.60411e+7 
           7790      7.53532e+7 
           7810      7.45972e+7 
           7830      7.39462e+7 
           7850      7.33254e+7 
           7870       7.2643e+7 
           7890       7.1912e+7 
           7910       7.1302e+7 
           7930      7.06432e+7 
           7950      6.99306e+7 
           7970       6.9159e+7 
           7990      6.85358e+7 
           8010      6.78887e+7 
           8030      6.72588e+7 
           8050       6.6646e+7 
           8070      6.60557e+7 
           8090      6.53727e+7 
           8110      6.48788e+7 
           8130      6.43263e+7 
           8150      6.36763e+7 
           8170        6.319e+7 
           8190      6.25391e+7 
           8210      6.18268e+7 
           8230      6.14488e+7 
           8250      6.09243e+7 
           8270      6.00736e+7 
           8290      5.98061e+7 
           8310      5.93058e+7 
           8330      5.87444e+7 
           8350      5.79284e+7 
           8370      5.76197e+7 
           8390      5.72115e+7 
           8410      5.67053e+7 
           8430      5.61556e+7 
           8450      5.52623e+7 
           8470      5.51486e+7 
           8490      5.45389e+7 
           8510      5.40696e+7 
           8530      5.35885e+7 
           8550      5.26939e+7 
           8570      5.31664e+7 
