# Kurucz ODFNEW /NOVER (2003)
# teff = 29000 K (value for the effective temperature for the model. Temperatures are given in K)
# logg = 4 log(cm/s2) (value for Log(G) for the model.)
# meta = -1  (value for the Metallicity for the model.)
# lh = 1.25  (l/Hp where l is the  mixing length of the convective element and Hp is the pressure scale height)
# vtur = 2 km/s (Microturbulence velocity)
# alpha = 0.4  (Alpha)
#
# column 1: WAVELENGTH (ANGSTROM), Wavelength in Angstrom
# column 2: FLUX (ERG/CM2/S/A), Flux in erg/cm2/s/A
          147.2     4.80182e-10 
            151      1.70595e-9 
          155.2      6.45211e-9 
          158.8      1.90983e-8 
            162      4.81649e-8 
            166      1.45587e-7 
          170.3      4.50848e-7 
          173.4      9.83673e-7 
          176.8      2.24098e-6 
          180.2      4.94683e-6 
          181.7      6.94718e-6 
          186.1      1.82321e-5 
            191      5.05999e-5 
          193.9      9.02815e-5 
          198.4     0.000214213 
          201.8     0.000400752 
            205     0.000708565 
          210.5      0.00181043 
          216.2      0.00454252 
          219.8       0.0079187 
            223       0.0127763 
          226.8       0.0221893 
            230          8.0096 
            234         19.0649 
            240         36.5565 
          246.5         73.1173 
          252.4         133.748 
          256.8           181.4 
            260         284.241 
            264         391.378 
          268.5         599.487 
          273.5         915.153 
          278.5         1338.77 
            284         2334.94 
            290         3610.87 
            296         5434.06 
            301         7311.63 
            308         11669.5 
            318         25089.6 
            328         42675.5 
            338         76048.9 
            348          125838 
            357          273612 
            366          454052 
            375          627815 
            385          952975 
            395       1.4515e+6 
            405      1.99838e+6 
            414      2.73014e+6 
            422      3.34539e+6 
            430      4.24366e+6 
            441      5.71929e+6 
            451      7.46084e+6 
            460      9.09759e+6 
            470       1.1606e+7 
            480      1.44047e+7 
            490      1.78182e+7 
            500      2.21577e+7 
            506      1.06752e+8 
            512      4.65523e+8 
            520      4.65687e+8 
            530      4.87039e+8 
            540      4.61145e+8 
            550      5.70474e+8 
            560      6.39563e+8 
            570      6.93848e+8 
            580      6.52087e+8 
            590      7.58123e+8 
            600      7.63808e+8 
            610      8.42574e+8 
            620       9.1645e+8 
            630      9.54685e+8 
            640      9.46238e+8 
            650       1.0083e+9 
            658      1.03848e+9 
            665      1.09869e+9 
            675      1.12111e+9 
            685      1.11198e+9 
            695      1.28292e+9 
            705      1.24337e+9 
            716       1.3941e+9 
            726      1.40957e+9 
            735      1.45859e+9 
            745      1.54486e+9 
            755      1.58404e+9 
            765      1.65028e+9 
            775      1.71654e+9 
            785       1.7989e+9 
            795      1.83171e+9 
            805      1.86951e+9 
            815      1.89639e+9 
            825      1.99251e+9 
            835      1.85186e+9 
            845      2.04973e+9 
            855      2.09209e+9 
            865      2.16459e+9 
            875      2.23171e+9 
            885      2.30965e+9 
            895      2.36984e+9 
            905      2.37811e+9 
            915      3.07598e+9 
            925     1.71888e+10 
            935     3.17828e+10 
            945     5.16691e+10 
            955     5.73753e+10 
            965     6.66945e+10 
            975     3.05243e+10 
            985     6.14121e+10 
            995     5.67401e+10 
           1005      5.8787e+10 
           1015      5.8501e+10 
           1025     3.79302e+10 
           1035     5.40463e+10 
           1045     6.18312e+10 
           1055     5.93276e+10 
           1065     5.25888e+10 
           1075     5.48065e+10 
           1085     5.08632e+10 
           1095     5.42994e+10 
           1105     5.15347e+10 
           1115     5.04447e+10 
           1125     4.39707e+10 
           1135     4.92178e+10 
           1145      4.5586e+10 
           1155     4.58675e+10 
           1165     4.54582e+10 
           1175      3.5241e+10 
           1185     4.23672e+10 
           1195     4.06243e+10 
           1205      3.6401e+10 
           1215     2.52916e+10 
           1225     3.78757e+10 
           1235     3.94754e+10 
           1245     3.82313e+10 
           1255     3.79378e+10 
           1265     3.76017e+10 
           1275     3.74522e+10 
           1285     3.67917e+10 
           1295     3.28628e+10 
           1305     3.34959e+10 
           1315     3.47618e+10 
           1325     3.34322e+10 
           1335     3.23815e+10 
           1345     3.20205e+10 
           1355       3.196e+10 
           1365     3.04966e+10 
           1375     3.00308e+10 
           1385     2.95024e+10 
           1395     2.43129e+10 
           1405     2.50539e+10 
           1415     2.74575e+10 
           1425     2.61125e+10 
           1435     2.64633e+10 
           1442     2.65893e+10 
           1447     2.61917e+10 
           1455     2.54845e+10 
           1465     2.48552e+10 
           1475     2.45124e+10 
           1485     2.41971e+10 
           1495     2.35491e+10 
           1505     2.25802e+10 
           1512      2.2103e+10 
           1517     2.20934e+10 
           1525     2.17246e+10 
           1535     1.98771e+10 
           1545     1.92356e+10 
           1555     1.86322e+10 
           1565     1.91701e+10 
           1575      1.9503e+10 
           1585     1.93027e+10 
           1595     1.91221e+10 
           1605     1.82016e+10 
           1615     1.76779e+10 
           1625     1.76636e+10 
           1635     1.77018e+10 
           1645     1.71531e+10 
           1655     1.73811e+10 
           1665     1.70343e+10 
           1672     1.65457e+10 
           1677     1.73755e+10 
           1685     1.69004e+10 
           1695     1.64288e+10 
           1705     1.60034e+10 
           1715     1.55086e+10 
           1725     1.51496e+10 
           1735     1.53058e+10 
           1745     1.50406e+10 
           1755     1.48464e+10 
           1765     1.44949e+10 
           1775     1.41658e+10 
           1785     1.40678e+10 
           1795     1.39548e+10 
           1805     1.38769e+10 
           1815     1.33825e+10 
           1825     1.32792e+10 
           1835     1.30946e+10 
           1845     1.23023e+10 
           1855     1.22105e+10 
           1865     1.22445e+10 
           1875     1.21743e+10 
           1885     1.14719e+10 
           1895     1.09955e+10 
           1905     1.13475e+10 
           1915     1.09303e+10 
           1925     1.05497e+10 
           1935     1.08112e+10 
           1945     1.08676e+10 
           1955     1.01515e+10 
           1967      1.0401e+10 
           1976      1.0592e+10 
           1984     1.01115e+10 
           1995      9.82614e+9 
           2005      9.91298e+9 
           2015      9.89834e+9 
           2025      9.87248e+9 
           2035      9.47185e+9 
           2045      9.35692e+9 
           2055      8.53047e+9 
           2065      8.38223e+9 
           2074      8.60444e+9 
           2078      8.38769e+9 
           2085      8.54456e+9 
           2095      8.52585e+9 
           2105      8.64237e+9 
           2115      8.60631e+9 
           2125      8.53301e+9 
           2135      8.40533e+9 
           2145      8.21497e+9 
           2155      8.19488e+9 
           2165       8.0438e+9 
           2175      7.96522e+9 
           2185      7.82722e+9 
           2195      7.78711e+9 
           2205      7.67379e+9 
           2215      7.52756e+9 
           2225      7.44194e+9 
           2235      7.32157e+9 
           2245      7.24969e+9 
           2255      7.09515e+9 
           2265      7.04769e+9 
           2275      6.95377e+9 
           2285      6.84051e+9 
           2295      6.52961e+9 
           2305      6.62078e+9 
           2315      6.55077e+9 
           2325      6.46806e+9 
           2335      6.36143e+9 
           2345      6.30702e+9 
           2355      6.22178e+9 
           2365      6.13971e+9 
           2375       6.0447e+9 
           2385      5.92849e+9 
           2395      5.86897e+9 
           2405       5.8088e+9 
           2415      5.71913e+9 
           2425      5.65604e+9 
           2435      5.55796e+9 
           2445      5.49892e+9 
           2455      5.43239e+9 
           2465      5.36584e+9 
           2475      5.28843e+9 
           2485      5.21191e+9 
           2495      4.60038e+9 
           2505      5.05068e+9 
           2513      4.91757e+9 
           2518      4.95005e+9 
           2525      4.95668e+9 
           2535      4.89919e+9 
           2545      4.78032e+9 
           2555       4.7473e+9 
           2565      4.70011e+9 
           2575      4.65112e+9 
           2585      4.59417e+9 
           2595      4.53601e+9 
           2605      4.50025e+9 
           2615      4.44072e+9 
           2625      4.38743e+9 
           2635       4.3288e+9 
           2645      4.27249e+9 
           2655      4.21584e+9 
           2665      4.14665e+9 
           2675      4.09728e+9 
           2685      4.07225e+9 
           2695      3.98503e+9 
           2705      3.95984e+9 
           2715       3.9159e+9 
           2725      3.84714e+9 
           2735      3.80651e+9 
           2745      3.77798e+9 
           2755      3.73447e+9 
           2765      3.66474e+9 
           2775       3.6528e+9 
           2785       3.6035e+9 
           2795      3.50702e+9 
           2805      3.50346e+9 
           2815      3.48289e+9 
           2825      3.41593e+9 
           2835      3.36849e+9 
           2845      3.36291e+9 
           2855      3.31623e+9 
           2865       3.2794e+9 
           2875      3.24209e+9 
           2885      3.20779e+9 
           2895      3.16913e+9 
           2910      3.10936e+9 
           2930      3.04428e+9 
           2950      2.95639e+9 
           2970      2.90851e+9 
           2990      2.84154e+9 
           3010      2.77018e+9 
           3030      2.71444e+9 
           3050      2.66013e+9 
           3070       2.6066e+9 
           3090      2.52739e+9 
           3110      2.49304e+9 
           3130      2.43594e+9 
           3150       2.3854e+9 
           3170      2.33575e+9 
           3190      2.27327e+9 
           3210      2.23732e+9 
           3230      2.19016e+9 
           3250      2.14845e+9 
           3270      2.10376e+9 
           3290      2.05911e+9 
           3310      2.02031e+9 
           3330      1.97702e+9 
           3350      1.93596e+9 
           3370      1.89879e+9 
           3390      1.86399e+9 
           3410      1.82732e+9 
           3430      1.78536e+9 
           3450      1.74443e+9 
           3470      1.71371e+9 
           3490      1.67987e+9 
           3510      1.65237e+9 
           3530      1.62408e+9 
           3550      1.59268e+9 
           3570        1.569e+9 
           3590      1.52912e+9 
           3610      1.50503e+9 
           3630      1.47311e+9 
           3640      1.46866e+9 
           3650        1.436e+9 
           3670      1.41647e+9 
           3690      1.38658e+9 
           3710      1.33937e+9 
           3730      1.29042e+9 
           3750      1.32569e+9 
           3770      1.31089e+9 
           3790      1.35272e+9 
           3810      1.39009e+9 
           3830      1.24371e+9 
           3850      1.39837e+9 
           3870      1.38548e+9 
           3890      1.17898e+9 
           3910      1.35906e+9 
           3930      1.32811e+9 
           3950      1.30685e+9 
           3970      1.09171e+9 
           3990      1.26156e+9 
           4010      1.24491e+9 
           4030      1.19002e+9 
           4050      1.21162e+9 
           4070      1.17165e+9 
           4090       1.1066e+9 
           4110      9.98086e+8 
           4130      1.10996e+9 
           4150      1.09885e+9 
           4170      1.08894e+9 
           4190      1.06954e+9 
           4210      1.05439e+9 
           4230      1.03669e+9 
           4250       1.0144e+9 
           4270      9.92316e+8 
           4290      9.78234e+8 
           4310      9.56765e+8 
           4330      8.94679e+8 
           4350      8.24156e+8 
           4370      9.11024e+8 
           4390      8.86928e+8 
           4410      8.85158e+8 
           4430       8.7371e+8 
           4450      8.60128e+8 
           4470      8.21546e+8 
           4490      8.32388e+8 
           4510      8.21299e+8 
           4530      8.08574e+8 
           4550      7.93365e+8 
           4570      7.80791e+8 
           4590      7.67814e+8 
           4610      7.56097e+8 
           4630      7.44763e+8 
           4650      7.22376e+8 
           4670      7.20037e+8 
           4690      7.08445e+8 
           4710      6.89298e+8 
           4730      6.90435e+8 
           4750      6.78973e+8 
           4770      6.70592e+8 
           4790      6.60275e+8 
           4810      6.49406e+8 
           4830      6.36272e+8 
           4850      6.02783e+8 
           4870      5.47679e+8 
           4890      6.08465e+8 
           4910      6.01908e+8 
           4930      5.82557e+8 
           4950       5.8321e+8 
           4970      5.76909e+8 
           4990       5.6836e+8 
           5010      5.53115e+8 
           5030      5.51628e+8 
           5050      5.41137e+8 
           5070      5.36144e+8 
           5090      5.28187e+8 
           5110      5.20656e+8 
           5130      5.13054e+8 
           5150      5.05753e+8 
           5170      4.98521e+8 
           5190      4.91805e+8 
           5210      4.84831e+8 
           5230      4.78155e+8 
           5250      4.71484e+8 
           5270      4.64833e+8 
           5290      4.58484e+8 
           5310      4.52111e+8 
           5330      4.45913e+8 
           5350      4.39743e+8 
           5370      4.33821e+8 
           5390      4.27716e+8 
           5410      4.21586e+8 
           5430      4.16339e+8 
           5450      4.10639e+8 
           5470      4.05136e+8 
           5490      3.99739e+8 
           5510      3.94448e+8 
           5530      3.89148e+8 
           5550      3.84037e+8 
           5570      3.78941e+8 
           5590      3.73919e+8 
           5610      3.69031e+8 
           5630      3.64227e+8 
           5650      3.59364e+8 
           5670      3.54478e+8 
           5690      3.49314e+8 
           5710      3.45392e+8 
           5730      3.41046e+8 
           5750      3.36182e+8 
           5770      3.32464e+8 
           5790      3.28204e+8 
           5810      3.24029e+8 
           5830      3.19781e+8 
           5850       3.1587e+8 
           5870      3.04199e+8 
           5890      3.07403e+8 
           5910      3.03989e+8 
           5930      3.00174e+8 
           5950      2.96435e+8 
           5970      2.92973e+8 
           5990      2.89214e+8 
           6010      2.85748e+8 
           6030      2.82188e+8 
           6050      2.78771e+8 
           6070      2.75403e+8 
           6090      2.72053e+8 
           6110      2.68762e+8 
           6130      2.65517e+8 
           6150      2.62199e+8 
           6170      2.59077e+8 
           6190      2.56039e+8 
           6210      2.52995e+8 
           6230      2.49976e+8 
           6250       2.4698e+8 
           6270      2.44065e+8 
           6290      2.41202e+8 
           6310      2.38322e+8 
           6330      2.35559e+8 
           6350      2.32732e+8 
           6370      2.30075e+8 
           6390      2.27392e+8 
           6410      2.24746e+8 
           6430      2.22166e+8 
           6450      2.19604e+8 
           6470      2.16961e+8 
           6490       2.1449e+8 
           6510      2.12099e+8 
           6530      2.09132e+8 
           6550      2.02439e+8 
           6570      1.82635e+8 
           6590       2.0116e+8 
           6610      2.00289e+8 
           6630      1.98097e+8 
           6650      1.95876e+8 
           6670      1.92171e+8 
           6690      1.90039e+8 
           6710       1.8946e+8 
           6730      1.87213e+8 
           6750       1.8532e+8 
           6770      1.83281e+8 
           6790      1.81108e+8 
           6810       1.7925e+8 
           6830      1.77249e+8 
           6850      1.75364e+8 
           6870      1.73451e+8 
           6890      1.71493e+8 
           6910      1.69586e+8 
           6930      1.67887e+8 
           6950      1.66088e+8 
           6970      1.64306e+8 
           6990      1.62542e+8 
           7010      1.60811e+8 
           7030      1.59089e+8 
           7050      1.57407e+8 
           7070      1.53564e+8 
           7090      1.54092e+8 
           7110      1.52452e+8 
           7130      1.50857e+8 
           7150      1.49292e+8 
           7170      1.47705e+8 
           7190      1.46192e+8 
           7210      1.44672e+8 
           7230      1.42669e+8 
           7250      1.41582e+8 
           7270      1.40227e+8 
           7290      1.37778e+8 
           7310      1.37343e+8 
           7330      1.35956e+8 
           7350      1.34562e+8 
           7370      1.33201e+8 
           7390      1.31847e+8 
           7410      1.30512e+8 
           7430      1.29189e+8 
           7450      1.27899e+8 
           7470      1.26459e+8 
           7490      1.25328e+8 
           7510      1.24053e+8 
           7530      1.22837e+8 
           7550      1.21625e+8 
           7570      1.20418e+8 
           7590      1.19222e+8 
           7610      1.17998e+8 
           7630      1.16882e+8 
           7650      1.15731e+8 
           7670      1.14603e+8 
           7690      1.13472e+8 
           7710      1.12371e+8 
           7730      1.11261e+8 
           7750      1.10198e+8 
           7770      1.09095e+8 
           7790      1.08076e+8 
           7810      1.06979e+8 
           7830      1.06004e+8 
           7850      1.05061e+8 
           7870       1.0401e+8 
           7890      1.02951e+8 
           7910      1.02082e+8 
           7930      1.01094e+8 
           7950      1.00115e+8 
           7970      9.90739e+7 
           7990      9.81596e+7 
           8010      9.71885e+7 
           8030      9.62843e+7 
           8050      9.54054e+7 
           8070      9.45397e+7 
           8090      9.35203e+7 
           8110      9.25441e+7 
           8130      9.19468e+7 
           8150      9.09743e+7 
           8170      9.02755e+7 
           8190      8.92454e+7 
           8210      8.82298e+7 
           8230      8.75902e+7 
           8250      8.68726e+7 
           8270      8.56102e+7 
           8290       8.5214e+7 
           8310      8.44825e+7 
           8330      8.36864e+7 
           8350      8.25782e+7 
           8370      8.20442e+7 
           8390      8.14127e+7 
           8410      8.06637e+7 
           8430      7.98785e+7 
           8450      7.87094e+7 
           8470      7.83592e+7 
           8490      7.76141e+7 
           8510      7.67555e+7 
           8530      7.63028e+7 
           8550      7.47558e+7 
           8570      7.56691e+7 
           8590      7.29737e+7 
