# Kurucz ODFNEW /NOVER (2003)
# teff = 24000 K (value for the effective temperature for the model. Temperatures are given in K)
# logg = 5 log(cm/s2) (value for Log(G) for the model.)
# meta = 0.5  (value for the Metallicity for the model.)
# lh = 1.25  (l/Hp where l is the  mixing length of the convective element and Hp is the pressure scale height)
# vtur = 2 km/s (Microturbulence velocity)
# alpha = 0.4  (Alpha)
#
# column 1: WAVELENGTH (ANGSTROM), Wavelength in Angstrom
# column 2: FLUX (ERG/CM2/S/A), Flux in erg/cm2/s/A
          147.2     3.61936e-14 
            151     1.50089e-13 
          155.2     6.67655e-13 
          158.8     2.25702e-12 
            162     6.38117e-12 
            166     2.21436e-11 
          170.3     7.85723e-11 
          173.4     1.90936e-10 
          176.8     4.84473e-10 
          180.2      1.18824e-9 
          181.7      1.74416e-9 
          186.1      5.22325e-9 
            191      1.67799e-8 
          193.9      3.25504e-8 
          198.4      8.77485e-8 
          201.8      1.80533e-7 
            205      3.48886e-7 
          210.5       1.0353e-6 
          216.2      3.02085e-6 
          219.8      5.78155e-6 
            223      1.01249e-5 
          226.8      1.93132e-5 
            230     0.000251476 
            234     0.000570674 
            240      0.00139514 
          246.5      0.00347786 
          252.4      0.00774857 
          256.8       0.0133408 
            260       0.0210077 
            264       0.0338384 
          268.5       0.0576233 
          273.5        0.100933 
          278.5        0.175638 
            284        0.335752 
            290        0.611681 
            296         1.09361 
            301         1.73988 
            308          3.4625 
            318         8.28757 
            328         17.8077 
            338         39.0203 
            348         78.9768 
            357          313.83 
            366         611.233 
            375         970.884 
            385         1664.75 
            395         2986.79 
            405         4700.59 
            414         7176.71 
            422         9992.16 
            430           14224 
            441         21885.4 
            451         31532.9 
            460         42560.1 
            470         60430.2 
            480         83243.5 
            490          115128 
            500          155228 
            506          667365 
            512       7.5852e+6 
            520      8.71716e+6 
            530      1.08456e+7 
            540      1.14975e+7 
            550      1.68526e+7 
            560      1.95597e+7 
            570      2.39117e+7 
            580      2.35299e+7 
            590      3.13472e+7 
            600      3.46957e+7 
            610      4.08054e+7 
            620      4.28495e+7 
            630      4.42005e+7 
            640      3.86589e+7 
            650      2.80313e+7 
            658      4.35702e+7 
            665      5.68998e+7 
            675      6.51567e+7 
            685      6.86973e+7 
            695      9.18143e+7 
            705      9.51857e+7 
            716      1.08465e+8 
            726      1.13145e+8 
            735      1.20141e+8 
            745      1.36757e+8 
            755      1.46971e+8 
            765      1.59504e+8 
            775      1.71604e+8 
            785      1.83913e+8 
            795      1.89341e+8 
            805      1.98229e+8 
            815      2.07364e+8 
            825      2.25476e+8 
            835      1.99851e+8 
            845      2.34994e+8 
            855      2.42758e+8 
            865      2.59785e+8 
            875      2.74808e+8 
            885      2.99556e+8 
            895      3.14562e+8 
            905      3.06452e+8 
            915      3.85497e+8 
            925       1.5989e+9 
            935      3.56969e+9 
            945      8.58649e+9 
            955     1.40452e+10 
            965     1.83938e+10 
            975       2.9343e+9 
            985     1.78326e+10 
            995     1.67465e+10 
           1005     2.14346e+10 
           1015     2.08055e+10 
           1025      6.63008e+9 
           1035     1.48831e+10 
           1045     2.90555e+10 
           1055     2.69141e+10 
           1065      1.8101e+10 
           1075     2.34708e+10 
           1085     2.15367e+10 
           1095     2.50364e+10 
           1105     2.05056e+10 
           1115     1.75525e+10 
           1125     1.40104e+10 
           1135     2.18784e+10 
           1145     1.75887e+10 
           1155     1.96364e+10 
           1165     1.99978e+10 
           1175     1.15265e+10 
           1185     1.96254e+10 
           1195     1.48204e+10 
           1205      6.76337e+9 
           1215      5.85373e+9 
           1225     1.21696e+10 
           1235     1.87875e+10 
           1245     1.89331e+10 
           1255     1.83482e+10 
           1265     1.84494e+10 
           1275     1.89942e+10 
           1285     1.94298e+10 
           1295      9.82537e+9 
           1305      9.91361e+9 
           1315     1.84876e+10 
           1325     1.67678e+10 
           1335     1.61988e+10 
           1345     1.64068e+10 
           1355     1.66153e+10 
           1365     1.37517e+10 
           1375     1.34679e+10 
           1385     1.31624e+10 
           1395      8.62014e+9 
           1405      9.85133e+9 
           1415     1.15253e+10 
           1425     1.19234e+10 
           1435     1.22858e+10 
           1442     1.30584e+10 
           1447     1.28652e+10 
           1455     1.24002e+10 
           1465     1.11827e+10 
           1475     1.14243e+10 
           1485     1.10696e+10 
           1495     1.09958e+10 
           1505      9.36624e+9 
           1512      8.59205e+9 
           1517      9.00976e+9 
           1525      9.46122e+9 
           1535      7.90465e+9 
           1545      7.73163e+9 
           1555      7.54495e+9 
           1565       8.0721e+9 
           1575      8.65758e+9 
           1585       8.6838e+9 
           1595      8.68202e+9 
           1605      8.96537e+9 
           1615      8.84053e+9 
           1625      8.53247e+9 
           1635      9.17533e+9 
           1645      9.19874e+9 
           1655      8.84859e+9 
           1665      9.30087e+9 
           1672      8.85729e+9 
           1677      9.52832e+9 
           1685      9.41616e+9 
           1695      8.80252e+9 
           1705       8.4142e+9 
           1715       7.9093e+9 
           1725      7.71266e+9 
           1735       8.2057e+9 
           1745      7.96631e+9 
           1755      8.03773e+9 
           1765      7.76502e+9 
           1775      7.28833e+9 
           1785      7.40222e+9 
           1795      7.90997e+9 
           1805      7.98885e+9 
           1815      6.95324e+9 
           1825      7.35344e+9 
           1835      6.93921e+9 
           1845      6.27376e+9 
           1855      6.27965e+9 
           1865      6.35535e+9 
           1875      6.85429e+9 
           1885      6.01913e+9 
           1895      5.63044e+9 
           1905       6.1903e+9 
           1915      5.67679e+9 
           1925      5.41342e+9 
           1935      5.78432e+9 
           1945      5.85396e+9 
           1955      5.29054e+9 
           1967      5.86775e+9 
           1976      6.14208e+9 
           1984      5.59191e+9 
           1995      5.52369e+9 
           2005      5.77967e+9 
           2015      5.52769e+9 
           2025      5.83933e+9 
           2035      5.30149e+9 
           2045       5.4548e+9 
           2055      5.22877e+9 
           2065      5.25556e+9 
           2074      5.39861e+9 
           2078      4.92941e+9 
           2085      5.25626e+9 
           2095      4.90612e+9 
           2105      5.10278e+9 
           2115      5.13532e+9 
           2125      5.17604e+9 
           2135      5.02551e+9 
           2145      4.80239e+9 
           2155      5.03082e+9 
           2165      4.99546e+9 
           2175      4.91802e+9 
           2185      4.72712e+9 
           2195      4.80738e+9 
           2205      4.77325e+9 
           2215      4.67174e+9 
           2225      4.49659e+9 
           2235      4.50245e+9 
           2245      4.53837e+9 
           2255      4.32411e+9 
           2265      4.45542e+9 
           2275      4.38234e+9 
           2285      4.38318e+9 
           2295      3.99888e+9 
           2305      4.18988e+9 
           2315      4.04656e+9 
           2325      3.99733e+9 
           2335      3.81323e+9 
           2345      3.84956e+9 
           2355      3.83004e+9 
           2365      3.76795e+9 
           2375       3.7262e+9 
           2385      3.69403e+9 
           2395      3.70396e+9 
           2405      3.57488e+9 
           2415       3.5806e+9 
           2425       3.5895e+9 
           2435      3.44527e+9 
           2445      3.47802e+9 
           2455      3.48212e+9 
           2465      3.41326e+9 
           2475      3.35492e+9 
           2485      3.31406e+9 
           2495      2.91917e+9 
           2505      3.21476e+9 
           2513      3.05838e+9 
           2518      3.19924e+9 
           2525       3.1209e+9 
           2535      3.09053e+9 
           2545      2.92594e+9 
           2555       3.0271e+9 
           2565      2.97714e+9 
           2575      3.02543e+9 
           2585      3.00291e+9 
           2595      2.97819e+9 
           2605      2.93694e+9 
           2615      2.90454e+9 
           2625      2.88038e+9 
           2635      2.86127e+9 
           2645      2.84232e+9 
           2655      2.83308e+9 
           2665      2.68036e+9 
           2675       2.7318e+9 
           2685      2.71562e+9 
           2695      2.61199e+9 
           2705      2.56012e+9 
           2715      2.56031e+9 
           2725      2.54734e+9 
           2735       2.5495e+9 
           2745      2.44781e+9 
           2755      2.45087e+9 
           2765      2.43189e+9 
           2775      2.47388e+9 
           2785      2.42667e+9 
           2795      2.28945e+9 
           2805      2.34617e+9 
           2815      2.36966e+9 
           2825      2.33006e+9 
           2835      2.21405e+9 
           2845      2.25432e+9 
           2855      2.22617e+9 
           2865      2.23939e+9 
           2875      2.20797e+9 
           2885      2.18047e+9 
           2895      2.15051e+9 
           2910      2.10157e+9 
           2930      2.07921e+9 
           2950      2.01488e+9 
           2970      1.99334e+9 
           2990      1.93997e+9 
           3010      1.87385e+9 
           3030      1.87074e+9 
           3050      1.83762e+9 
           3070      1.81512e+9 
           3090      1.73575e+9 
           3110       1.7302e+9 
           3130      1.68874e+9 
           3150      1.66368e+9 
           3170      1.61547e+9 
           3190       1.5775e+9 
           3210      1.56504e+9 
           3230      1.52881e+9 
           3250      1.50845e+9 
           3270      1.47628e+9 
           3290      1.44669e+9 
           3310      1.42187e+9 
           3330      1.39003e+9 
           3350      1.36536e+9 
           3370      1.33673e+9 
           3390      1.31871e+9 
           3410      1.29434e+9 
           3430      1.26568e+9 
           3450      1.23703e+9 
           3470      1.21467e+9 
           3490      1.19012e+9 
           3510      1.17097e+9 
           3530      1.15438e+9 
           3550      1.13334e+9 
           3570      1.12015e+9 
           3590      1.08043e+9 
           3610      1.06731e+9 
           3630      1.05063e+9 
           3640      1.05308e+9 
           3650      1.03646e+9 
           3670      1.02562e+9 
           3690      1.00949e+9 
           3710      9.69707e+8 
           3730      9.36645e+8 
           3750      9.29762e+8 
           3770      9.01475e+8 
           3790      9.41476e+8 
           3810      9.81576e+8 
           3830      8.49541e+8 
           3850      1.00254e+9 
           3870      1.01839e+9 
           3890      7.94159e+8 
           3910      1.02752e+9 
           3930      9.99016e+8 
           3950      9.83903e+8 
           3970      7.38907e+8 
           3990      9.41368e+8 
           4010      9.60279e+8 
           4030      8.86147e+8 
           4050      9.30311e+8 
           4070      8.71543e+8 
           4090      7.93541e+8 
           4110      6.95224e+8 
           4130      8.34278e+8 
           4150      8.36647e+8 
           4170      8.40751e+8 
           4190      8.32851e+8 
           4210      8.30016e+8 
           4230      8.08732e+8 
           4250      7.79009e+8 
           4270      7.51066e+8 
           4290        7.476e+8 
           4310      7.18978e+8 
           4330      6.38328e+8 
           4350      5.81046e+8 
           4370      6.80413e+8 
           4390      6.75928e+8 
           4410       6.8155e+8 
           4430      6.78097e+8 
           4450      6.68724e+8 
           4470      6.22914e+8 
           4490      6.42268e+8 
           4510      6.47549e+8 
           4530      6.34299e+8 
           4550       6.2686e+8 
           4570      6.16209e+8 
           4590      6.05682e+8 
           4610      5.88686e+8 
           4630      5.79112e+8 
           4650      5.63077e+8 
           4670      5.64518e+8 
           4690      5.61426e+8 
           4710      5.30652e+8 
           4730       5.3887e+8 
           4750      5.31036e+8 
           4770      5.34109e+8 
           4790      5.22073e+8 
           4810      5.05853e+8 
           4830      4.93017e+8 
           4850      4.44884e+8 
           4870      3.93314e+8 
           4890      4.73257e+8 
           4910      4.72613e+8 
           4930      4.51969e+8 
           4950      4.60209e+8 
           4970      4.59593e+8 
           4990       4.5109e+8 
           5010      4.26063e+8 
           5030      4.35442e+8 
           5050      4.20802e+8 
           5070      4.26444e+8 
           5090      4.17821e+8 
           5110       4.0994e+8 
           5130      3.98805e+8 
           5150      3.94975e+8 
           5170      3.95166e+8 
           5190      3.89763e+8 
           5210      3.79768e+8 
           5230      3.79747e+8 
           5250       3.7485e+8 
           5270       3.6767e+8 
           5290      3.65124e+8 
           5310      3.59466e+8 
           5330      3.53352e+8 
           5350      3.47029e+8 
           5370      3.45612e+8 
           5390      3.40627e+8 
           5410      3.35616e+8 
           5430      3.30146e+8 
           5450      3.25558e+8 
           5470      3.20336e+8 
           5490      3.18132e+8 
           5510      3.14623e+8 
           5530      3.09394e+8 
           5550      3.06435e+8 
           5570      3.01955e+8 
           5590      2.98942e+8 
           5610      2.94026e+8 
           5630      2.91441e+8 
           5650      2.83103e+8 
           5670      2.78508e+8 
           5690      2.76053e+8 
           5710      2.74631e+8 
           5730      2.72339e+8 
           5750      2.67781e+8 
           5770       2.6612e+8 
           5790      2.62543e+8 
           5810      2.58853e+8 
           5830      2.55173e+8 
           5850      2.52397e+8 
           5870      2.39211e+8 
           5890      2.42193e+8 
           5910      2.41668e+8 
           5930      2.39044e+8 
           5950      2.34811e+8 
           5970      2.34657e+8 
           5990      2.30174e+8 
           6010      2.28947e+8 
           6030      2.25524e+8 
           6050      2.23068e+8 
           6070      2.20691e+8 
           6090       2.1775e+8 
           6110      2.15389e+8 
           6130      2.13133e+8 
           6150      2.07606e+8 
           6170      2.06935e+8 
           6190      2.05433e+8 
           6210      2.03106e+8 
           6230      2.00843e+8 
           6250      1.97042e+8 
           6270      1.95413e+8 
           6290      1.93497e+8 
           6310      1.90749e+8 
           6330      1.89197e+8 
           6350      1.85083e+8 
           6370      1.84127e+8 
           6390      1.82321e+8 
           6410      1.80259e+8 
           6430      1.78793e+8 
           6450       1.7631e+8 
           6470      1.73232e+8 
           6490      1.71764e+8 
           6510      1.69599e+8 
           6530       1.6607e+8 
           6550       1.5553e+8 
           6570      1.35052e+8 
           6590      1.57786e+8 
           6610      1.59945e+8 
           6630      1.58973e+8 
           6650       1.5726e+8 
           6670      1.53439e+8 
           6690      1.52043e+8 
           6710      1.52477e+8 
           6730      1.50366e+8 
           6750      1.49385e+8 
           6770      1.47789e+8 
           6790      1.44125e+8 
           6810      1.44108e+8 
           6830      1.42329e+8 
           6850      1.41378e+8 
           6870      1.39822e+8 
           6890      1.38131e+8 
           6910      1.36464e+8 
           6930      1.35191e+8 
           6950      1.34032e+8 
           6970      1.32652e+8 
           6990       1.3113e+8 
           7010      1.29601e+8 
           7030       1.2827e+8 
           7050      1.26861e+8 
           7070      1.22866e+8 
           7090      1.23995e+8 
           7110      1.22061e+8 
           7130      1.20859e+8 
           7150       1.1994e+8 
           7170      1.19074e+8 
           7190      1.18092e+8 
           7210      1.16931e+8 
           7230      1.13286e+8 
           7250      1.14103e+8 
           7270      1.13348e+8 
           7290      1.11117e+8 
           7310      1.11018e+8 
           7330      1.09873e+8 
           7350      1.08843e+8 
           7370      1.07761e+8 
           7390      1.06668e+8 
           7410      1.05613e+8 
           7430      1.04185e+8 
           7450      1.03362e+8 
           7470      1.01506e+8 
           7490      1.01159e+8 
           7510      1.00307e+8 
           7530      9.91839e+7 
           7550      9.84344e+7 
           7570      9.75008e+7 
           7590      9.64318e+7 
           7610      9.53987e+7 
           7630      9.46145e+7 
           7650      9.37084e+7 
           7670      9.28233e+7 
           7690      9.19143e+7 
           7710      9.10198e+7 
           7730      9.00513e+7 
           7750      8.92923e+7 
           7770      8.72483e+7 
           7790      8.75893e+7 
           7810      8.67089e+7 
           7830      8.59347e+7 
           7850      8.46598e+7 
           7870      8.39138e+7 
           7890      8.26719e+7 
           7910      8.25855e+7 
           7930      8.18879e+7 
           7950      8.05525e+7 
           7970      8.02259e+7 
           7990       7.8851e+7 
           8010       7.8769e+7 
           8030      7.80149e+7 
           8050      7.72324e+7 
           8070      7.65724e+7 
           8090      7.58258e+7 
           8110      7.46447e+7 
           8130      7.44432e+7 
           8150      7.38117e+7 
           8170      7.31968e+7 
           8190      7.20759e+7 
           8210      7.14122e+7 
           8230      7.03814e+7 
           8250      7.04944e+7 
           8270      6.90577e+7 
           8290      6.91799e+7 
           8310      6.86018e+7 
           8330      6.80719e+7 
           8350      6.71194e+7 
           8370      6.66054e+7 
           8390      6.62722e+7 
           8410      6.56431e+7 
           8430      6.50458e+7 
           8450      6.35458e+7 
           8470       6.3955e+7 
           8490      6.31105e+7 
           8510      6.26841e+7 
           8530       6.2085e+7 
           8550      6.13311e+7 
           8570      6.12863e+7 
