# Kurucz ODFNEW /NOVER (2003)
# teff = 9000 K (value for the effective temperature for the model. Temperatures are given in K)
# logg = 1.5 log(cm/s2) (value for Log(G) for the model.)
# meta = 0.2  (value for the Metallicity for the model.)
# lh = 1.25  (l/Hp where l is the  mixing length of the convective element and Hp is the pressure scale height)
# vtur = 2 km/s (Microturbulence velocity)
# alpha = 0  (Alpha)
#
# column 1: WAVELENGTH (ANGSTROM), Wavelength in Angstrom
# column 2: FLUX (ERG/CM2/S/A), Flux in erg/cm2/s/A
            328      6.8042e-23 
            338     6.64727e-22 
            348     5.47624e-21 
            357     3.33517e-20 
            366     1.85313e-19 
            375     9.49264e-19 
            385     5.36228e-18 
            395      2.7789e-17 
            405      1.3339e-16 
            414     5.14245e-16 
            422     1.62869e-15 
            430     4.93293e-15 
            441     2.13759e-14 
            451     7.60586e-14 
            460     2.27587e-13 
            470     7.32636e-13 
            480     2.24991e-12 
            490     6.60649e-12 
            500     1.85607e-11 
            506     5.08307e-11 
            512     1.03101e-10 
            520     2.14864e-10 
            530     5.24699e-10 
            540      1.22423e-9 
            550      2.81719e-9 
            560      6.24967e-9 
            570      1.34737e-8 
            580       2.8024e-8 
            590      5.78579e-8 
            600      1.15593e-7 
            610      2.26382e-7 
            620      4.32935e-7 
            630      8.11178e-7 
            640      1.48815e-6 
            650      2.68579e-6 
            658      4.24756e-6 
            665      6.27676e-6 
            675      1.08349e-5 
            685      1.84043e-5 
            695       3.0788e-5 
            705      5.05762e-5 
            716      8.63238e-5 
            726     0.000138069 
            735     0.000208293 
            745     0.000324869 
            755     0.000500698 
            765     0.000762696 
            775      0.00114946 
            785      0.00171417 
            795      0.00252166 
            805      0.00368466 
            815      0.00533544 
            825      0.00764225 
            835       0.0108341 
            845       0.0152544 
            855       0.0212868 
            865       0.0294717 
            875       0.0404336 
            885       0.0551704 
            895       0.0746381 
            905        0.100076 
            915         23.9814 
            925         119.202 
            935         145.753 
            945         193.835 
            955         296.509 
            965         379.434 
            975         391.541 
            985         522.795 
            995         572.538 
           1005         747.696 
           1015          889.07 
           1025         920.896 
           1035          1209.4 
           1045         1548.14 
           1055         1846.78 
           1065         2011.58 
           1075         2463.55 
           1085         2870.18 
           1095         3070.55 
           1105         7096.93 
           1115           29465 
           1125         43446.9 
           1135         81342.4 
           1145           79103 
           1155         88905.3 
           1165         92676.2 
           1175         64975.5 
           1185         99025.9 
           1195         10254.9 
           1205           10364 
           1215         1740.93 
           1225         10785.3 
           1235         31875.3 
           1245          220369 
           1255       1.4576e+6 
           1265          796341 
           1275      5.15909e+6 
           1285      1.02438e+7 
           1295       7.5848e+6 
           1305      1.57295e+6 
           1315      9.35078e+6 
           1325      1.45995e+7 
           1335      7.81625e+6 
           1345      1.93772e+7 
           1355      2.05023e+7 
           1365       1.6015e+7 
           1375      1.89398e+7 
           1385      1.96807e+7 
           1395      2.12967e+7 
           1405      2.28592e+7 
           1415      2.07253e+7 
           1425      2.61756e+7 
           1435      2.27495e+7 
           1442      2.62994e+7 
           1447      3.08122e+7 
           1455      3.03925e+7 
           1465      2.80569e+7 
           1475      2.68345e+7 
           1485      3.24552e+7 
           1495      3.59128e+7 
           1505      3.64916e+7 
           1512      2.89351e+7 
           1517      3.46217e+7 
           1525      2.85411e+7 
           1535      2.57626e+7 
           1545      4.25872e+7 
           1555      3.44599e+7 
           1565      2.95234e+7 
           1575       3.3484e+7 
           1585      4.00689e+7 
           1595      4.65028e+7 
           1605      4.02684e+7 
           1615      3.92686e+7 
           1625      3.40175e+7 
           1635      3.62253e+7 
           1645      3.94546e+7 
           1655        3.286e+7 
           1665      3.73859e+7 
           1672       1.2242e+7 
           1677      3.70081e+7 
           1685      4.62323e+7 
           1695      4.46223e+7 
           1705      3.80821e+7 
           1715      3.77162e+7 
           1725      3.79727e+7 
           1735      4.46034e+7 
           1745       4.2374e+7 
           1755       5.2409e+7 
           1765       4.0413e+7 
           1775      4.84163e+7 
           1785      4.40444e+7 
           1795      5.77109e+7 
           1805      5.38957e+7 
           1815      5.38741e+7 
           1825      5.06849e+7 
           1835      4.72698e+7 
           1845      4.29351e+7 
           1855      4.38343e+7 
           1865      4.56877e+7 
           1875      5.12957e+7 
           1885      4.91244e+7 
           1895      4.95232e+7 
           1905      4.68858e+7 
           1915      4.84294e+7 
           1925      5.18691e+7 
           1935      5.03332e+7 
           1945      5.35345e+7 
           1955      5.29281e+7 
           1967      5.83669e+7 
           1976      5.92451e+7 
           1984      5.54989e+7 
           1995      5.32075e+7 
           2005      5.32713e+7 
           2015      4.81936e+7 
           2025      5.09499e+7 
           2035      5.11427e+7 
           2045      5.58019e+7 
           2055      4.95428e+7 
           2065      4.89987e+7 
           2074      5.69481e+7 
           2078      5.72604e+7 
           2085       5.6354e+7 
           2095      5.33384e+7 
           2105      5.08161e+7 
           2115      5.03527e+7 
           2125      5.24044e+7 
           2135      4.11564e+7 
           2145      4.77128e+7 
           2155      5.14196e+7 
           2165      4.72549e+7 
           2175      4.62671e+7 
           2185      4.56465e+7 
           2195      5.06174e+7 
           2205      4.73544e+7 
           2215      4.06774e+7 
           2225       3.8156e+7 
           2235      4.60411e+7 
           2245      4.08615e+7 
           2255      3.70704e+7 
           2265      3.95336e+7 
           2275      4.28342e+7 
           2285      4.52157e+7 
           2295       4.2239e+7 
           2305      4.00304e+7 
           2315      3.67821e+7 
           2325      3.60928e+7 
           2335      2.97294e+7 
           2345      2.56817e+7 
           2355      3.53313e+7 
           2365      2.54526e+7 
           2375      3.07194e+7 
           2385      2.25651e+7 
           2395       2.8095e+7 
           2405      2.60049e+7 
           2415      2.92116e+7 
           2425      3.63787e+7 
           2435      3.42792e+7 
           2445      3.77528e+7 
           2455      3.62239e+7 
           2465      3.51029e+7 
           2475      3.40283e+7 
           2485      3.68626e+7 
           2495       3.5065e+7 
           2505      4.17354e+7 
           2513      3.38141e+7 
           2518      3.66918e+7 
           2525      3.14419e+7 
           2535      3.19857e+7 
           2545      3.16127e+7 
           2555       3.5601e+7 
           2565      3.30055e+7 
           2575      3.75478e+7 
           2585      3.56539e+7 
           2595      3.31486e+7 
           2605      3.04497e+7 
           2615      2.96206e+7 
           2625       3.4691e+7 
           2635      3.63793e+7 
           2645      4.59381e+7 
           2655      4.51325e+7 
           2665      3.82664e+7 
           2675      4.15514e+7 
           2685      3.92243e+7 
           2695      3.87408e+7 
           2705      4.06374e+7 
           2715      3.71985e+7 
           2725       3.8171e+7 
           2735      4.20625e+7 
           2745      2.95568e+7 
           2755      3.13374e+7 
           2765      3.36184e+7 
           2775      3.94032e+7 
           2785      3.73455e+7 
           2795        2.007e+7 
           2805      2.50858e+7 
           2815      3.98574e+7 
           2825      4.35003e+7 
           2835      4.01004e+7 
           2845      3.85413e+7 
           2855      3.64605e+7 
           2865      4.12982e+7 
           2875      3.90543e+7 
           2885      3.99808e+7 
           2895      3.70961e+7 
           2910      4.41117e+7 
           2930      4.16062e+7 
           2950      4.14617e+7 
           2970      4.33408e+7 
           2990      4.40145e+7 
           3010      4.54773e+7 
           3030      4.45219e+7 
           3050      4.35471e+7 
           3070      4.31575e+7 
           3090      4.45971e+7 
           3110      4.25686e+7 
           3130      4.20917e+7 
           3150       4.3556e+7 
           3170      4.31431e+7 
           3190      4.09156e+7 
           3210      4.24146e+7 
           3230      4.12698e+7 
           3250      4.19868e+7 
           3270      4.18165e+7 
           3290      4.23503e+7 
           3310      4.27788e+7 
           3330      4.15123e+7 
           3350      4.08637e+7 
           3370      4.06853e+7 
           3390         4.06e+7 
           3410      4.17354e+7 
           3430      4.16439e+7 
           3450      4.13018e+7 
           3470      4.04735e+7 
           3490      4.00326e+7 
           3510       4.0917e+7 
           3530      4.13072e+7 
           3550      4.14171e+7 
           3570      4.03099e+7 
           3590       4.0166e+7 
           3610      4.01009e+7 
           3630      3.99376e+7 
           3640      3.94483e+7 
           3650      4.09602e+7 
           3670      4.00955e+7 
           3690      4.34304e+7 
           3710      5.84003e+7 
           3730      8.20725e+7 
           3750      1.01852e+8 
           3770      1.00991e+8 
           3790      1.09299e+8 
           3810      1.17072e+8 
           3830      1.00017e+8 
           3850      1.16263e+8 
           3870      1.16996e+8 
           3890      9.88323e+7 
           3910      1.13203e+8 
           3930      1.08766e+8 
           3950      1.13682e+8 
           3970      9.15262e+7 
           3990      1.11631e+8 
           4010       1.0919e+8 
           4030      1.07559e+8 
           4050      1.07012e+8 
           4070      1.04946e+8 
           4090      1.04143e+8 
           4110      8.86174e+7 
           4130       1.0106e+8 
           4150      1.02076e+8 
           4170      9.90586e+7 
           4190      9.88276e+7 
           4210      9.79036e+7 
           4230      9.66873e+7 
           4250      9.47554e+7 
           4270      9.35537e+7 
           4290      9.32607e+7 
           4310      9.03225e+7 
           4330      8.71793e+7 
           4350      7.76056e+7 
           4370      8.94611e+7 
           4390      8.69472e+7 
           4410      8.63405e+7 
           4430      8.64956e+7 
           4450       8.5444e+7 
           4470      8.43832e+7 
           4490      8.27044e+7 
           4510      8.26078e+7 
           4530      8.11456e+7 
           4550      7.89744e+7 
           4570      8.02437e+7 
           4590      7.77506e+7 
           4610      7.94209e+7 
           4630      7.64727e+7 
           4650      7.75778e+7 
           4670      7.62324e+7 
           4690      7.57326e+7 
           4710      7.36728e+7 
           4730      7.41069e+7 
           4750      7.35142e+7 
           4770      7.29106e+7 
           4790      7.20863e+7 
           4810      7.09556e+7 
           4830      6.98202e+7 
           4850      6.65693e+7 
           4870       5.6906e+7 
           4890      6.78936e+7 
           4910      6.72478e+7 
           4930      6.58586e+7 
           4950      6.57964e+7 
           4970      6.54311e+7 
           4990      6.42586e+7 
           5010      6.22832e+7 
           5030      6.22773e+7 
           5050      6.14422e+7 
           5070      6.13234e+7 
           5090      6.07261e+7 
           5110       5.9865e+7 
           5130      5.92875e+7 
           5150      5.81646e+7 
           5170      5.72193e+7 
           5190      5.68211e+7 
           5210      5.64939e+7 
           5230      5.52363e+7 
           5250      5.54887e+7 
           5270      5.40212e+7 
           5290      5.46285e+7 
           5310      5.31062e+7 
           5330      5.31234e+7 
           5350      5.32495e+7 
           5370       5.2493e+7 
           5390      5.19499e+7 
           5410      5.11688e+7 
           5430      5.06443e+7 
           5450      5.05726e+7 
           5470      4.99592e+7 
           5490      4.95571e+7 
           5510      4.88332e+7 
           5530      4.84301e+7 
           5550      4.81905e+7 
           5570      4.76411e+7 
           5590      4.72634e+7 
           5610      4.69606e+7 
           5630      4.64326e+7 
           5650      4.56949e+7 
           5670      4.53872e+7 
           5690      4.50966e+7 
           5710      4.46807e+7 
           5730      4.42282e+7 
           5750      4.37684e+7 
           5770      4.33625e+7 
           5790      4.27994e+7 
           5810      4.24394e+7 
           5830      4.19902e+7 
           5850      4.16915e+7 
           5870      4.11553e+7 
           5890      4.05592e+7 
           5910      4.04329e+7 
           5930      4.00975e+7 
           5950      3.94527e+7 
           5970      3.92364e+7 
           5990      3.87155e+7 
           6010      3.85385e+7 
           6030      3.82025e+7 
           6050      3.77537e+7 
           6070      3.74246e+7 
           6090      3.70451e+7 
           6110      3.67101e+7 
           6130      3.63427e+7 
           6150      3.54762e+7 
           6170      3.56691e+7 
           6190      3.53652e+7 
           6210      3.50675e+7 
           6230      3.46486e+7 
           6250      3.38524e+7 
           6270      3.41025e+7 
           6290      3.37612e+7 
           6310      3.32731e+7 
           6330      3.31065e+7 
           6350      3.23863e+7 
           6370      3.21851e+7 
           6390      3.21417e+7 
           6410      3.17727e+7 
           6430      3.15626e+7 
           6450      3.09769e+7 
           6470      3.10791e+7 
           6490      3.05533e+7 
           6510      3.03054e+7 
           6530      3.00255e+7 
           6550      2.85657e+7 
           6570      2.35578e+7 
           6590      2.91056e+7 
           6610      2.90548e+7 
           6630      2.88292e+7 
           6650      2.86271e+7 
           6670      2.83253e+7 
           6690      2.80829e+7 
           6710      2.78706e+7 
           6730      2.75646e+7 
           6750       2.7366e+7 
           6770      2.71396e+7 
           6790      2.68778e+7 
           6810      2.66519e+7 
           6830      2.63709e+7 
           6850      2.61577e+7 
           6870      2.59378e+7 
           6890      2.57271e+7 
           6910      2.54821e+7 
           6930      2.52372e+7 
           6950      2.50547e+7 
           6970      2.48251e+7 
           6990        2.464e+7 
           7010      2.43432e+7 
           7030      2.42148e+7 
           7050      2.39511e+7 
           7070      2.37705e+7 
           7090      2.36006e+7 
           7110      2.32877e+7 
           7130      2.31506e+7 
           7150      2.29763e+7 
           7170      2.27831e+7 
           7190      2.25822e+7 
           7210      2.24085e+7 
           7230      2.21434e+7 
           7250      2.19992e+7 
           7270      2.18334e+7 
           7290      2.16323e+7 
           7310      2.13998e+7 
           7330      2.12657e+7 
           7350      2.11236e+7 
           7370      2.09654e+7 
           7390      2.07776e+7 
           7410      2.05812e+7 
           7430       2.0345e+7 
           7450      2.02013e+7 
           7470      1.99717e+7 
           7490       1.9876e+7 
           7510      1.96781e+7 
           7530      1.95989e+7 
           7550      1.94536e+7 
           7570      1.92852e+7 
           7590      1.91288e+7 
           7610      1.89939e+7 
           7630      1.88291e+7 
           7650      1.86271e+7 
           7670      1.85057e+7 
           7690      1.83593e+7 
           7710      1.81634e+7 
           7730      1.80752e+7 
           7750      1.79293e+7 
           7770      1.74035e+7 
           7790      1.76426e+7 
           7810      1.75153e+7 
           7830      1.73571e+7 
           7850      1.71637e+7 
           7870      1.69987e+7 
           7890      1.68255e+7 
           7910      1.68025e+7 
           7930      1.66921e+7 
           7950      1.64658e+7 
           7970      1.64342e+7 
           7990      1.60871e+7 
           8010      1.61748e+7 
           8030      1.60435e+7 
           8050      1.59243e+7 
           8070      1.57911e+7 
           8090      1.56729e+7 
           8110      1.55407e+7 
           8130      1.54387e+7 
           8150      1.53204e+7 
           8170      1.52043e+7 
           8190       1.5006e+7 
           8210      1.48995e+7 
           8230      1.47704e+7 
           8250      1.47498e+7 
           8270       1.4721e+7 
           8290      1.45404e+7 
           8310      1.44154e+7 
           8330      1.41888e+7 
           8350      1.41895e+7 
           8370      1.38427e+7 
           8390      1.39213e+7 
           8410      1.38061e+7 
           8430        1.415e+7 
           8450      1.38266e+7 
           8470      1.34884e+7 
           8490      1.46186e+7 
           8510      1.32386e+7 
           8530      1.47972e+7 
           8550      1.29831e+7 
           8570      1.49256e+7 
           8590      1.41848e+7 
           8610      1.37688e+7 
           8630      1.50713e+7 
           8650      1.48904e+7 
           8670      1.26091e+7 
           8690       1.4625e+7 
           8710      1.47302e+7 
           8730      1.45362e+7 
           8750      1.23998e+7 
           8770      1.42717e+7 
           8790      1.43526e+7 
           8810      1.42157e+7 
           8830      1.40093e+7 
           8850      1.37113e+7 
           8870      1.19468e+7 
           8890      1.37727e+7 
           8910      1.36521e+7 
           8930      1.35263e+7 
           8950       1.3528e+7 
           8970      1.34289e+7 
           8990      1.32671e+7 
           9010       1.1597e+7 
           9030      1.26194e+7 
           9050      1.30067e+7 
           9070      1.27158e+7 
           9090      1.25997e+7 
           9110      1.26539e+7 
           9130      1.26071e+7 
           9150        1.257e+7 
           9170      1.24328e+7 
           9190      1.22695e+7 
           9210      1.20954e+7 
           9230      1.02707e+7 
           9250      1.18251e+7 
           9270       1.1693e+7 
           9290      1.19077e+7 
           9310      1.18579e+7 
           9330      1.17491e+7 
           9350       1.1698e+7 
           9370      1.16185e+7 
