# Kurucz ODFNEW /NOVER (2003)
# teff = 7750 K (value for the effective temperature for the model. Temperatures are given in K)
# logg = 2.5 log(cm/s2) (value for Log(G) for the model.)
# meta = -0.5  (value for the Metallicity for the model.)
# lh = 1.25  (l/Hp where l is the  mixing length of the convective element and Hp is the pressure scale height)
# vtur = 2 km/s (Microturbulence velocity)
# alpha = 0.4  (Alpha)
#
# column 1: WAVELENGTH (ANGSTROM), Wavelength in Angstrom
# column 2: FLUX (ERG/CM2/S/A), Flux in erg/cm2/s/A
            357     5.38569e-24 
            366     9.36593e-23 
            375     6.52623e-22 
            385     5.01687e-22 
            395     3.07903e-21 
            405     1.71916e-20 
            414     7.49916e-20 
            422     2.62486e-19 
            430     8.74342e-19 
            441     4.24031e-18 
            451     1.65803e-17 
            460     5.35967e-17 
            470     1.86608e-16 
            480     6.14393e-16 
            490     1.92083e-15 
            500     5.71288e-15 
            506     1.42603e-14 
            512     2.97352e-14 
            520     6.58064e-14 
            530     1.72485e-13 
            540     4.27645e-13 
            550     1.03721e-12 
            560     2.41498e-12 
            570     5.44315e-12 
            580      1.1761e-11 
            590     2.52542e-11 
            600     5.21519e-11 
            610      1.0497e-10 
            620     2.05986e-10 
            630     3.94802e-10 
            640     7.40113e-10 
            650      1.35863e-9 
            658      2.17608e-9 
            665      3.24913e-9 
            675      5.67775e-9 
            685       9.7445e-9 
            695      1.64325e-8 
            705      2.71701e-8 
            716      4.66628e-8 
            726       7.4899e-8 
            735      1.13272e-7 
            745      1.76953e-7 
            755      2.72886e-7 
            765      4.15511e-7 
            775      6.24908e-7 
            785      9.29375e-7 
            795       1.3548e-6 
            805      1.97903e-6 
            815      2.85395e-6 
            825      4.06527e-6 
            835      5.73395e-6 
            845      8.01287e-6 
            855      1.10964e-5 
            865      1.52343e-5 
            875      2.06889e-5 
            885      2.80066e-5 
            895      3.75302e-5 
            905      4.97921e-5 
            915       0.0569307 
            925        0.192326 
            935        0.252081 
            945        0.336119 
            955         0.47094 
            965        0.612897 
            975        0.736755 
            985        0.977988 
            995         1.19184 
           1005         1.59397 
           1015         1.98149 
           1025         2.28101 
           1035         3.07422 
           1045         3.83793 
           1055         4.74066 
           1065         5.68503 
           1075         7.06206 
           1085         8.64456 
           1095         10.2296 
           1105         33.2663 
           1115         107.474 
           1125         152.749 
           1135         207.455 
           1145         252.625 
           1155         265.166 
           1165         335.808 
           1175         358.741 
           1185         391.317 
           1195         130.304 
           1205         101.388 
           1215         24.3265 
           1225         115.716 
           1235         327.669 
           1245         775.734 
           1255         1542.46 
           1265         1664.39 
           1275         2862.51 
           1285         4231.75 
           1295         5381.96 
           1305         4306.33 
           1315          7316.4 
           1325         9020.69 
           1335         10158.4 
           1345         12513.7 
           1355         13192.7 
           1365         14579.5 
           1375         16171.7 
           1385           18099 
           1395           20776 
           1405         23122.6 
           1415         24296.5 
           1425         27158.8 
           1435         27509.8 
           1442         31665.8 
           1447         33822.4 
           1455         37553.3 
           1465         38451.9 
           1475         41895.9 
           1485         46241.6 
           1495         51971.2 
           1505         56853.1 
           1512         58097.7 
           1517         62582.3 
           1525         66633.2 
           1535          187723 
           1545          702616 
           1555          674382 
           1565          599928 
           1575      1.02846e+6 
           1585      1.23429e+6 
           1595      1.47533e+6 
           1605      1.39117e+6 
           1615      1.49841e+6 
           1625        1.502e+6 
           1635      1.90956e+6 
           1645      2.96745e+6 
           1655      1.71748e+6 
           1665      3.08195e+6 
           1672      1.43222e+6 
           1677      4.07415e+6 
           1685      5.79141e+6 
           1695      6.01555e+6 
           1705      6.89045e+6 
           1715      8.96909e+6 
           1725      9.13038e+6 
           1735      1.08952e+7 
           1745      1.01785e+7 
           1755      1.23011e+7 
           1765        9.133e+6 
           1775      1.15959e+7 
           1785      1.10186e+7 
           1795       1.3991e+7 
           1805      1.12477e+7 
           1815      1.25602e+7 
           1825      1.05364e+7 
           1835      1.04413e+7 
           1845       9.3677e+6 
           1855      1.06014e+7 
           1865      1.15524e+7 
           1875      1.13224e+7 
           1885      1.17189e+7 
           1895      1.24547e+7 
           1905      1.11378e+7 
           1915      1.23716e+7 
           1925      1.25281e+7 
           1935      1.00531e+7 
           1945      1.32487e+7 
           1955      1.33481e+7 
           1967      1.43045e+7 
           1976      1.37789e+7 
           1984      1.32919e+7 
           1995      1.29706e+7 
           2005      1.24236e+7 
           2015       1.1883e+7 
           2025      1.10732e+7 
           2035      1.27304e+7 
           2045      1.38494e+7 
           2055      1.26364e+7 
           2065      1.23765e+7 
           2074      1.46191e+7 
           2078      1.52634e+7 
           2085      1.45978e+7 
           2095      1.38374e+7 
           2105      1.28483e+7 
           2115      1.30943e+7 
           2125      1.33218e+7 
           2135      1.04319e+7 
           2145      1.27437e+7 
           2155      1.28261e+7 
           2165      1.18366e+7 
           2175      1.18332e+7 
           2185      1.23903e+7 
           2195      1.35365e+7 
           2205      1.29414e+7 
           2215      1.13052e+7 
           2225      1.11779e+7 
           2235      1.33972e+7 
           2245      1.19095e+7 
           2255      1.10314e+7 
           2265      1.10047e+7 
           2275      1.22322e+7 
           2285       1.2751e+7 
           2295      1.15565e+7 
           2305      1.21577e+7 
           2315      1.17724e+7 
           2325      1.13626e+7 
           2335      9.56088e+6 
           2345      7.92231e+6 
           2355      1.11137e+7 
           2365      8.22602e+6 
           2375      1.00951e+7 
           2385      6.95743e+6 
           2395      8.48097e+6 
           2405      8.14941e+6 
           2415      8.88432e+6 
           2425      1.12744e+7 
           2435      1.09285e+7 
           2445      1.17341e+7 
           2455      1.15169e+7 
           2465      1.14856e+7 
           2475      1.06353e+7 
           2485      1.11075e+7 
           2495      1.06131e+7 
           2505      1.29192e+7 
           2513      1.05619e+7 
           2518      1.08373e+7 
           2525      9.46783e+6 
           2535      8.86684e+6 
           2545      9.12709e+6 
           2555      1.06347e+7 
           2565      1.01878e+7 
           2575      1.15559e+7 
           2585      1.14306e+7 
           2595      1.08783e+7 
           2605      1.00539e+7 
           2615      9.54684e+6 
           2625      1.15928e+7 
           2635      1.22277e+7 
           2645      1.52011e+7 
           2655      1.53454e+7 
           2665      1.31172e+7 
           2675      1.41502e+7 
           2685      1.41004e+7 
           2695      1.31111e+7 
           2705      1.36749e+7 
           2715      1.24203e+7 
           2725      1.26672e+7 
           2735      1.38807e+7 
           2745      1.00594e+7 
           2755      1.09931e+7 
           2765      1.16913e+7 
           2775      1.32437e+7 
           2785      1.11034e+7 
           2795      4.38262e+6 
           2805      5.73136e+6 
           2815      1.30197e+7 
           2825      1.47003e+7 
           2835      1.43178e+7 
           2845      1.37189e+7 
           2855      1.25063e+7 
           2865      1.44726e+7 
           2875      1.40603e+7 
           2885      1.43966e+7 
           2895      1.37076e+7 
           2910      1.59027e+7 
           2930      1.51852e+7 
           2950      1.51475e+7 
           2970      1.58441e+7 
           2990       1.6002e+7 
           3010       1.6358e+7 
           3030      1.62511e+7 
           3050      1.61715e+7 
           3070      1.61522e+7 
           3090      1.66433e+7 
           3110      1.61067e+7 
           3130       1.6138e+7 
           3150      1.66866e+7 
           3170       1.6675e+7 
           3190      1.56277e+7 
           3210      1.63074e+7 
           3230       1.5655e+7 
           3250      1.63364e+7 
           3270      1.66047e+7 
           3290      1.69053e+7 
           3310      1.71851e+7 
           3330      1.67289e+7 
           3350      1.64858e+7 
           3370      1.64294e+7 
           3390      1.65999e+7 
           3410      1.69958e+7 
           3430      1.72695e+7 
           3450      1.70803e+7 
           3470      1.68555e+7 
           3490      1.67884e+7 
           3510      1.72242e+7 
           3530      1.73077e+7 
           3550      1.76645e+7 
           3570      1.70031e+7 
           3590      1.69755e+7 
           3610      1.71074e+7 
           3630      1.72582e+7 
           3640      1.69843e+7 
           3650      1.76198e+7 
           3670      1.73749e+7 
           3690      1.72961e+7 
           3710      2.08286e+7 
           3730      2.44108e+7 
           3750      3.35835e+7 
           3770      3.63505e+7 
           3790      4.56038e+7 
           3810      5.32156e+7 
           3830      4.13868e+7 
           3850      5.77504e+7 
           3870      6.41528e+7 
           3890       3.7354e+7 
           3910      6.25463e+7 
           3930      4.91764e+7 
           3950      6.12329e+7 
           3970      3.26584e+7 
           3990      6.12418e+7 
           4010      6.63443e+7 
           4030       6.5474e+7 
           4050      6.49024e+7 
           4070      6.25377e+7 
           4090      5.20612e+7 
           4110       3.9642e+7 
           4130       5.9857e+7 
           4150      6.19632e+7 
           4170      6.05557e+7 
           4190      6.00841e+7 
           4210      5.99206e+7 
           4230      5.83952e+7 
           4250       5.8239e+7 
           4270      5.67318e+7 
           4290       5.6114e+7 
           4310      5.22036e+7 
           4330       4.2811e+7 
           4350      3.64933e+7 
           4370      5.30565e+7 
           4390      5.29025e+7 
           4410      5.19008e+7 
           4430      5.18517e+7 
           4450      5.19098e+7 
           4470      5.15858e+7 
           4490      5.09797e+7 
           4510      5.14602e+7 
           4530      4.96501e+7 
           4550      4.86559e+7 
           4570      4.98057e+7 
           4590      4.82676e+7 
           4610      4.92341e+7 
           4630      4.77746e+7 
           4650      4.79656e+7 
           4670      4.75643e+7 
           4690       4.6322e+7 
           4710      4.46982e+7 
           4730      4.59661e+7 
           4750      4.57853e+7 
           4770      4.49319e+7 
           4790      4.43686e+7 
           4810      4.36064e+7 
           4830      4.23045e+7 
           4850      3.44258e+7 
           4870      2.75515e+7 
           4890       4.0088e+7 
           4910      4.12294e+7 
           4930      4.05716e+7 
           4950      4.08072e+7 
           4970      4.08729e+7 
           4990      3.97168e+7 
           5010      3.84202e+7 
           5030      3.90266e+7 
           5050      3.84463e+7 
           5070      3.86037e+7 
           5090      3.81948e+7 
           5110       3.7908e+7 
           5130      3.71406e+7 
           5150      3.65558e+7 
           5170      3.55758e+7 
           5190      3.51833e+7 
           5210      3.53342e+7 
           5230      3.48028e+7 
           5250       3.5227e+7 
           5270      3.34097e+7 
           5290      3.44244e+7 
           5310      3.38141e+7 
           5330      3.28792e+7 
           5350      3.35605e+7 
           5370      3.30627e+7 
           5390      3.26557e+7 
           5410      3.20904e+7 
           5430      3.19656e+7 
           5450      3.19673e+7 
           5470      3.16735e+7 
           5490      3.13744e+7 
           5510       3.1121e+7 
           5530      3.07091e+7 
           5550      3.07144e+7 
           5570       3.0272e+7 
           5590        2.984e+7 
           5610      2.97078e+7 
           5630      2.96148e+7 
           5650      2.92273e+7 
           5670      2.88539e+7 
           5690      2.87445e+7 
           5710      2.84534e+7 
           5730      2.83744e+7 
           5750      2.79916e+7 
           5770      2.78081e+7 
           5790      2.75253e+7 
           5810      2.73071e+7 
           5830      2.70802e+7 
           5850      2.67819e+7 
           5870       2.6567e+7 
           5890      2.60328e+7 
           5910      2.61028e+7 
           5930      2.58735e+7 
           5950      2.56052e+7 
           5970      2.54265e+7 
           5990      2.51226e+7 
           6010      2.48847e+7 
           6030      2.47013e+7 
           6050      2.44837e+7 
           6070      2.43492e+7 
           6090      2.40971e+7 
           6110      2.38437e+7 
           6130      2.34939e+7 
           6150      2.30535e+7 
           6170      2.30003e+7 
           6190      2.30869e+7 
           6210      2.28876e+7 
           6230      2.26108e+7 
           6250      2.21249e+7 
           6270       2.2328e+7 
           6290      2.21406e+7 
           6310       2.1849e+7 
           6330      2.17103e+7 
           6350      2.13644e+7 
           6370      2.12249e+7 
           6390      2.11808e+7 
           6410      2.08912e+7 
           6430      2.07997e+7 
           6450      2.03748e+7 
           6470      2.03759e+7 
           6490       2.0051e+7 
           6510      1.99378e+7 
           6530      1.95499e+7 
           6550      1.74726e+7 
           6570      1.39032e+7 
           6590      1.86733e+7 
           6610      1.91167e+7 
           6630      1.91189e+7 
           6650      1.90032e+7 
           6670      1.88623e+7 
           6690      1.87379e+7 
           6710      1.85804e+7 
           6730      1.84152e+7 
           6750      1.82013e+7 
           6770      1.81646e+7 
           6790       1.8003e+7 
           6810      1.78665e+7 
           6830      1.76958e+7 
           6850      1.75669e+7 
           6870      1.74504e+7 
           6890      1.73128e+7 
           6910      1.71756e+7 
           6930      1.70319e+7 
           6950      1.69052e+7 
           6970      1.67656e+7 
           6990      1.66444e+7 
           7010      1.64054e+7 
           7030      1.63587e+7 
           7050      1.62531e+7 
           7070      1.61296e+7 
           7090      1.60103e+7 
           7110       1.5705e+7 
           7130      1.57178e+7 
           7150      1.55799e+7 
           7170      1.54762e+7 
           7190      1.53494e+7 
           7210      1.52354e+7 
           7230      1.51202e+7 
           7250      1.49903e+7 
           7270      1.49258e+7 
           7290      1.47604e+7 
           7310      1.46698e+7 
           7330      1.45548e+7 
           7350      1.44764e+7 
           7370      1.43855e+7 
           7390      1.42498e+7 
           7410      1.40858e+7 
           7430      1.39753e+7 
           7450      1.38983e+7 
           7470      1.37572e+7 
           7490      1.36845e+7 
           7510      1.36137e+7 
           7530      1.35321e+7 
           7550      1.34546e+7 
           7570      1.33297e+7 
           7590       1.3253e+7 
           7610      1.31515e+7 
           7630      1.30613e+7 
           7650       1.2941e+7 
           7670       1.2823e+7 
           7690       1.2736e+7 
           7710      1.26453e+7 
           7730       1.2585e+7 
           7750      1.24819e+7 
           7770      1.21425e+7 
           7790      1.23279e+7 
           7810      1.22266e+7 
           7830      1.21218e+7 
           7850      1.20112e+7 
           7870      1.19131e+7 
           7890       1.1805e+7 
           7910      1.17622e+7 
           7930      1.16389e+7 
           7950      1.15512e+7 
           7970      1.15514e+7 
           7990      1.13615e+7 
           8010      1.13776e+7 
           8030       1.1286e+7 
           8050      1.12154e+7 
           8070      1.11367e+7 
           8090      1.10587e+7 
           8110      1.09911e+7 
           8130      1.09222e+7 
           8150      1.08443e+7 
           8170      1.07693e+7 
           8190      1.05937e+7 
           8210      1.05472e+7 
           8230       1.0471e+7 
           8250      1.04081e+7 
           8270      1.04399e+7 
           8290      1.03627e+7 
           8310      1.02693e+7 
           8330      1.01207e+7 
           8350      1.01214e+7 
           8370      9.99781e+6 
           8390      9.89721e+6 
           8410      9.80332e+6 
           8430      9.82048e+6 
           8450      9.63528e+6 
           8470      9.34618e+6 
           8490      9.90325e+6 
           8510      8.93288e+6 
           8530      9.97575e+6 
           8550      8.26509e+6 
           8570      1.01501e+7 
           8590       9.3784e+6 
           8610       9.0569e+6 
           8630      1.02785e+7 
           8650      9.92897e+6 
           8670      7.87851e+6 
           8690      9.98644e+6 
           8710      1.04044e+7 
           8730      1.00553e+7 
           8750      7.95751e+6 
           8770       9.6596e+6 
           8790      1.02578e+7 
           8810      1.02225e+7 
           8830      9.99601e+6 
           8850      9.17599e+6 
           8870      7.73025e+6 
           8890      9.63702e+6 
           8910      9.86999e+6 
           8930      9.85086e+6 
           8950      9.88167e+6 
           8970      9.74494e+6 
           8990      9.41683e+6 
           9010       7.6209e+6 
           9030      8.41002e+6 
           9050      9.35769e+6 
           9070      9.28258e+6 
           9090      9.17749e+6 
           9110      9.31064e+6 
           9130      9.32503e+6 
           9150      9.27711e+6 
           9170      9.17666e+6 
           9190      9.01052e+6 
           9210      8.49799e+6 
           9230      6.71536e+6 
           9250      8.17544e+6 
           9270      8.55317e+6 
           9290      8.81976e+6 
           9310      8.79756e+6 
           9330      8.73824e+6 
           9350      8.70909e+6 
           9370       8.6595e+6 
           9390      8.56754e+6 
           9410      8.31248e+6 
