# Kurucz ODFNEW /NOVER (2003)
# teff = 25000 K (value for the effective temperature for the model. Temperatures are given in K)
# logg = 4.5 log(cm/s2) (value for Log(G) for the model.)
# meta = -1  (value for the Metallicity for the model.)
# lh = 1.25  (l/Hp where l is the  mixing length of the convective element and Hp is the pressure scale height)
# vtur = 2 km/s (Microturbulence velocity)
# alpha = 0  (Alpha)
#
# column 1: WAVELENGTH (ANGSTROM), Wavelength in Angstrom
# column 2: FLUX (ERG/CM2/S/A), Flux in erg/cm2/s/A
          147.2     4.81086e-14 
            151     2.16263e-13 
          155.2     1.05225e-12 
          158.8     3.83759e-12 
            162     1.15966e-11 
            166     4.36802e-11 
          170.3      1.7014e-10 
          173.4     4.35836e-10 
          176.8      1.17869e-9 
          180.2      3.07444e-9 
          181.7      4.64127e-9 
          186.1      1.49742e-8 
            191      5.18877e-8 
          193.9      1.05141e-7 
          198.4      3.01881e-7 
          201.8      6.49113e-7 
            205      1.30414e-6 
          210.5      4.11747e-6 
          216.2      1.27383e-5 
          219.8      2.52065e-5 
            223      4.53531e-5 
          226.8      8.91174e-5 
            230      0.00222221 
            234       0.0051081 
            240       0.0121463 
          246.5       0.0295675 
          252.4        0.064464 
          256.8        0.106821 
            260        0.164189 
            264        0.261553 
          268.5        0.434602 
          273.5        0.747544 
          278.5         1.26407 
            284         2.20832 
            290         3.93344 
            296         6.83149 
            301         10.6036 
            308         18.5632 
            318         43.2149 
            328         90.6806 
            338         184.876 
            348         357.586 
            357         637.267 
            366          1094.9 
            375         1789.12 
            385         3046.62 
            395         5010.91 
            405         8020.59 
            414         12056.3 
            422         16857.2 
            430         23363.7 
            441         36024.3 
            451         52358.5 
            460         71692.5 
            470          100871 
            480          138948 
            490          189290 
            500          254262 
            506       1.5276e+6 
            512      5.41258e+6 
            520      6.46584e+6 
            530      8.28335e+6 
            540      8.96399e+6 
            550      1.20433e+7 
            560       1.3767e+7 
            570      1.64792e+7 
            580      1.65553e+7 
            590      2.09891e+7 
            600       2.4299e+7 
            610       2.8158e+7 
            620      3.13066e+7 
            630      3.52886e+7 
            640      3.74743e+7 
            650      4.09445e+7 
            658      4.67514e+7 
            665       5.0623e+7 
            675      5.43259e+7 
            685      5.88741e+7 
            695      6.81447e+7 
            705      7.29022e+7 
            716      8.10916e+7 
            726      8.68783e+7 
            735      9.33202e+7 
            745      1.02676e+8 
            755      1.10833e+8 
            765      1.19091e+8 
            775      1.28569e+8 
            785      1.38355e+8 
            795      1.46287e+8 
            805      1.55581e+8 
            815      1.64122e+8 
            825       1.7623e+8 
            835      1.80118e+8 
            845      1.94051e+8 
            855      2.04009e+8 
            865      2.16831e+8 
            875      2.30542e+8 
            885      2.44164e+8 
            895      2.56107e+8 
            905        2.635e+8 
            915      3.55497e+8 
            925      1.81345e+9 
            935      5.10608e+9 
            945     1.51502e+10 
            955     2.25214e+10 
            965     3.01537e+10 
            975      8.62024e+9 
            985     3.40286e+10 
            995     3.22575e+10 
           1005      3.4342e+10 
           1015     3.07143e+10 
           1025      9.24303e+9 
           1035     2.54575e+10 
           1045     3.55056e+10 
           1055     3.40301e+10 
           1065     2.99464e+10 
           1075     3.22365e+10 
           1085     2.91866e+10 
           1095      3.1605e+10 
           1105     2.95407e+10 
           1115     2.92265e+10 
           1125     2.63836e+10 
           1135     2.84782e+10 
           1145     2.61522e+10 
           1155     2.69382e+10 
           1165     2.66254e+10 
           1175     2.08665e+10 
           1185     2.51394e+10 
           1195     2.30854e+10 
           1205     1.81073e+10 
           1215      6.88728e+9 
           1225     1.86993e+10 
           1235     2.22168e+10 
           1245      2.2118e+10 
           1255     2.16428e+10 
           1265     2.13366e+10 
           1275     2.14567e+10 
           1285     2.09792e+10 
           1295     1.81811e+10 
           1305     1.83661e+10 
           1315     1.97201e+10 
           1325     1.88098e+10 
           1335     1.80427e+10 
           1345     1.80761e+10 
           1355     1.80596e+10 
           1365     1.71698e+10 
           1375     1.68647e+10 
           1385     1.66474e+10 
           1395     1.48808e+10 
           1405     1.51337e+10 
           1415     1.54107e+10 
           1425     1.50206e+10 
           1435     1.49708e+10 
           1442     1.50366e+10 
           1447     1.47726e+10 
           1455     1.44853e+10 
           1465     1.39498e+10 
           1475     1.37639e+10 
           1485     1.34469e+10 
           1495     1.32058e+10 
           1505     1.25196e+10 
           1512     1.18707e+10 
           1517     1.20194e+10 
           1525     1.19718e+10 
           1535     1.10343e+10 
           1545     1.10593e+10 
           1555     1.05754e+10 
           1565     1.08831e+10 
           1575      1.1007e+10 
           1585     1.08219e+10 
           1595     1.07316e+10 
           1605     1.03918e+10 
           1615     1.01713e+10 
           1625     1.01161e+10 
           1635     1.01861e+10 
           1645      9.91029e+9 
           1655      9.82211e+9 
           1665       9.7939e+9 
           1672      9.51249e+9 
           1677      9.75283e+9 
           1685      9.55217e+9 
           1695      9.26211e+9 
           1705      8.97793e+9 
           1715      8.68115e+9 
           1725      8.54028e+9 
           1735      8.55537e+9 
           1745      8.37941e+9 
           1755      8.36834e+9 
           1765      8.03325e+9 
           1775       7.8911e+9 
           1785      7.86181e+9 
           1795      7.86168e+9 
           1805      7.80395e+9 
           1815      7.43538e+9 
           1825      7.45275e+9 
           1835      7.28862e+9 
           1845      6.81649e+9 
           1855      6.73258e+9 
           1865      6.78156e+9 
           1875      6.85515e+9 
           1885      6.35172e+9 
           1895       6.0228e+9 
           1905       6.2857e+9 
           1915      6.03305e+9 
           1925      5.84285e+9 
           1935      5.98585e+9 
           1945      6.04416e+9 
           1955      5.62971e+9 
           1967      5.82345e+9 
           1976      5.96474e+9 
           1984      5.64139e+9 
           1995      5.49226e+9 
           2005      5.54941e+9 
           2015      5.54151e+9 
           2025      5.57594e+9 
           2035      5.29458e+9 
           2045      5.25256e+9 
           2055      5.09666e+9 
           2065       5.1013e+9 
           2074      5.21311e+9 
           2078      4.97582e+9 
           2085      5.00373e+9 
           2095      4.83007e+9 
           2105      4.90086e+9 
           2115      4.85622e+9 
           2125      4.87662e+9 
           2135      4.77806e+9 
           2145       4.6311e+9 
           2155      4.66107e+9 
           2165      4.61015e+9 
           2175       4.5333e+9 
           2185      4.47233e+9 
           2195      4.44019e+9 
           2205      4.37653e+9 
           2215      4.32198e+9 
           2225      4.24068e+9 
           2235      4.17815e+9 
           2245      4.15365e+9 
           2255      4.07577e+9 
           2265      4.04816e+9 
           2275      3.99343e+9 
           2285       3.9548e+9 
           2295      3.82378e+9 
           2305      3.84386e+9 
           2315      3.77227e+9 
           2325      3.72846e+9 
           2335      3.65665e+9 
           2345       3.6219e+9 
           2355      3.59651e+9 
           2365      3.54433e+9 
           2375      3.49498e+9 
           2385      3.44779e+9 
           2395      3.40736e+9 
           2405      3.36267e+9 
           2415      3.31596e+9 
           2425      3.29558e+9 
           2435      3.23928e+9 
           2445      3.20679e+9 
           2455      3.17772e+9 
           2465      3.13307e+9 
           2475      3.09483e+9 
           2485      3.05533e+9 
           2495      2.93963e+9 
           2505      2.97558e+9 
           2513      2.89164e+9 
           2518      2.93085e+9 
           2525      2.90452e+9 
           2535      2.86617e+9 
           2545      2.81182e+9 
           2555      2.80111e+9 
           2565      2.76705e+9 
           2575      2.74362e+9 
           2585      2.71177e+9 
           2595      2.67939e+9 
           2605      2.66169e+9 
           2615      2.63305e+9 
           2625      2.60554e+9 
           2635      2.57262e+9 
           2645      2.54685e+9 
           2655      2.51658e+9 
           2665      2.47375e+9 
           2675      2.44766e+9 
           2685      2.43751e+9 
           2695      2.38086e+9 
           2705      2.37529e+9 
           2715       2.3499e+9 
           2725      2.30453e+9 
           2735      2.29989e+9 
           2745      2.25632e+9 
           2755      2.23833e+9 
           2765      2.20064e+9 
           2775      2.20095e+9 
           2785       2.1739e+9 
           2795       2.1128e+9 
           2805      2.11323e+9 
           2815      2.10523e+9 
           2825      2.05821e+9 
           2835       2.0221e+9 
           2845      2.03505e+9 
           2855      2.01204e+9 
           2865      1.99274e+9 
           2875      1.97079e+9 
           2885      1.94995e+9 
           2895      1.92828e+9 
           2910      1.89635e+9 
           2930      1.85545e+9 
           2950      1.80194e+9 
           2970      1.77972e+9 
           2990      1.74014e+9 
           3010      1.70304e+9 
           3030      1.67218e+9 
           3050      1.63805e+9 
           3070       1.6049e+9 
           3090      1.56691e+9 
           3110      1.54009e+9 
           3130      1.51024e+9 
           3150       1.4803e+9 
           3170      1.44976e+9 
           3190      1.40869e+9 
           3210      1.39389e+9 
           3230      1.36592e+9 
           3250      1.33953e+9 
           3270      1.31513e+9 
           3290      1.28781e+9 
           3310      1.26559e+9 
           3330      1.24139e+9 
           3350      1.21567e+9 
           3370      1.19498e+9 
           3390      1.17293e+9 
           3410      1.15117e+9 
           3430      1.12424e+9 
           3450      1.09931e+9 
           3470      1.08245e+9 
           3490      1.06257e+9 
           3510      1.04569e+9 
           3530      1.02937e+9 
           3550       1.0112e+9 
           3570      9.99279e+8 
           3590      9.73619e+8 
           3610      9.59306e+8 
           3630      9.40244e+8 
           3640      9.39464e+8 
           3650      9.22277e+8 
           3670      9.10658e+8 
           3690      8.93647e+8 
           3710      8.62771e+8 
           3730      8.27034e+8 
           3750      8.45133e+8 
           3770      8.38257e+8 
           3790      8.84642e+8 
           3810      9.24014e+8 
           3830      8.02748e+8 
           3850       9.5422e+8 
           3870      9.68833e+8 
           3890      7.56541e+8 
           3910      9.55075e+8 
           3930      9.43281e+8 
           3950       9.2465e+8 
           3970      7.03841e+8 
           3990      8.84693e+8 
           4010      8.86714e+8 
           4030       8.2855e+8 
           4050       8.6754e+8 
           4070      8.43956e+8 
           4090      7.65143e+8 
           4110       6.6525e+8 
           4130      7.91055e+8 
           4150      7.87517e+8 
           4170      7.82776e+8 
           4190      7.72274e+8 
           4210      7.60596e+8 
           4230      7.47294e+8 
           4250      7.33791e+8 
           4270      7.16623e+8 
           4290      7.07746e+8 
           4310      6.90261e+8 
           4330      6.14437e+8 
           4350      5.59027e+8 
           4370       6.5461e+8 
           4390      6.31261e+8 
           4410      6.41723e+8 
           4430      6.30567e+8 
           4450      6.23332e+8 
           4470      5.81359e+8 
           4490       6.0211e+8 
           4510      5.95207e+8 
           4530      5.85557e+8 
           4550       5.7609e+8 
           4570      5.66874e+8 
           4590      5.58404e+8 
           4610      5.49545e+8 
           4630      5.40977e+8 
           4650      5.30636e+8 
           4670      5.24701e+8 
           4690      5.17358e+8 
           4710      5.01324e+8 
           4730      5.00512e+8 
           4750      4.92449e+8 
           4770      4.87368e+8 
           4790      4.79825e+8 
           4810      4.70975e+8 
           4830      4.60478e+8 
           4850      4.18635e+8 
           4870      3.72823e+8 
           4890      4.38565e+8 
           4910      4.36641e+8 
           4930      4.19527e+8 
           4950      4.26184e+8 
           4970      4.20534e+8 
           4990      4.14386e+8 
           5010      4.01688e+8 
           5030      4.02535e+8 
           5050      3.93651e+8 
           5070      3.91387e+8 
           5090      3.85831e+8 
           5110      3.80335e+8 
           5130      3.74641e+8 
           5150      3.69436e+8 
           5170      3.64736e+8 
           5190      3.59707e+8 
           5210      3.54508e+8 
           5230      3.49874e+8 
           5250      3.45094e+8 
           5270       3.4035e+8 
           5290      3.35776e+8 
           5310      3.31194e+8 
           5330       3.2671e+8 
           5350      3.22206e+8 
           5370       3.1806e+8 
           5390      3.13784e+8 
           5410      3.09628e+8 
           5430      3.05435e+8 
           5450      3.01396e+8 
           5470      2.97446e+8 
           5490       2.9357e+8 
           5510      2.89756e+8 
           5530      2.85951e+8 
           5550      2.82267e+8 
           5570       2.7858e+8 
           5590      2.75011e+8 
           5610      2.71438e+8 
           5630      2.68003e+8 
           5650      2.64363e+8 
           5670      2.60837e+8 
           5690      2.57389e+8 
           5710      2.54526e+8 
           5730       2.5133e+8 
           5750      2.48069e+8 
           5770      2.45107e+8 
           5790      2.42035e+8 
           5810       2.3901e+8 
           5830      2.36009e+8 
           5850       2.3311e+8 
           5870      2.22363e+8 
           5890      2.26545e+8 
           5910      2.24561e+8 
           5930      2.21774e+8 
           5950       2.1902e+8 
           5970      2.16508e+8 
           5990      2.13805e+8 
           6010      2.11289e+8 
           6030      2.08719e+8 
           6050       2.0624e+8 
           6070      2.03779e+8 
           6090      2.01346e+8 
           6110       1.9896e+8 
           6130      1.96601e+8 
           6150      1.94159e+8 
           6170      1.91953e+8 
           6190      1.89731e+8 
           6210      1.87505e+8 
           6230      1.85313e+8 
           6250      1.83116e+8 
           6270       1.8102e+8 
           6290      1.78928e+8 
           6310      1.76849e+8 
           6330      1.74831e+8 
           6350      1.72694e+8 
           6370      1.70795e+8 
           6390      1.68888e+8 
           6410      1.66964e+8 
           6430      1.65089e+8 
           6450      1.63215e+8 
           6470       1.6129e+8 
           6490      1.59501e+8 
           6510      1.57447e+8 
           6530      1.54903e+8 
           6550       1.4674e+8 
           6570      1.29667e+8 
           6590      1.48217e+8 
           6610      1.48632e+8 
           6630      1.47488e+8 
           6650      1.46006e+8 
           6670      1.42702e+8 
           6690      1.41185e+8 
           6710      1.41282e+8 
           6730      1.39719e+8 
           6750       1.3824e+8 
           6770      1.36742e+8 
           6790      1.35104e+8 
           6810      1.33792e+8 
           6830      1.32363e+8 
           6850      1.30957e+8 
           6870      1.29565e+8 
           6890      1.28179e+8 
           6910      1.26815e+8 
           6930      1.25472e+8 
           6950      1.24158e+8 
           6970       1.2285e+8 
           6990      1.21562e+8 
           7010      1.20286e+8 
           7030      1.19031e+8 
           7050      1.17788e+8 
           7070       1.1456e+8 
           7090      1.15361e+8 
           7110      1.14169e+8 
           7130      1.12996e+8 
           7150      1.11827e+8 
           7170      1.10662e+8 
           7190      1.09551e+8 
           7210      1.08437e+8 
           7230      1.06742e+8 
           7250      1.06233e+8 
           7270      1.05172e+8 
           7290      1.03199e+8 
           7310      1.03044e+8 
           7330      1.02027e+8 
           7350      1.01005e+8 
           7370       9.9993e+7 
           7390      9.89972e+7 
           7410      9.80175e+7 
           7430      9.70333e+7 
           7450       9.6099e+7 
           7470       9.5126e+7 
           7490       9.4209e+7 
           7510       9.3247e+7 
           7530      9.23737e+7 
           7550      9.14685e+7 
           7570      9.05783e+7 
           7590      8.97026e+7 
           7610      8.88284e+7 
           7630      8.79686e+7 
           7650       8.7123e+7 
           7670       8.6285e+7 
           7690      8.54545e+7 
           7710      8.46379e+7 
           7730      8.38285e+7 
           7750      8.30263e+7 
           7770      8.21689e+7 
           7790      8.14619e+7 
           7810      8.06376e+7 
           7830      7.99251e+7 
           7850      7.92432e+7 
           7870      7.84943e+7 
           7890      7.76914e+7 
           7910      7.70461e+7 
           7930      7.63285e+7 
           7950      7.55515e+7 
           7970      7.47221e+7 
           7990      7.40298e+7 
           8010      7.33435e+7 
           8030      7.26573e+7 
           8050      7.19944e+7 
           8070      7.13488e+7 
           8090      7.06108e+7 
           8110      7.00395e+7 
           8130       6.9456e+7 
           8150      6.87639e+7 
           8170      6.82357e+7 
           8190      6.75209e+7 
           8210      6.67452e+7 
           8230      6.63156e+7 
           8250      6.57564e+7 
           8270      6.48273e+7 
           8290      6.45423e+7 
           8310      6.39974e+7 
           8330      6.33919e+7 
           8350       6.2505e+7 
           8370       6.2169e+7 
           8390      6.17231e+7 
           8410      6.11742e+7 
           8430      6.05874e+7 
           8450      5.95993e+7 
           8470      5.95019e+7 
           8490      5.88351e+7 
           8510      5.83456e+7 
           8530      5.78031e+7 
           8550       5.6894e+7 
           8570       5.7311e+7 
           8590      5.52421e+7 
