# Kurucz ODFNEW /NOVER (2003)
# teff = 21000 K (value for the effective temperature for the model. Temperatures are given in K)
# logg = 5 log(cm/s2) (value for Log(G) for the model.)
# meta = -2  (value for the Metallicity for the model.)
# lh = 1.25  (l/Hp where l is the  mixing length of the convective element and Hp is the pressure scale height)
# vtur = 2 km/s (Microturbulence velocity)
# alpha = 0.4  (Alpha)
#
# column 1: WAVELENGTH (ANGSTROM), Wavelength in Angstrom
# column 2: FLUX (ERG/CM2/S/A), Flux in erg/cm2/s/A
          147.2     2.84131e-19 
            151     1.72644e-18 
          155.2     1.15068e-17 
          158.8     5.41264e-17 
            162     2.02949e-16 
            166     9.88689e-16 
          170.3     5.00832e-15 
          173.4     1.53711e-14 
          176.8     5.03443e-14 
          180.2     1.57875e-13 
          181.7     2.57943e-13 
          186.1     1.04224e-12 
            191     4.58176e-12 
          193.9     1.06183e-11 
          198.4     3.73231e-11 
          201.8     9.31388e-11 
            205     2.14438e-10 
          210.5     8.45881e-10 
          216.2      3.26256e-9 
          219.8      7.38167e-9 
            223      1.49074e-8 
          226.8      3.34835e-8 
            230      8.81647e-8 
            234      2.07643e-7 
            240      6.48714e-7 
          246.5      2.08012e-6 
          252.4      5.68922e-6 
          256.8      1.15956e-5 
            260      1.93815e-5 
            264      3.58876e-5 
          268.5      7.00865e-5 
          273.5     0.000143556 
          278.5     0.000286658 
            284     0.000595482 
            290      0.00127922 
            296      0.00265851 
            301      0.00478266 
            308       0.0104774 
            318       0.0304359 
            328        0.082273 
            338        0.209001 
            348        0.501771 
            357         1.05503 
            366         2.13442 
            375         4.16258 
            385         8.40814 
            395         16.3424 
            405          30.662 
            414         52.5257 
            422         82.9768 
            430         128.656 
            441         228.655 
            451         375.468 
            460         574.904 
            470          903.81 
            480          1391.4 
            490          2100.8 
            500         3113.44 
            506         22972.8 
            512         68071.5 
            520         87047.6 
            530          125697 
            540          145744 
            550          207631 
            560          259951 
            570          326951 
            580          352898 
            590          475160 
            600          601040 
            610          728887 
            620          870839 
            630      1.04097e+6 
            640      1.22161e+6 
            650      1.44958e+6 
            658      1.64687e+6 
            665       1.8297e+6 
            675      2.11274e+6 
            685      2.43135e+6 
            695      2.82665e+6 
            705       3.2294e+6 
            716      3.71897e+6 
            726      4.21769e+6 
            735      4.72194e+6 
            745      5.32237e+6 
            755      5.97539e+6 
            765      6.66716e+6 
            775      7.44333e+6 
            785      8.26607e+6 
            795       9.1395e+6 
            805      1.00917e+7 
            815      1.10978e+7 
            825      1.21849e+7 
            835      1.31861e+7 
            845      1.45363e+7 
            855      1.57901e+7 
            865      1.71985e+7 
            875      1.86189e+7 
            885      2.01702e+7 
            895      2.17603e+7 
            905      2.31918e+7 
            915      3.54426e+7 
            925      1.23261e+8 
            935       3.0652e+8 
            945      1.60875e+9 
            955      4.84819e+9 
            965      7.18202e+9 
            975      1.93048e+9 
            985     1.33828e+10 
            995     1.54687e+10 
           1005     1.55947e+10 
           1015     1.01826e+10 
           1025      9.55714e+8 
           1035      8.11855e+9 
           1045     1.51409e+10 
           1055     1.58074e+10 
           1065     1.48363e+10 
           1075      1.5431e+10 
           1085     1.44176e+10 
           1095     1.50173e+10 
           1105     1.40674e+10 
           1115     1.39507e+10 
           1125     1.32371e+10 
           1135     1.34619e+10 
           1145     1.26606e+10 
           1155     1.28681e+10 
           1165     1.26374e+10 
           1175     1.12796e+10 
           1185     1.18015e+10 
           1195      9.98104e+9 
           1205      6.18168e+9 
           1215        8.469e+8 
           1225      5.30315e+9 
           1235      9.45365e+9 
           1245     1.01759e+10 
           1255      1.0078e+10 
           1265       9.9452e+9 
           1275      1.0041e+10 
           1285      9.86162e+9 
           1295      9.01576e+9 
           1305      8.78189e+9 
           1315      9.27017e+9 
           1325      8.96683e+9 
           1335      8.60555e+9 
           1345      8.68694e+9 
           1355      8.57704e+9 
           1365       8.3384e+9 
           1375      8.22115e+9 
           1385      8.09638e+9 
           1395      7.75286e+9 
           1405      7.69175e+9 
           1415      7.61709e+9 
           1425      7.51372e+9 
           1435      7.38228e+9 
           1442      7.31858e+9 
           1447      7.24668e+9 
           1455      7.13179e+9 
           1465      6.99193e+9 
           1475      6.86715e+9 
           1485      6.72287e+9 
           1495      6.61519e+9 
           1505      6.43576e+9 
           1512       6.3712e+9 
           1517      6.34352e+9 
           1525      6.22449e+9 
           1535      6.04037e+9 
           1545      6.02193e+9 
           1555      5.87181e+9 
           1565      5.81101e+9 
           1575      5.74884e+9 
           1585      5.65104e+9 
           1595       5.5724e+9 
           1605      5.42728e+9 
           1615      5.33644e+9 
           1625      5.28452e+9 
           1635      5.21021e+9 
           1645       5.1071e+9 
           1655       5.0226e+9 
           1665      4.97917e+9 
           1672      4.84067e+9 
           1677      4.88365e+9 
           1685      4.82412e+9 
           1695      4.73668e+9 
           1705      4.64668e+9 
           1715      4.55422e+9 
           1725      4.48537e+9 
           1735      4.43932e+9 
           1745      4.36446e+9 
           1755      4.31584e+9 
           1765        4.169e+9 
           1775      4.16688e+9 
           1785      4.10625e+9 
           1795      4.06507e+9 
           1805      4.00188e+9 
           1815      3.93355e+9 
           1825      3.88784e+9 
           1835      3.82723e+9 
           1845      3.73761e+9 
           1855      3.63961e+9 
           1865      3.60144e+9 
           1875      3.59989e+9 
           1885       3.5092e+9 
           1895      3.42485e+9 
           1905      3.43705e+9 
           1915      3.34803e+9 
           1925      3.30165e+9 
           1935      3.27707e+9 
           1945       3.2561e+9 
           1955      3.17005e+9 
           1967      3.16109e+9 
           1976      3.13737e+9 
           1984      3.08016e+9 
           1995      3.00738e+9 
           2005      3.00548e+9 
           2015      2.97275e+9 
           2025      2.94236e+9 
           2035       2.8935e+9 
           2045        2.855e+9 
           2055      2.77492e+9 
           2065      2.76251e+9 
           2074      2.75347e+9 
           2078      2.71304e+9 
           2085      2.71037e+9 
           2095      2.66061e+9 
           2105      2.64296e+9 
           2115      2.61407e+9 
           2125      2.58635e+9 
           2135      2.55135e+9 
           2145       2.5164e+9 
           2155      2.48807e+9 
           2165      2.45485e+9 
           2175      2.42381e+9 
           2185      2.39528e+9 
           2195      2.36788e+9 
           2205      2.33669e+9 
           2215      2.30681e+9 
           2225      2.27645e+9 
           2235      2.25213e+9 
           2245      2.22516e+9 
           2255      2.19628e+9 
           2265      2.17216e+9 
           2275       2.1451e+9 
           2285      2.12138e+9 
           2295      2.08784e+9 
           2305      2.06948e+9 
           2315      2.04356e+9 
           2325      2.02093e+9 
           2335      1.99136e+9 
           2345      1.96023e+9 
           2355      1.94851e+9 
           2365      1.91994e+9 
           2375      1.90181e+9 
           2385      1.87172e+9 
           2395      1.85402e+9 
           2405      1.83375e+9 
           2415      1.81213e+9 
           2425      1.79818e+9 
           2435      1.77524e+9 
           2445      1.75546e+9 
           2455      1.73819e+9 
           2465       1.7163e+9 
           2475      1.69846e+9 
           2485      1.67969e+9 
           2495       1.6501e+9 
           2505      1.64259e+9 
           2513      1.62285e+9 
           2518      1.61878e+9 
           2525      1.60433e+9 
           2535      1.58396e+9 
           2545      1.56711e+9 
           2555      1.55527e+9 
           2565       1.5359e+9 
           2575       1.5224e+9 
           2585      1.50557e+9 
           2595      1.48873e+9 
           2605      1.47865e+9 
           2615      1.46472e+9 
           2625      1.45063e+9 
           2635      1.43395e+9 
           2645      1.42242e+9 
           2655      1.40585e+9 
           2665      1.38688e+9 
           2675      1.37116e+9 
           2685      1.36468e+9 
           2695      1.34026e+9 
           2705      1.33618e+9 
           2715      1.32181e+9 
           2725      1.29701e+9 
           2735      1.29499e+9 
           2745      1.27488e+9 
           2755      1.26301e+9 
           2765      1.24413e+9 
           2775      1.24325e+9 
           2785      1.23012e+9 
           2795      1.19572e+9 
           2805      1.19626e+9 
           2815      1.19391e+9 
           2825      1.16904e+9 
           2835       1.1603e+9 
           2845      1.15779e+9 
           2855      1.14668e+9 
           2865      1.13562e+9 
           2875      1.12418e+9 
           2885      1.11323e+9 
           2895      1.10236e+9 
           2910      1.08618e+9 
           2930      1.06411e+9 
           2950      1.03653e+9 
           2970      1.02463e+9 
           2990       1.0049e+9 
           3010      9.86097e+8 
           3030      9.67624e+8 
           3050      9.49508e+8 
           3070      9.31821e+8 
           3090      9.14431e+8 
           3110      8.97644e+8 
           3130       8.8198e+8 
           3150      8.65842e+8 
           3170       8.5019e+8 
           3190      8.27864e+8 
           3210      8.19481e+8 
           3230      8.04814e+8 
           3250       7.9041e+8 
           3270      7.77071e+8 
           3290      7.62675e+8 
           3310      7.50117e+8 
           3330      7.37056e+8 
           3350      7.23381e+8 
           3370      7.11835e+8 
           3390      6.99658e+8 
           3410      6.87749e+8 
           3430      6.74532e+8 
           3450      6.61607e+8 
           3470      6.51781e+8 
           3490      6.40961e+8 
           3510      6.30711e+8 
           3530      6.21014e+8 
           3550      6.10599e+8 
           3570      6.03186e+8 
           3590      5.90111e+8 
           3610      5.82261e+8 
           3630      5.71145e+8 
           3640      5.69746e+8 
           3650      5.65073e+8 
           3670      5.58316e+8 
           3690      5.49375e+8 
           3710       5.3189e+8 
           3730      5.07626e+8 
           3750      5.14013e+8 
           3770      5.08627e+8 
           3790      5.49669e+8 
           3810      5.87435e+8 
           3830      4.98466e+8 
           3850      6.21245e+8 
           3870      6.52546e+8 
           3890      4.61398e+8 
           3910      6.46261e+8 
           3930       6.5814e+8 
           3950      6.29424e+8 
           3970      4.32664e+8 
           3990      5.98362e+8 
           4010      6.18203e+8 
           4030      5.71767e+8 
           4050      6.10094e+8 
           4070        5.924e+8 
           4090      5.03069e+8 
           4110      4.22736e+8 
           4130      5.50509e+8 
           4150      5.55453e+8 
           4170      5.54146e+8 
           4190      5.47774e+8 
           4210      5.39861e+8 
           4230      5.31041e+8 
           4250      5.21613e+8 
           4270      5.11737e+8 
           4290      5.02064e+8 
           4310      4.85329e+8 
           4330      4.03958e+8 
           4350      3.62265e+8 
           4370      4.58876e+8 
           4390      4.44441e+8 
           4410      4.57776e+8 
           4430       4.4939e+8 
           4450      4.44389e+8 
           4470      4.08652e+8 
           4490      4.29742e+8 
           4510      4.25569e+8 
           4530      4.19047e+8 
           4550      4.12678e+8 
           4570       4.0644e+8 
           4590      4.00349e+8 
           4610      3.94366e+8 
           4630      3.88453e+8 
           4650      3.82557e+8 
           4670       3.7699e+8 
           4690      3.71453e+8 
           4710      3.60136e+8 
           4730      3.60482e+8 
           4750      3.55115e+8 
           4770      3.49726e+8 
           4790      3.43823e+8 
           4810      3.37257e+8 
           4830      3.26477e+8 
           4850      2.80339e+8 
           4870      2.44922e+8 
           4890      3.08778e+8 
           4910      3.12299e+8 
           4930      3.00036e+8 
           4950      3.06934e+8 
           4970      3.03371e+8 
           4990      2.99128e+8 
           5010      2.90336e+8 
           5030      2.90756e+8 
           5050      2.84543e+8 
           5070      2.82933e+8 
           5090      2.79042e+8 
           5110      2.75217e+8 
           5130      2.71486e+8 
           5150      2.67791e+8 
           5170      2.64172e+8 
           5190      2.60616e+8 
           5210      2.57023e+8 
           5230       2.5367e+8 
           5250      2.50292e+8 
           5270      2.46958e+8 
           5290      2.43694e+8 
           5310      2.40472e+8 
           5330      2.37305e+8 
           5350      2.34165e+8 
           5370      2.31144e+8 
           5390      2.28135e+8 
           5410      2.25177e+8 
           5430      2.22218e+8 
           5450      2.19385e+8 
           5470      2.16563e+8 
           5490        2.138e+8 
           5510      2.11072e+8 
           5530       2.0839e+8 
           5550      2.05753e+8 
           5570      2.03137e+8 
           5590      2.00589e+8 
           5610       1.9806e+8 
           5630      1.95598e+8 
           5650      1.93106e+8 
           5670      1.90727e+8 
           5690      1.88376e+8 
           5710      1.86065e+8 
           5730       1.8377e+8 
           5750      1.81514e+8 
           5770      1.79296e+8 
           5790      1.77115e+8 
           5810      1.74961e+8 
           5830      1.72842e+8 
           5850      1.70749e+8 
           5870      1.62426e+8 
           5890      1.66103e+8 
           5910      1.64668e+8 
           5930      1.62712e+8 
           5950      1.60758e+8 
           5970      1.58869e+8 
           5990       1.5697e+8 
           6010      1.55134e+8 
           6030      1.53309e+8 
           6050      1.51515e+8 
           6070      1.49741e+8 
           6090      1.47998e+8 
           6110      1.46283e+8 
           6130      1.44589e+8 
           6150      1.42923e+8 
           6170      1.41275e+8 
           6190      1.39656e+8 
           6210      1.38064e+8 
           6230       1.3649e+8 
           6250      1.34933e+8 
           6270      1.33403e+8 
           6290      1.31899e+8 
           6310      1.30411e+8 
           6330      1.28949e+8 
           6350      1.27419e+8 
           6370      1.26035e+8 
           6390      1.24675e+8 
           6410      1.23284e+8 
           6430      1.21926e+8 
           6450      1.20573e+8 
           6470      1.19199e+8 
           6490      1.17598e+8 
           6510      1.15934e+8 
           6530      1.13361e+8 
           6550      1.03933e+8 
           6570      9.04711e+7 
           6590       1.0788e+8 
           6610      1.09435e+8 
           6630      1.08836e+8 
           6650      1.07884e+8 
           6670      1.05527e+8 
           6690      1.04527e+8 
           6710      1.04708e+8 
           6730      1.03604e+8 
           6750      1.02503e+8 
           6770      1.01422e+8 
           6790      1.00351e+8 
           6810      9.92999e+7 
           6830      9.82588e+7 
           6850      9.72283e+7 
           6870       9.6216e+7 
           6890      9.52138e+7 
           6910      9.42295e+7 
           6930      9.32549e+7 
           6950        9.229e+7 
           6970      9.13424e+7 
           6990      9.04041e+7 
           7010      8.94826e+7 
           7030      8.85702e+7 
           7050      8.76667e+7 
           7070      8.54228e+7 
           7090      8.59009e+7 
           7110      8.50307e+7 
           7130      8.41764e+7 
           7150      8.33304e+7 
           7170      8.24924e+7 
           7190      8.16697e+7 
           7210      8.08549e+7 
           7230       8.0019e+7 
           7250      7.92556e+7 
           7270      7.84709e+7 
           7290      7.71335e+7 
           7310      7.69306e+7 
           7330      7.61818e+7 
           7350      7.54331e+7 
           7370      7.46982e+7 
           7390      7.39702e+7 
           7410       7.3249e+7 
           7430      7.25413e+7 
           7450      7.18469e+7 
           7470      7.11521e+7 
           7490      7.04637e+7 
           7510       6.9775e+7 
           7530      6.91191e+7 
           7550      6.84626e+7 
           7570      6.78055e+7 
           7590      6.71609e+7 
           7610      6.65286e+7 
           7630      6.58956e+7 
           7650      6.52747e+7 
           7670      6.46593e+7 
           7690      6.40559e+7 
           7710      6.34578e+7 
           7730      6.28619e+7 
           7750      6.22757e+7 
           7770      6.16641e+7 
           7790      6.11238e+7 
           7810      6.05393e+7 
           7830      5.99988e+7 
           7850      5.94783e+7 
           7870        5.893e+7 
           7890      5.83781e+7 
           7910      5.78629e+7 
           7930      5.73341e+7 
           7950      5.68064e+7 
           7970       5.6285e+7 
           7990      5.57735e+7 
           8010      5.52798e+7 
           8030       5.4781e+7 
           8050      5.42871e+7 
           8070      5.37996e+7 
           8090      5.32801e+7 
           8110      5.28189e+7 
           8130       5.2365e+7 
           8150      5.18559e+7 
           8170       5.1433e+7 
           8190      5.09333e+7 
           8210      5.04423e+7 
           8230      5.00762e+7 
           8250      4.96588e+7 
           8270      4.91011e+7 
           8290      4.88014e+7 
           8310       4.8401e+7 
           8330      4.79658e+7 
           8350      4.74196e+7 
           8370      4.71121e+7 
           8390      4.67566e+7 
           8410      4.63481e+7 
           8430      4.59264e+7 
           8450      4.53379e+7 
           8470      4.51156e+7 
           8490      4.46623e+7 
           8510      4.42628e+7 
           8530      4.38758e+7 
           8550      4.32276e+7 
           8570      4.33425e+7 
           8590      4.20713e+7 
