# Kurucz ODFNEW /NOVER (2003)
# teff = 8500 K (value for the effective temperature for the model. Temperatures are given in K)
# logg = 4.5 log(cm/s2) (value for Log(G) for the model.)
# meta = -2.5  (value for the Metallicity for the model.)
# lh = 1.25  (l/Hp where l is the  mixing length of the convective element and Hp is the pressure scale height)
# vtur = 2 km/s (Microturbulence velocity)
# alpha = 0  (Alpha)
#
# column 1: WAVELENGTH (ANGSTROM), Wavelength in Angstrom
# column 2: FLUX (ERG/CM2/S/A), Flux in erg/cm2/s/A
          273.5     4.60639e-23 
          278.5     2.34104e-22 
            284     1.11801e-21 
            290     5.66169e-21 
            296     2.67481e-20 
            301     9.29006e-20 
            308     4.95057e-19 
            318     4.73762e-18 
            328     3.93384e-17 
            338     2.86992e-16 
            348     1.86044e-15 
            357     9.11784e-15 
            366     4.12064e-14 
            375     1.72718e-13 
            385     7.82306e-13 
            395     3.27195e-12 
            405     1.27122e-11 
            414     4.06697e-11 
            422     1.09464e-10 
            430     2.83494e-10 
            441     9.88774e-10 
            451      2.91232e-9 
            460       7.3813e-9 
            470      1.98529e-8 
            480       5.1125e-8 
            490      1.26406e-7 
            500      3.00811e-7 
            506      4.97698e-7 
            512       8.1257e-7 
            520      1.53339e-6 
            530      3.29575e-6 
            540      6.87402e-6 
            550      1.39359e-5 
            560      2.75039e-5 
            570      5.29207e-5 
            580       9.9401e-5 
            590     0.000182499 
            600      0.00032787 
            610     0.000577061 
            620      0.00099602 
            630      0.00168736 
            640      0.00280836 
            650      0.00459601 
            658      0.00673714 
            665      0.00933848 
            675       0.0146996 
            685       0.0228113 
            695       0.0349163 
            705       0.0527493 
            716       0.0818558 
            726        0.120522 
            735         0.16906 
            745        0.243668 
            755        0.347508 
            765        0.490596 
            775        0.685875 
            785        0.949977 
            795         1.30396 
            805         1.77446 
            815         2.39471 
            825         3.20601 
            835         4.25913 
            845         5.61645 
            855         7.35293 
            865         9.56041 
            875         12.3486 
            885          15.847 
            895         20.2106 
            905         25.6223 
            915         41.7049 
            925          123.38 
            935         209.975 
            945         390.602 
            955         598.372 
            965         812.948 
            975         601.103 
            985            1479 
            995         1980.33 
           1005         2212.88 
           1015         1906.38 
           1025          1193.7 
           1035         2609.93 
           1045         4214.65 
           1055         5298.13 
           1065         6945.86 
           1075         8807.77 
           1085         12246.6 
           1095         14432.9 
           1105         21067.4 
           1115         36038.9 
           1125         31218.9 
           1135         30247.1 
           1145         23289.8 
           1155         20464.2 
           1165           20093 
           1175         19146.4 
           1185         22393.8 
           1195         16284.6 
           1205         12387.2 
           1215         6657.35 
           1225         14118.5 
           1235         24332.4 
           1245         28067.1 
           1255         39102.7 
           1265         50354.6 
           1275           66061 
           1285          128700 
           1295          211374 
           1305          447777 
           1315          688330 
           1325      1.08037e+6 
           1335      1.59768e+6 
           1345      2.21911e+6 
           1355      2.69247e+6 
           1365      3.24175e+6 
           1375      2.85702e+6 
           1385      2.30116e+6 
           1395      2.10664e+6 
           1405      4.17279e+6 
           1415      8.24403e+6 
           1425      9.04169e+6 
           1435      9.63418e+6 
           1442      1.11035e+7 
           1447      9.83796e+6 
           1455      1.15169e+7 
           1465      1.03532e+7 
           1475      1.10884e+7 
           1485      1.15703e+7 
           1495      1.19296e+7 
           1505      1.27636e+7 
           1512      1.29762e+7 
           1517      1.15377e+7 
           1525      1.18392e+7 
           1535      1.14615e+7 
           1545      9.89745e+6 
           1555      8.82921e+6 
           1565      6.61116e+6 
           1575      6.09677e+6 
           1585      5.43749e+6 
           1595      4.86752e+6 
           1605      4.92888e+6 
           1615      7.97708e+6 
           1625      1.27508e+7 
           1635      1.87729e+7 
           1645      2.67342e+7 
           1655      2.73859e+7 
           1665      3.59794e+7 
           1672      3.59267e+7 
           1677       3.8053e+7 
           1685      4.05214e+7 
           1695      4.04079e+7 
           1705      4.12701e+7 
           1715      4.34096e+7 
           1725      4.32939e+7 
           1735      4.47398e+7 
           1745      4.40578e+7 
           1755      4.50897e+7 
           1765      4.36031e+7 
           1775      4.50025e+7 
           1785      4.47858e+7 
           1795      4.59999e+7 
           1805      4.53332e+7 
           1815      4.53325e+7 
           1825      4.48869e+7 
           1835      4.53846e+7 
           1845      4.40507e+7 
           1855      4.51645e+7 
           1865      4.56411e+7 
           1875      4.57631e+7 
           1885      4.58239e+7 
           1895      4.60675e+7 
           1905      4.55394e+7 
           1915      4.59547e+7 
           1925      4.63274e+7 
           1935      4.53477e+7 
           1945      4.65327e+7 
           1955      4.64837e+7 
           1967      4.65959e+7 
           1976      4.58695e+7 
           1984      4.57291e+7 
           1995      4.60961e+7 
           2005      4.53928e+7 
           2015      4.50445e+7 
           2025       4.4767e+7 
           2035      4.57309e+7 
           2045      4.56946e+7 
           2055      4.48156e+7 
           2065      4.49101e+7 
           2074      4.58305e+7 
           2078       4.5813e+7 
           2085      4.55986e+7 
           2095      4.53892e+7 
           2105       4.5288e+7 
           2115      4.52634e+7 
           2125       4.4946e+7 
           2135      4.44375e+7 
           2145      4.51639e+7 
           2155      4.48276e+7 
           2165      4.38953e+7 
           2175      4.40357e+7 
           2185      4.42648e+7 
           2195      4.49133e+7 
           2205      4.40466e+7 
           2215      4.27061e+7 
           2225       4.3132e+7 
           2235      4.44347e+7 
           2245      4.37393e+7 
           2255      4.27514e+7 
           2265      4.22153e+7 
           2275      4.32477e+7 
           2285      4.34176e+7 
           2295      4.27325e+7 
           2305      4.30014e+7 
           2315      4.26518e+7 
           2325      4.26467e+7 
           2335      4.22366e+7 
           2345      4.04796e+7 
           2355      4.21078e+7 
           2365      4.06155e+7 
           2375      4.14891e+7 
           2385      3.94193e+7 
           2395      4.10545e+7 
           2405      4.08031e+7 
           2415       4.0794e+7 
           2425      4.16902e+7 
           2435      4.08656e+7 
           2445      4.12019e+7 
           2455      4.12519e+7 
           2465      4.03692e+7 
           2475      4.00916e+7 
           2485      4.02046e+7 
           2495      3.96832e+7 
           2505      4.07953e+7 
           2513      3.97318e+7 
           2518      3.95783e+7 
           2525      3.88351e+7 
           2535       3.8748e+7 
           2545      3.88878e+7 
           2555      4.00793e+7 
           2565      3.96889e+7 
           2575      4.01915e+7 
           2585      4.03118e+7 
           2595      3.99587e+7 
           2605      3.94382e+7 
           2615      3.91774e+7 
           2625      3.91867e+7 
           2635      3.93771e+7 
           2645       4.0753e+7 
           2655      4.05689e+7 
           2665      3.97739e+7 
           2675      3.99809e+7 
           2685      4.02412e+7 
           2695      3.98285e+7 
           2705      3.97987e+7 
           2715      3.90563e+7 
           2725       3.8998e+7 
           2735      3.92462e+7 
           2745      3.76743e+7 
           2755       3.7778e+7 
           2765      3.84869e+7 
           2775      3.91512e+7 
           2785      3.88342e+7 
           2795      3.66003e+7 
           2805      3.78763e+7 
           2815      3.91528e+7 
           2825       3.8988e+7 
           2835      3.84697e+7 
           2845      3.83589e+7 
           2855      3.77288e+7 
           2865       3.8023e+7 
           2875      3.80794e+7 
           2885      3.80408e+7 
           2895      3.82931e+7 
           2910      3.83527e+7 
           2930      3.77537e+7 
           2950      3.75019e+7 
           2970      3.75064e+7 
           2990      3.72882e+7 
           3010      3.73237e+7 
           3030      3.71711e+7 
           3050      3.70209e+7 
           3070      3.68024e+7 
           3090      3.66956e+7 
           3110      3.65274e+7 
           3130      3.63001e+7 
           3150       3.6147e+7 
           3170      3.60425e+7 
           3190       3.5572e+7 
           3210      3.56058e+7 
           3230      3.52962e+7 
           3250      3.53204e+7 
           3270      3.52564e+7 
           3290      3.51144e+7 
           3310      3.49665e+7 
           3330      3.47346e+7 
           3350      3.44486e+7 
           3370      3.43063e+7 
           3390      3.41781e+7 
           3410      3.41121e+7 
           3430      3.39428e+7 
           3450      3.37751e+7 
           3470      3.36247e+7 
           3490      3.34816e+7 
           3510      3.33488e+7 
           3530      3.31957e+7 
           3550       3.3047e+7 
           3570      3.28344e+7 
           3590      3.26888e+7 
           3610      3.25357e+7 
           3630      3.23955e+7 
           3640      3.23201e+7 
           3650      3.24091e+7 
           3670      3.23505e+7 
           3690      3.13782e+7 
           3710      3.14979e+7 
           3730      3.13045e+7 
           3750      3.79609e+7 
           3770      3.98414e+7 
           3790      4.73479e+7 
           3810      5.53879e+7 
           3830      4.49618e+7 
           3850      6.18627e+7 
           3870      7.02502e+7 
           3890      3.95449e+7 
           3910      7.06757e+7 
           3930      7.79417e+7 
           3950       7.0483e+7 
           3970      3.84715e+7 
           3990      6.69684e+7 
           4010      7.83114e+7 
           4030      7.98093e+7 
           4050      7.85017e+7 
           4070      7.35701e+7 
           4090      5.44304e+7 
           4110      4.19458e+7 
           4130      6.90229e+7 
           4150        7.432e+7 
           4170      7.51622e+7 
           4190      7.48798e+7 
           4210      7.42359e+7 
           4230      7.33566e+7 
           4250      7.24593e+7 
           4270      7.11726e+7 
           4290      6.91779e+7 
           4310      6.42177e+7 
           4330      4.62671e+7 
           4350      3.96071e+7 
           4370      6.10756e+7 
           4390      6.53389e+7 
           4410      6.60842e+7 
           4430      6.59515e+7 
           4450      6.55027e+7 
           4470      6.49292e+7 
           4490      6.42717e+7 
           4510      6.36918e+7 
           4530      6.31233e+7 
           4550      6.24567e+7 
           4570      6.18644e+7 
           4590       6.1212e+7 
           4610      6.06058e+7 
           4630      5.99638e+7 
           4650      5.93463e+7 
           4670      5.86612e+7 
           4690      5.79958e+7 
           4710       5.7292e+7 
           4730      5.67244e+7 
           4750      5.60323e+7 
           4770      5.52521e+7 
           4790      5.42597e+7 
           4810      5.26761e+7 
           4830      4.90821e+7 
           4850      3.74655e+7 
           4870      3.07395e+7 
           4890      4.60843e+7 
           4910      4.96944e+7 
           4930      5.04173e+7 
           4950      5.04228e+7 
           4970       5.0152e+7 
           4990      4.97629e+7 
           5010      4.93168e+7 
           5030      4.88957e+7 
           5050      4.85017e+7 
           5070      4.80466e+7 
           5090      4.75781e+7 
           5110       4.7117e+7 
           5130      4.66587e+7 
           5150      4.62047e+7 
           5170       4.5652e+7 
           5190      4.52714e+7 
           5210      4.48759e+7 
           5230      4.44328e+7 
           5250       4.4028e+7 
           5270      4.35845e+7 
           5290      4.31883e+7 
           5310      4.27727e+7 
           5330      4.23608e+7 
           5350      4.19697e+7 
           5370      4.15662e+7 
           5390      4.11766e+7 
           5410      4.07826e+7 
           5430      4.04061e+7 
           5450      4.00276e+7 
           5470      3.96549e+7 
           5490      3.92877e+7 
           5510      3.89224e+7 
           5530      3.85588e+7 
           5550      3.82056e+7 
           5570      3.78503e+7 
           5590      3.74992e+7 
           5610      3.71557e+7 
           5630      3.68161e+7 
           5650      3.64781e+7 
           5670      3.61438e+7 
           5690      3.58146e+7 
           5710      3.54878e+7 
           5730       3.5166e+7 
           5750      3.48465e+7 
           5770      3.45318e+7 
           5790      3.42206e+7 
           5810      3.39118e+7 
           5830      3.36075e+7 
           5850      3.33065e+7 
           5870      3.30045e+7 
           5890      3.26895e+7 
           5910      3.24234e+7 
           5930      3.21354e+7 
           5950      3.18505e+7 
           5970      3.15688e+7 
           5990      3.12901e+7 
           6010      3.10154e+7 
           6030      3.07427e+7 
           6050      3.04729e+7 
           6070      3.02069e+7 
           6090      2.99439e+7 
           6110      2.96825e+7 
           6130       2.9423e+7 
           6150      2.91672e+7 
           6170      2.89141e+7 
           6190      2.86666e+7 
           6210      2.84197e+7 
           6230      2.81745e+7 
           6250      2.79308e+7 
           6270      2.76944e+7 
           6290      2.74576e+7 
           6310      2.72233e+7 
           6330      2.69914e+7 
           6350       2.6759e+7 
           6370      2.65328e+7 
           6390      2.62784e+7 
           6410      2.60193e+7 
           6430      2.57748e+7 
           6450      2.55128e+7 
           6470      2.52248e+7 
           6490      2.48639e+7 
           6510      2.43211e+7 
           6530       2.3197e+7 
           6550      1.98232e+7 
           6570      1.61715e+7 
           6590      2.17199e+7 
           6610      2.30614e+7 
           6630      2.33621e+7 
           6650      2.33641e+7 
           6670      2.32623e+7 
           6690        2.312e+7 
           6710       2.2959e+7 
           6730      2.28019e+7 
           6750      2.26472e+7 
           6770      2.24651e+7 
           6790      2.22831e+7 
           6810       2.2102e+7 
           6830      2.19235e+7 
           6850      2.17467e+7 
           6870      2.15716e+7 
           6890      2.13981e+7 
           6910      2.12263e+7 
           6930      2.10569e+7 
           6950      2.08883e+7 
           6970      2.07221e+7 
           6990      2.05574e+7 
           7010      2.03943e+7 
           7030      2.02326e+7 
           7050      2.00725e+7 
           7070      1.99139e+7 
           7090      1.97575e+7 
           7110      1.95995e+7 
           7130      1.94482e+7 
           7150      1.92954e+7 
           7170      1.91447e+7 
           7190      1.89953e+7 
           7210      1.88473e+7 
           7230      1.87014e+7 
           7250      1.85561e+7 
           7270       1.8412e+7 
           7290      1.82693e+7 
           7310      1.81286e+7 
           7330      1.79891e+7 
           7350      1.78509e+7 
           7370       1.7714e+7 
           7390      1.75782e+7 
           7410      1.74436e+7 
           7430      1.73103e+7 
           7450      1.71788e+7 
           7470      1.70477e+7 
           7490      1.69179e+7 
           7510      1.67905e+7 
           7530      1.66635e+7 
           7550      1.65384e+7 
           7570      1.64136e+7 
           7590      1.62899e+7 
           7610       1.6168e+7 
           7630      1.60465e+7 
           7650      1.59266e+7 
           7670      1.58078e+7 
           7690        1.569e+7 
           7710      1.55732e+7 
           7730      1.54581e+7 
           7750      1.53433e+7 
           7770      1.52157e+7 
           7790      1.51172e+7 
           7810      1.50059e+7 
           7830      1.48956e+7 
           7850      1.47861e+7 
           7870       1.4677e+7 
           7890      1.45694e+7 
           7910      1.44639e+7 
           7930      1.43587e+7 
           7950      1.42538e+7 
           7970      1.41509e+7 
           7990      1.40471e+7 
           8010      1.39465e+7 
           8030      1.38455e+7 
           8050      1.37454e+7 
           8070      1.36467e+7 
           8090      1.35483e+7 
           8110      1.34512e+7 
           8130      1.33549e+7 
           8150      1.32593e+7 
           8170      1.31646e+7 
           8190      1.30695e+7 
           8210      1.29964e+7 
           8230      1.29094e+7 
           8250      1.28242e+7 
           8270      1.27424e+7 
           8290       1.2659e+7 
           8310      1.25758e+7 
           8330      1.24894e+7 
           8350      1.24081e+7 
           8370      1.23198e+7 
           8390       1.2229e+7 
           8410      1.21363e+7 
           8430      1.20454e+7 
           8450      1.19663e+7 
           8470       1.1787e+7 
           8490      1.18135e+7 
           8510      1.14933e+7 
           8530      1.16906e+7 
           8550      1.10598e+7 
           8570      1.16433e+7 
           8590      1.10755e+7 
           8610      1.08732e+7 
           8630      1.15704e+7 
           8650      1.11595e+7 
           8670      9.79902e+6 
           8690      1.12815e+7 
           8710      1.15193e+7 
           8730      1.10854e+7 
           8750      9.12811e+6 
           8770      1.05829e+7 
           8790      1.13413e+7 
           8810      1.14272e+7 
           8830      1.11378e+7 
           8850      9.98647e+6 
           8870      8.62327e+6 
           8890      1.05513e+7 
           8910       1.1082e+7 
           8930      1.11987e+7 
           8950      1.11355e+7 
           8970      1.08893e+7 
           8990      1.02754e+7 
           9010      8.35273e+6 
           9030      9.04483e+6 
           9050      1.02827e+7 
           9070       1.0623e+7 
           9090      1.07053e+7 
           9110      1.07142e+7 
           9130       1.0656e+7 
           9150      1.05469e+7 
           9170      1.03648e+7 
           9190      1.00222e+7 
