# Kurucz ODFNEW /NOVER (2003)
# teff = 22000 K (value for the effective temperature for the model. Temperatures are given in K)
# logg = 4.5 log(cm/s2) (value for Log(G) for the model.)
# meta = -0.5  (value for the Metallicity for the model.)
# lh = 1.25  (l/Hp where l is the  mixing length of the convective element and Hp is the pressure scale height)
# vtur = 2 km/s (Microturbulence velocity)
# alpha = 0  (Alpha)
#
# column 1: WAVELENGTH (ANGSTROM), Wavelength in Angstrom
# column 2: FLUX (ERG/CM2/S/A), Flux in erg/cm2/s/A
          147.2     3.98239e-17 
            151     2.04747e-16 
          155.2     1.14357e-15 
          158.8      4.6594e-15 
            162     1.54473e-14 
            166     6.49611e-14 
          170.3     2.83072e-13 
          173.4     7.84092e-13 
          176.8     2.30437e-12 
          180.2     6.51619e-12 
          181.7     1.01865e-11 
          186.1     3.63609e-11 
            191     1.40485e-10 
          193.9     3.03089e-10 
          198.4     9.58033e-10 
          201.8      2.21348e-9 
            205      4.75239e-9 
          210.5      1.67721e-8 
          216.2      5.80515e-8 
          219.8      1.23151e-7 
            223      2.35572e-7 
          226.8      4.97272e-7 
            230      5.43452e-6 
            234      1.31259e-5 
            240      3.60162e-5 
          246.5     0.000101154 
          252.4     0.000248613 
          256.8     0.000460185 
            260     0.000738245 
            264       0.0012743 
          268.5      0.00230462 
          273.5      0.00434485 
          278.5       0.0080298 
            284       0.0154002 
            290       0.0303193 
            296       0.0579352 
            301       0.0975036 
            308        0.192971 
            318        0.506247 
            328          1.2166 
            338          2.8075 
            348         6.12173 
            357         12.0176 
            366         22.6916 
            375         40.8944 
            385         76.6726 
            395         138.525 
            405         242.793 
            414         393.575 
            422         589.748 
            430          870.43 
            441         1460.23 
            451         2280.37 
            460         3331.46 
            470         5003.56 
            480         7355.87 
            490         10657.3 
            500         15176.2 
            506          108240 
            512          424019 
            520          534777 
            530          732778 
            540          832203 
            550      1.18795e+6 
            560      1.42595e+6 
            570      1.79552e+6 
            580      1.84669e+6 
            590        2.466e+6 
            600      3.01677e+6 
            610      3.66068e+6 
            620      4.22243e+6 
            630      4.93716e+6 
            640      5.40969e+6 
            650      5.76802e+6 
            658      7.16063e+6 
            665      7.92033e+6 
            675      8.79428e+6 
            685      9.84085e+6 
            695       1.1671e+7 
            705      1.29044e+7 
            716      1.46913e+7 
            726      1.61484e+7 
            735      1.76968e+7 
            745      1.99997e+7 
            755      2.21382e+7 
            765      2.43769e+7 
            775      2.69037e+7 
            785      2.95557e+7 
            795      3.18532e+7 
            805      3.45328e+7 
            815       3.7135e+7 
            825      4.06937e+7 
            835      4.25308e+7 
            845      4.63081e+7 
            855      4.95859e+7 
            865      5.36275e+7 
            875      5.79985e+7 
            885      6.26355e+7 
            895      6.67416e+7 
            905      6.91339e+7 
            915      9.97547e+7 
            925      4.26111e+8 
            935      1.27185e+9 
            945       4.7324e+9 
            955      9.07265e+9 
            965      1.2459e+10 
            975      2.52635e+9 
            985     1.60516e+10 
            995      1.5648e+10 
           1005     1.74198e+10 
           1015     1.46037e+10 
           1025      2.91028e+9 
           1035     1.05423e+10 
           1045     1.91113e+10 
           1055     1.83134e+10 
           1065     1.54545e+10 
           1075     1.76315e+10 
           1085     1.57799e+10 
           1095       1.742e+10 
           1105     1.58094e+10 
           1115     1.54792e+10 
           1125     1.38627e+10 
           1135     1.59129e+10 
           1145     1.42261e+10 
           1155     1.49212e+10 
           1165     1.50353e+10 
           1175     1.12479e+10 
           1185     1.45307e+10 
           1195     1.21965e+10 
           1205       7.8938e+9 
           1215      2.47182e+9 
           1225      8.72343e+9 
           1235     1.25735e+10 
           1245     1.29663e+10 
           1255     1.26364e+10 
           1265     1.22608e+10 
           1275     1.26697e+10 
           1285     1.25105e+10 
           1295      9.73372e+9 
           1305      9.65435e+9 
           1315     1.18383e+10 
           1325     1.11552e+10 
           1335     1.04327e+10 
           1345     1.08915e+10 
           1355     1.07557e+10 
           1365     1.00344e+10 
           1375      9.88618e+9 
           1385       9.8871e+9 
           1395      8.67047e+9 
           1405      8.98128e+9 
           1415      9.04294e+9 
           1425      8.96841e+9 
           1435      8.97594e+9 
           1442      9.12345e+9 
           1447      8.94589e+9 
           1455       8.7565e+9 
           1465       8.3035e+9 
           1475      8.23372e+9 
           1485      8.00122e+9 
           1495       7.9205e+9 
           1505       7.4081e+9 
           1512      6.82421e+9 
           1517       7.0129e+9 
           1525      7.10815e+9 
           1535      6.45319e+9 
           1545      6.54732e+9 
           1555      6.22251e+9 
           1565      6.40335e+9 
           1575      6.61495e+9 
           1585      6.52079e+9 
           1595      6.52932e+9 
           1605      6.39542e+9 
           1615      6.29306e+9 
           1625      6.17248e+9 
           1635      6.31099e+9 
           1645      6.21083e+9 
           1655      6.00671e+9 
           1665      6.18985e+9 
           1672      5.95647e+9 
           1677      6.12315e+9 
           1685      6.05638e+9 
           1695      5.81991e+9 
           1705      5.58286e+9 
           1715      5.35578e+9 
           1725      5.26424e+9 
           1735      5.37969e+9 
           1745      5.22963e+9 
           1755      5.29594e+9 
           1765      4.99895e+9 
           1775      4.96503e+9 
           1785      4.95614e+9 
           1795      5.03857e+9 
           1805      5.00995e+9 
           1815      4.67357e+9 
           1825      4.76796e+9 
           1835      4.61645e+9 
           1845       4.2882e+9 
           1855      4.21581e+9 
           1865      4.26062e+9 
           1875      4.41611e+9 
           1885       4.0353e+9 
           1895      3.80336e+9 
           1905      4.03043e+9 
           1915      3.83866e+9 
           1925      3.71715e+9 
           1935      3.82925e+9 
           1945      3.88757e+9 
           1955      3.59961e+9 
           1967      3.79174e+9 
           1976      3.90925e+9 
           1984      3.65861e+9 
           1995      3.57077e+9 
           2005      3.63289e+9 
           2015      3.59339e+9 
           2025      3.67797e+9 
           2035      3.44424e+9 
           2045      3.44649e+9 
           2055      3.34549e+9 
           2065      3.37925e+9 
           2074      3.46665e+9 
           2078      3.26975e+9 
           2085      3.32981e+9 
           2095      3.18137e+9 
           2105      3.24031e+9 
           2115       3.2153e+9 
           2125      3.25319e+9 
           2135      3.17576e+9 
           2145      3.06049e+9 
           2155      3.12277e+9 
           2165      3.07984e+9 
           2175      3.03494e+9 
           2185      2.98024e+9 
           2195      2.98528e+9 
           2205      2.93339e+9 
           2215      2.88838e+9 
           2225      2.81895e+9 
           2235       2.8103e+9 
           2245      2.79601e+9 
           2255      2.72363e+9 
           2265       2.7351e+9 
           2275        2.698e+9 
           2285      2.68938e+9 
           2295       2.5911e+9 
           2305      2.60178e+9 
           2315      2.54273e+9 
           2325      2.51644e+9 
           2335      2.44353e+9 
           2345      2.40759e+9 
           2355      2.41966e+9 
           2365      2.36583e+9 
           2375      2.34862e+9 
           2385      2.30791e+9 
           2395      2.30772e+9 
           2405      2.25991e+9 
           2415      2.23594e+9 
           2425      2.24066e+9 
           2435      2.18322e+9 
           2445      2.17624e+9 
           2455      2.17017e+9 
           2465      2.12476e+9 
           2475      2.10295e+9 
           2485      2.08868e+9 
           2495      2.01696e+9 
           2505      2.04256e+9 
           2513      1.96795e+9 
           2518      2.01118e+9 
           2525      1.97428e+9 
           2535      1.94109e+9 
           2545       1.9108e+9 
           2555      1.92854e+9 
           2565      1.89715e+9 
           2575      1.89608e+9 
           2585      1.87975e+9 
           2595      1.85897e+9 
           2605      1.84434e+9 
           2615      1.82607e+9 
           2625      1.80677e+9 
           2635      1.78695e+9 
           2645      1.78903e+9 
           2655      1.77023e+9 
           2665      1.73066e+9 
           2675      1.72412e+9 
           2685      1.71611e+9 
           2695      1.67466e+9 
           2705      1.67203e+9 
           2715      1.65069e+9 
           2725      1.62038e+9 
           2735      1.62377e+9 
           2745      1.57181e+9 
           2755      1.56618e+9 
           2765      1.55196e+9 
           2775      1.56007e+9 
           2785       1.5384e+9 
           2795      1.48618e+9 
           2805      1.49906e+9 
           2815      1.49779e+9 
           2825      1.46587e+9 
           2835      1.42935e+9 
           2845      1.44212e+9 
           2855      1.43084e+9 
           2865      1.42325e+9 
           2875      1.40585e+9 
           2885      1.39286e+9 
           2895      1.37871e+9 
           2910       1.3576e+9 
           2930      1.32649e+9 
           2950      1.29185e+9 
           2970      1.27849e+9 
           2990      1.24918e+9 
           3010      1.22631e+9 
           3030      1.20718e+9 
           3050      1.18338e+9 
           3070      1.16066e+9 
           3090      1.13499e+9 
           3110       1.1158e+9 
           3130      1.09609e+9 
           3150      1.07542e+9 
           3170      1.05353e+9 
           3190      1.02489e+9 
           3210      1.01538e+9 
           3230      9.96485e+8 
           3250       9.7848e+8 
           3270      9.61615e+8 
           3290      9.42789e+8 
           3310      9.27545e+8 
           3330      9.10593e+8 
           3350      8.92603e+8 
           3370      8.78258e+8 
           3390      8.62943e+8 
           3410      8.47828e+8 
           3430      8.29324e+8 
           3450      8.12014e+8 
           3470      8.00115e+8 
           3490      7.86207e+8 
           3510      7.74307e+8 
           3530      7.62867e+8 
           3550      7.50111e+8 
           3570      7.41552e+8 
           3590      7.23404e+8 
           3610      7.12982e+8 
           3630      7.00115e+8 
           3640      6.99345e+8 
           3650      6.88477e+8 
           3670      6.80322e+8 
           3690      6.67821e+8 
           3710      6.44765e+8 
           3730      6.17318e+8 
           3750      6.40219e+8 
           3770       6.4015e+8 
           3790      6.84843e+8 
           3810      7.20935e+8 
           3830      6.19917e+8 
           3850      7.50968e+8 
           3870      7.68305e+8 
           3890      5.82916e+8 
           3910      7.61709e+8 
           3930      7.51805e+8 
           3950      7.38416e+8 
           3970       5.4386e+8 
           3990      7.05204e+8 
           4010      7.11916e+8 
           4030      6.61722e+8 
           4050      6.98106e+8 
           4070      6.77571e+8 
           4090      6.05943e+8 
           4110      5.20866e+8 
           4130      6.33378e+8 
           4150      6.33544e+8 
           4170      6.30471e+8 
           4190       6.2378e+8 
           4210      6.14849e+8 
           4230      6.03912e+8 
           4250      5.92964e+8 
           4270      5.77298e+8 
           4290      5.71969e+8 
           4310      5.56817e+8 
           4330      4.87245e+8 
           4350      4.41245e+8 
           4370      5.27566e+8 
           4390      5.09301e+8 
           4410      5.19627e+8 
           4430      5.10531e+8 
           4450      5.05439e+8 
           4470      4.69344e+8 
           4490      4.86905e+8 
           4510      4.83411e+8 
           4530      4.75187e+8 
           4550       4.6798e+8 
           4570      4.60844e+8 
           4590      4.54137e+8 
           4610      4.46659e+8 
           4630      4.39487e+8 
           4650      4.31899e+8 
           4670       4.2712e+8 
           4690      4.21532e+8 
           4710      4.07448e+8 
           4730       4.0662e+8 
           4750      4.00348e+8 
           4770      3.97411e+8 
           4790      3.90914e+8 
           4810      3.83208e+8 
           4830      3.74325e+8 
           4850      3.35545e+8 
           4870      2.96848e+8 
           4890      3.56483e+8 
           4910      3.56007e+8 
           4930      3.41561e+8 
           4950      3.48185e+8 
           4970      3.43772e+8 
           4990      3.38722e+8 
           5010      3.27318e+8 
           5030      3.28919e+8 
           5050      3.20661e+8 
           5070      3.20232e+8 
           5090      3.15758e+8 
           5110      3.11155e+8 
           5130      3.06258e+8 
           5150      3.02051e+8 
           5170      2.98803e+8 
           5190      2.94742e+8 
           5210      2.89721e+8 
           5230      2.86821e+8 
           5250      2.82972e+8 
           5270      2.79106e+8 
           5290      2.75546e+8 
           5310      2.71817e+8 
           5330      2.68084e+8 
           5350      2.64201e+8 
           5370       2.6127e+8 
           5390      2.57817e+8 
           5410      2.54421e+8 
           5430      2.50736e+8 
           5450      2.47631e+8 
           5470      2.44426e+8 
           5490      2.41424e+8 
           5510      2.38309e+8 
           5530      2.35246e+8 
           5550      2.32318e+8 
           5570      2.29293e+8 
           5590      2.26449e+8 
           5610      2.23437e+8 
           5630      2.20806e+8 
           5650      2.17322e+8 
           5670      2.14597e+8 
           5690       2.1202e+8 
           5710      2.09833e+8 
           5730      2.07257e+8 
           5750      2.04622e+8 
           5770      2.02244e+8 
           5790      1.99737e+8 
           5810       1.9727e+8 
           5830      1.94822e+8 
           5850       1.9249e+8 
           5870      1.83451e+8 
           5890      1.86779e+8 
           5910      1.85517e+8 
           5930      1.83271e+8 
           5950      1.80902e+8 
           5970      1.78995e+8 
           5990      1.76731e+8 
           6010      1.74774e+8 
           6030      1.72674e+8 
           6050      1.70669e+8 
           6070      1.68657e+8 
           6090      1.66647e+8 
           6110       1.6473e+8 
           6130      1.62825e+8 
           6150      1.60662e+8 
           6170      1.59019e+8 
           6190      1.57216e+8 
           6210      1.55404e+8 
           6230      1.53612e+8 
           6250      1.51733e+8 
           6270      1.50096e+8 
           6290      1.48391e+8 
           6310      1.46657e+8 
           6330      1.45055e+8 
           6350      1.43003e+8 
           6370      1.41586e+8 
           6390      1.40175e+8 
           6410      1.38596e+8 
           6430      1.37115e+8 
           6450      1.35551e+8 
           6470       1.3394e+8 
           6490       1.3249e+8 
           6510      1.30682e+8 
           6530      1.28486e+8 
           6550      1.20748e+8 
           6570       1.0612e+8 
           6590      1.22618e+8 
           6610      1.23498e+8 
           6630      1.22591e+8 
           6650      1.21489e+8 
           6670      1.18729e+8 
           6690      1.17515e+8 
           6710      1.17619e+8 
           6730      1.16347e+8 
           6750      1.15138e+8 
           6770      1.13916e+8 
           6790      1.12453e+8 
           6810      1.11469e+8 
           6830        1.103e+8 
           6850      1.09159e+8 
           6870      1.08014e+8 
           6890      1.06879e+8 
           6910      1.05765e+8 
           6930      1.04637e+8 
           6950      1.03584e+8 
           6970      1.02509e+8 
           6990      1.01445e+8 
           7010        1.004e+8 
           7030      9.93642e+7 
           7050      9.83237e+7 
           7070      9.57031e+7 
           7090      9.63555e+7 
           7110      9.53596e+7 
           7130       9.4403e+7 
           7150      9.34408e+7 
           7170      9.24952e+7 
           7190      9.15806e+7 
           7210      9.06601e+7 
           7230      8.90422e+7 
           7250      8.88383e+7 
           7270      8.79724e+7 
           7290      8.63632e+7 
           7310      8.62226e+7 
           7330      8.53811e+7 
           7350      8.45405e+7 
           7370      8.37078e+7 
           7390      8.28828e+7 
           7410      8.20724e+7 
           7430       8.1249e+7 
           7450      8.04807e+7 
           7470      7.96723e+7 
           7490      7.89183e+7 
           7510      7.81378e+7 
           7530      7.74044e+7 
           7550       7.6671e+7 
           7570      7.59377e+7 
           7590      7.52045e+7 
           7610      7.44845e+7 
           7630      7.37774e+7 
           7650      7.30767e+7 
           7670      7.23887e+7 
           7690      7.17005e+7 
           7710      7.10248e+7 
           7730      7.03551e+7 
           7750      6.96977e+7 
           7770      6.88152e+7 
           7790      6.84002e+7 
           7810       6.7723e+7 
           7830      6.71317e+7 
           7850      6.65149e+7 
           7870      6.59097e+7 
           7890      6.52189e+7 
           7910       6.4739e+7 
           7930      6.41492e+7 
           7950       6.3499e+7 
           7970      6.28664e+7 
           7990      6.22216e+7 
           8010       6.1694e+7 
           8030      6.11242e+7 
           8050      6.05709e+7 
           8070      6.00685e+7 
           8090      5.94265e+7 
           8110      5.89677e+7 
           8130      5.84727e+7 
           8150      5.79025e+7 
           8170      5.74614e+7 
           8190      5.68609e+7 
           8210      5.62321e+7 
           8230      5.58479e+7 
           8250      5.54225e+7 
           8270      5.46744e+7 
           8290       5.4418e+7 
           8310       5.3966e+7 
           8330      5.34732e+7 
           8350      5.27548e+7 
           8370      5.24573e+7 
           8390      5.20924e+7 
           8410      5.16335e+7 
           8430      5.11349e+7 
           8450      5.02858e+7 
           8470      5.02114e+7 
           8490      4.96699e+7 
           8510      4.92161e+7 
           8530      4.88246e+7 
           8550      4.79229e+7 
           8570      4.84514e+7 
