# Kurucz ODFNEW /NOVER (2003)
# teff = 26000 K (value for the effective temperature for the model. Temperatures are given in K)
# logg = 3 log(cm/s2) (value for Log(G) for the model.)
# meta = -2  (value for the Metallicity for the model.)
# lh = 1.25  (l/Hp where l is the  mixing length of the convective element and Hp is the pressure scale height)
# vtur = 2 km/s (Microturbulence velocity)
# alpha = 0.4  (Alpha)
#
# column 1: WAVELENGTH (ANGSTROM), Wavelength in Angstrom
# column 2: FLUX (ERG/CM2/S/A), Flux in erg/cm2/s/A
          147.2     5.43748e-12 
            151     2.16511e-11 
          155.2     9.22373e-11 
          158.8     3.00772e-10 
            162     8.23999e-10 
            166       2.7526e-9 
          170.3      9.44808e-9 
          173.4       2.2157e-8 
          176.8      5.45493e-8 
          180.2      1.29857e-7 
          181.7       1.8844e-7 
          186.1      5.43656e-7 
            191      1.67097e-6 
          193.9      3.16506e-6 
          198.4      8.21908e-6 
          201.8      1.64408e-5 
            205      3.09227e-5 
          210.5      8.76395e-5 
          216.2     0.000244112 
          219.8     0.000453741 
            223     0.000774156 
          226.8      0.00143175 
            230        0.726041 
            234         1.94178 
            240         4.00524 
          246.5         8.74084 
          252.4         17.0761 
          256.8         21.6962 
            260         37.5308 
            264         53.3295 
          268.5         83.7307 
          273.5         132.148 
          278.5           202.1 
            284         336.378 
            290         539.337 
            296         841.553 
            301         1107.14 
            308         1677.54 
            318         3997.75 
            328         7269.23 
            338         13340.1 
            348           22957 
            357         38950.2 
            366           62057 
            375         90897.3 
            385          142129 
            395          213311 
            405          310594 
            414          434634 
            422          562014 
            430          730904 
            441      1.03079e+6 
            451      1.39569e+6 
            460      1.77914e+6 
            470       2.3419e+6 
            480      3.01269e+6 
            490      3.84088e+6 
            500      4.88859e+6 
            506      5.09396e+7 
            512      1.63198e+8 
            520      1.64401e+8 
            530      1.75436e+8 
            540      1.65161e+8 
            550      1.99922e+8 
            560      2.20175e+8 
            570      2.38166e+8 
            580      2.24201e+8 
            590      2.62791e+8 
            600      2.75954e+8 
            610      2.99409e+8 
            620      3.22445e+8 
            630      3.43385e+8 
            640      3.51547e+8 
            650      3.78727e+8 
            658      3.96626e+8 
            665      4.14413e+8 
            675      4.27708e+8 
            685      4.38137e+8 
            695      4.91384e+8 
            705      4.95082e+8 
            716      5.44699e+8 
            726       5.6264e+8 
            735      5.91547e+8 
            745      6.26598e+8 
            755      6.52064e+8 
            765      6.83453e+8 
            775      7.17675e+8 
            785      7.55813e+8 
            795      7.80192e+8 
            805      8.10693e+8 
            815      8.33629e+8 
            825      8.76254e+8 
            835      8.54095e+8 
            845      9.29867e+8 
            855      9.60447e+8 
            865      9.97126e+8 
            875      1.03518e+9 
            885      1.07339e+9 
            895      1.10777e+9 
            905      1.12988e+9 
            915       2.7884e+9 
            925     1.83551e+10 
            935      2.4569e+10 
            945     2.99068e+10 
            955      3.1131e+10 
            965     3.26118e+10 
            975     2.27573e+10 
            985     3.05721e+10 
            995     2.93427e+10 
           1005     2.99463e+10 
           1015     2.95156e+10 
           1025     2.51021e+10 
           1035     2.84197e+10 
           1045      3.0137e+10 
           1055     2.95098e+10 
           1065     2.75234e+10 
           1075     2.79969e+10 
           1085     2.67785e+10 
           1095     2.78359e+10 
           1105     2.69638e+10 
           1115     2.65605e+10 
           1125     2.48167e+10 
           1135     2.60442e+10 
           1145     2.50691e+10 
           1155     2.51797e+10 
           1165     2.49905e+10 
           1175     2.15973e+10 
           1185       2.393e+10 
           1195     2.33302e+10 
           1205     2.18637e+10 
           1215     1.84638e+10 
           1225     2.26134e+10 
           1235     2.25421e+10 
           1245     2.19241e+10 
           1255     2.18858e+10 
           1265     2.15824e+10 
           1275     2.13353e+10 
           1285     2.10169e+10 
           1295     1.96887e+10 
           1305     1.99058e+10 
           1315     2.00573e+10 
           1325     1.95915e+10 
           1335     1.90806e+10 
           1345     1.90497e+10 
           1355     1.88879e+10 
           1365     1.84705e+10 
           1375     1.82101e+10 
           1385     1.79964e+10 
           1395     1.64092e+10 
           1405     1.64724e+10 
           1415     1.70473e+10 
           1425     1.67202e+10 
           1435     1.66295e+10 
           1442     1.65361e+10 
           1447     1.63869e+10 
           1455     1.61469e+10 
           1465     1.59042e+10 
           1475     1.56702e+10 
           1485     1.54665e+10 
           1495     1.51803e+10 
           1505     1.48541e+10 
           1512     1.47741e+10 
           1517     1.46587e+10 
           1525     1.44416e+10 
           1535     1.38788e+10 
           1545     1.35407e+10 
           1555     1.33007e+10 
           1565     1.33666e+10 
           1575     1.33488e+10 
           1585     1.31948e+10 
           1595     1.30259e+10 
           1605     1.25804e+10 
           1615     1.23822e+10 
           1625     1.22407e+10 
           1635     1.21451e+10 
           1645     1.17122e+10 
           1655     1.18938e+10 
           1665     1.16728e+10 
           1672     1.15391e+10 
           1677     1.16793e+10 
           1685     1.14955e+10 
           1695     1.13003e+10 
           1705     1.10921e+10 
           1715     1.08345e+10 
           1725     1.06853e+10 
           1735     1.06832e+10 
           1745     1.05117e+10 
           1755     1.03716e+10 
           1765     1.01835e+10 
           1775      1.0058e+10 
           1785      9.95295e+9 
           1795      9.82997e+9 
           1805       9.7343e+9 
           1815      9.55277e+9 
           1825       9.4245e+9 
           1835      9.31982e+9 
           1845      9.04786e+9 
           1855      8.86288e+9 
           1865      8.80892e+9 
           1875      8.76514e+9 
           1885      8.50169e+9 
           1895      8.29334e+9 
           1905      8.36201e+9 
           1915       8.1317e+9 
           1925       7.9906e+9 
           1935      7.98983e+9 
           1945       7.9506e+9 
           1955      7.66258e+9 
           1967      7.70345e+9 
           1976      7.67791e+9 
           1984      7.50395e+9 
           1995      7.29876e+9 
           2005      7.34702e+9 
           2015      7.29172e+9 
           2025      7.21722e+9 
           2035      7.07432e+9 
           2045      6.97882e+9 
           2055      6.43041e+9 
           2065      6.31987e+9 
           2074      6.46018e+9 
           2078      6.41326e+9 
           2085      6.57358e+9 
           2095      6.47775e+9 
           2105      6.45929e+9 
           2115      6.42008e+9 
           2125      6.34403e+9 
           2135      6.26201e+9 
           2145      6.16847e+9 
           2155      6.11598e+9 
           2165      6.01967e+9 
           2175      5.96046e+9 
           2185      5.87099e+9 
           2195      5.81809e+9 
           2205      5.74343e+9 
           2215      5.65291e+9 
           2225      5.59635e+9 
           2235      5.52331e+9 
           2245      5.45836e+9 
           2255      5.37005e+9 
           2265      5.32186e+9 
           2275      5.25596e+9 
           2285      5.18783e+9 
           2295      5.04187e+9 
           2305       5.0436e+9 
           2315      4.99583e+9 
           2325      4.93462e+9 
           2335      4.87109e+9 
           2345       4.8158e+9 
           2355      4.75671e+9 
           2365      4.69879e+9 
           2375      4.63994e+9 
           2385      4.56435e+9 
           2395      4.52343e+9 
           2405      4.47306e+9 
           2415       4.4171e+9 
           2425      4.36562e+9 
           2435      4.31027e+9 
           2445      4.26028e+9 
           2455      4.20958e+9 
           2465      4.15993e+9 
           2475      4.10947e+9 
           2485      4.06066e+9 
           2495      3.77956e+9 
           2505       3.9606e+9 
           2513      3.88322e+9 
           2518      3.89099e+9 
           2525       3.8721e+9 
           2535      3.82737e+9 
           2545      3.76617e+9 
           2555      3.73375e+9 
           2565       3.6933e+9 
           2575      3.65154e+9 
           2585      3.60931e+9 
           2595      3.56722e+9 
           2605      3.53767e+9 
           2615      3.49634e+9 
           2625      3.45461e+9 
           2635       3.4108e+9 
           2645      3.37289e+9 
           2655      3.33278e+9 
           2665      3.29243e+9 
           2675      3.25349e+9 
           2685      3.22705e+9 
           2695       3.1769e+9 
           2705      3.15392e+9 
           2715      3.11852e+9 
           2725      3.06939e+9 
           2735      3.03681e+9 
           2745      3.01513e+9 
           2755      2.98166e+9 
           2765      2.93274e+9 
           2775      2.91633e+9 
           2785      2.88338e+9 
           2795      2.83747e+9 
           2805      2.81699e+9 
           2815      2.78992e+9 
           2825      2.74358e+9 
           2835        2.723e+9 
           2845      2.69961e+9 
           2855       2.6695e+9 
           2865      2.64075e+9 
           2875      2.61234e+9 
           2885      2.58458e+9 
           2895      2.55659e+9 
           2910      2.51509e+9 
           2930      2.46204e+9 
           2950      2.39916e+9 
           2970       2.3591e+9 
           2990       2.3094e+9 
           3010       2.2606e+9 
           3030      2.21416e+9 
           3050      2.16889e+9 
           3070       2.1249e+9 
           3090      2.07696e+9 
           3110      2.03877e+9 
           3130      1.99818e+9 
           3150      1.95736e+9 
           3170      1.91797e+9 
           3190      1.86904e+9 
           3210      1.83932e+9 
           3230      1.80574e+9 
           3250      1.77035e+9 
           3270      1.73654e+9 
           3290      1.70132e+9 
           3310      1.66996e+9 
           3330      1.63739e+9 
           3350      1.60403e+9 
           3370      1.57526e+9 
           3390      1.54562e+9 
           3410      1.51636e+9 
           3430      1.48339e+9 
           3450      1.45175e+9 
           3470      1.42768e+9 
           3490      1.40162e+9 
           3510      1.37985e+9 
           3530      1.35468e+9 
           3550      1.32983e+9 
           3570       1.3095e+9 
           3590      1.28031e+9 
           3610       1.2585e+9 
           3630      1.23406e+9 
           3640      1.22789e+9 
           3650      1.20825e+9 
           3670      1.18958e+9 
           3690      1.15522e+9 
           3710       1.1379e+9 
           3730      1.12145e+9 
           3750      1.17253e+9 
           3770      1.15858e+9 
           3790      1.15811e+9 
           3810      1.17814e+9 
           3830      1.09039e+9 
           3850      1.15844e+9 
           3870      1.13606e+9 
           3890      1.04456e+9 
           3910      1.10576e+9 
           3930      1.08144e+9 
           3950      1.06834e+9 
           3970      9.69688e+8 
           3990      1.03264e+9 
           4010       1.0121e+9 
           4030      9.83154e+8 
           4050      9.83114e+8 
           4070      9.64606e+8 
           4090      9.40714e+8 
           4110      8.72592e+8 
           4130      9.14519e+8 
           4150      9.00038e+8 
           4170      8.89302e+8 
           4190      8.75533e+8 
           4210        8.609e+8 
           4230      8.48104e+8 
           4250      8.34071e+8 
           4270      8.20346e+8 
           4290        8.077e+8 
           4310      7.94685e+8 
           4330      7.70663e+8 
           4350      7.22401e+8 
           4370      7.57941e+8 
           4390      7.40045e+8 
           4410      7.34045e+8 
           4430      7.22384e+8 
           4450      7.12499e+8 
           4470      6.90112e+8 
           4490      6.90798e+8 
           4510      6.80425e+8 
           4530      6.70116e+8 
           4550      6.58906e+8 
           4570      6.49634e+8 
           4590      6.39783e+8 
           4610      6.30485e+8 
           4630      6.21078e+8 
           4650      6.09126e+8 
           4670      6.02417e+8 
           4690      5.90799e+8 
           4710       5.8007e+8 
           4730      5.76707e+8 
           4750      5.68187e+8 
           4770      5.60055e+8 
           4790      5.51923e+8 
           4810      5.43891e+8 
           4830      5.35876e+8 
           4850      5.22448e+8 
           4870      4.85365e+8 
           4890      5.13322e+8 
           4910      5.06023e+8 
           4930      4.93649e+8 
           4950       4.9162e+8 
           4970      4.84926e+8 
           4990      4.78112e+8 
           5010      4.67923e+8 
           5030       4.6485e+8 
           5050      4.56862e+8 
           5070      4.52048e+8 
           5090      4.45783e+8 
           5110       4.3966e+8 
           5130      4.33633e+8 
           5150      4.27687e+8 
           5170      4.21847e+8 
           5190      4.16141e+8 
           5210      4.10509e+8 
           5230      4.04965e+8 
           5250      3.99521e+8 
           5270      3.94161e+8 
           5290      3.88898e+8 
           5310      3.83703e+8 
           5330      3.78614e+8 
           5350      3.73603e+8 
           5370       3.6867e+8 
           5390        3.638e+8 
           5410      3.58605e+8 
           5430      3.54358e+8 
           5450      3.49733e+8 
           5470      3.45191e+8 
           5490      3.40718e+8 
           5510      3.36325e+8 
           5530         3.32e+8 
           5550       3.2774e+8 
           5570      3.23545e+8 
           5590      3.19402e+8 
           5610      3.15357e+8 
           5630      3.11361e+8 
           5650      3.07426e+8 
           5670      3.03527e+8 
           5690      2.99488e+8 
           5710      2.95141e+8 
           5730      2.91489e+8 
           5750      2.87824e+8 
           5770      2.84327e+8 
           5790      2.80849e+8 
           5810      2.77457e+8 
           5830      2.74382e+8 
           5850      2.71276e+8 
           5870      2.62882e+8 
           5890       2.6465e+8 
           5910      2.61481e+8 
           5930      2.58307e+8 
           5950       2.5519e+8 
           5970       2.5213e+8 
           5990      2.49105e+8 
           6010      2.46115e+8 
           6030      2.43179e+8 
           6050      2.40288e+8 
           6070      2.37429e+8 
           6090      2.34622e+8 
           6110      2.31848e+8 
           6130      2.29124e+8 
           6150      2.26431e+8 
           6170      2.23778e+8 
           6190      2.21174e+8 
           6210      2.18599e+8 
           6230      2.16062e+8 
           6250      2.13563e+8 
           6270      2.11091e+8 
           6290      2.08665e+8 
           6310      2.06266e+8 
           6330      2.03911e+8 
           6350      2.01583e+8 
           6370      1.99288e+8 
           6390      1.97028e+8 
           6410      1.94792e+8 
           6430      1.92598e+8 
           6450      1.90427e+8 
           6470       1.8828e+8 
           6490      1.86173e+8 
           6510      1.84097e+8 
           6530      1.82008e+8 
           6550      1.78818e+8 
           6570      1.65285e+8 
           6590      1.75899e+8 
           6610       1.7412e+8 
           6630      1.72214e+8 
           6650      1.70379e+8 
           6670      1.67521e+8 
           6690      1.65696e+8 
           6710      1.64869e+8 
           6730      1.63075e+8 
           6750      1.61325e+8 
           6770      1.59592e+8 
           6790      1.57869e+8 
           6810       1.5618e+8 
           6830      1.54507e+8 
           6850       1.5286e+8 
           6870      1.51228e+8 
           6890       1.4959e+8 
           6910      1.48031e+8 
           6930      1.46472e+8 
           6950      1.44936e+8 
           6970      1.43415e+8 
           6990      1.41902e+8 
           7010      1.40426e+8 
           7030      1.38957e+8 
           7050      1.37518e+8 
           7070      1.34375e+8 
           7090      1.34682e+8 
           7110      1.33292e+8 
           7130      1.31915e+8 
           7150      1.30567e+8 
           7170      1.29187e+8 
           7190      1.27908e+8 
           7210      1.26605e+8 
           7230      1.25257e+8 
           7250       1.2403e+8 
           7270      1.22792e+8 
           7290      1.20765e+8 
           7310      1.20317e+8 
           7330      1.19121e+8 
           7350      1.17923e+8 
           7370       1.1675e+8 
           7390      1.15588e+8 
           7410      1.14436e+8 
           7430      1.13302e+8 
           7450      1.12192e+8 
           7470      1.11073e+8 
           7490       1.0999e+8 
           7510      1.08884e+8 
           7530      1.07841e+8 
           7550      1.06788e+8 
           7570      1.05745e+8 
           7590      1.04698e+8 
           7610      1.03693e+8 
           7630      1.02697e+8 
           7650      1.01704e+8 
           7670      1.00726e+8 
           7690      9.97564e+7 
           7710      9.87959e+7 
           7730      9.78566e+7 
           7750      9.69132e+7 
           7770      9.59968e+7 
           7790      9.50886e+7 
           7810       9.4139e+7 
           7830      9.32961e+7 
           7850       9.2479e+7 
           7870       9.1602e+7 
           7890      9.07206e+7 
           7910      8.98952e+7 
           7930      8.90589e+7 
           7950      8.81941e+7 
           7970      8.73072e+7 
           7990      8.65343e+7 
           8010      8.56682e+7 
           8030      8.49148e+7 
           8050      8.41504e+7 
           8070      8.33925e+7 
           8090      8.25145e+7 
           8110      8.17701e+7 
           8130      8.11517e+7 
           8150      8.02718e+7 
           8170      7.96817e+7 
           8190      7.89111e+7 
           8210      7.80073e+7 
           8230      7.74618e+7 
           8250      7.67933e+7 
           8270      7.58054e+7 
           8290      7.53359e+7 
           8310      7.46791e+7 
           8330      7.39952e+7 
           8350        7.309e+7 
           8370      7.25045e+7 
           8390      7.19238e+7 
           8410      7.12412e+7 
           8430      7.05749e+7 
           8450      6.97242e+7 
           8470      6.89594e+7 
           8490      6.90217e+7 
           8510      6.74595e+7 
           8530      6.80652e+7 
           8550      6.55208e+7 
           8570      6.75749e+7 
           8590      6.49631e+7 
