# Kurucz ODFNEW /NOVER (2003)
# teff = 25000 K (value for the effective temperature for the model. Temperatures are given in K)
# logg = 5 log(cm/s2) (value for Log(G) for the model.)
# meta = -2.5  (value for the Metallicity for the model.)
# lh = 1.25  (l/Hp where l is the  mixing length of the convective element and Hp is the pressure scale height)
# vtur = 2 km/s (Microturbulence velocity)
# alpha = 0  (Alpha)
#
# column 1: WAVELENGTH (ANGSTROM), Wavelength in Angstrom
# column 2: FLUX (ERG/CM2/S/A), Flux in erg/cm2/s/A
          147.2     3.65848e-14 
            151     1.78939e-13 
          155.2     9.46366e-13 
          158.8     3.68088e-12 
            162     1.17074e-11 
            166     4.67002e-11 
          170.3     1.92105e-10 
          173.4     5.09584e-10 
          176.8      1.42758e-9 
          180.2      3.84374e-9 
          181.7      5.87889e-9 
          186.1      1.96364e-8 
            191      7.03436e-8 
          193.9      1.45072e-7 
          198.4      4.27105e-7 
          201.8      9.34348e-7 
            205       1.9044e-6 
          210.5      6.14352e-6 
          216.2      1.93666e-5 
          219.8      3.87287e-5 
            223      7.03073e-5 
          226.8     0.000139491 
            230     0.000489869 
            234      0.00104819 
            240      0.00263743 
          246.5      0.00679898 
          252.4       0.0154759 
          256.8       0.0273134 
            260       0.0418008 
            264       0.0688638 
          268.5        0.118398 
          273.5        0.211506 
          278.5        0.370147 
            284        0.668534 
            290         1.24003 
            296         2.23786 
            301         3.59436 
            308           6.715 
            318         15.9902 
            328          35.623 
            338         75.4191 
            348         152.494 
            357          276.97 
            366         487.687 
            375         833.212 
            385         1463.66 
            395         2491.33 
            405         4120.42 
            414         6334.87 
            422         9125.03 
            430         12946.1 
            441         20475.2 
            451         30384.5 
            460         42636.7 
            470         61076.6 
            480         86008.4 
            490          119235 
            500          162807 
            506          807706 
            512      2.77578e+6 
            520      3.42136e+6 
            530      4.66868e+6 
            540      4.98508e+6 
            550      6.64513e+6 
            560      7.74301e+6 
            570      9.09125e+6 
            580      9.25036e+6 
            590      1.16666e+7 
            600      1.38657e+7 
            610      1.58528e+7 
            620      1.79633e+7 
            630      2.03276e+7 
            640      2.27095e+7 
            650      2.56301e+7 
            658      2.80247e+7 
            665      3.02031e+7 
            675      3.32977e+7 
            685      3.66521e+7 
            695      4.09499e+7 
            705      4.49203e+7 
            716      4.96007e+7 
            726      5.41319e+7 
            735      5.86791e+7 
            745      6.38246e+7 
            755      6.92028e+7 
            765      7.47762e+7 
            775      8.07056e+7 
            785      8.68546e+7 
            795      9.31713e+7 
            805       9.9812e+7 
            815      1.06645e+8 
            825      1.13839e+8 
            835      1.19996e+8 
            845      1.28696e+8 
            855      1.36221e+8 
            865      1.44589e+8 
            875      1.52945e+8 
            885      1.61481e+8 
            895      1.70144e+8 
            905      1.77632e+8 
            915      2.38648e+8 
            925      1.03721e+9 
            935      2.79273e+9 
            945     1.06258e+10 
            955     1.94518e+10 
            965     2.74582e+10 
            975      9.80438e+9 
            985     3.75963e+10 
            995     3.79772e+10 
           1005     3.92498e+10 
           1015     3.11736e+10 
           1025      6.21054e+9 
           1035     2.68364e+10 
           1045     3.62921e+10 
           1055      3.6264e+10 
           1065     3.42676e+10 
           1075      3.4347e+10 
           1085     3.16635e+10 
           1095     3.30283e+10 
           1105     3.16557e+10 
           1115     3.09117e+10 
           1125       2.944e+10 
           1135     2.95687e+10 
           1145     2.83938e+10 
           1155     2.81277e+10 
           1165      2.7427e+10 
           1175     2.45377e+10 
           1185     2.57243e+10 
           1195     2.38124e+10 
           1205     1.88175e+10 
           1215      4.56753e+9 
           1225     1.70761e+10 
           1235     2.19239e+10 
           1245     2.20266e+10 
           1255     2.18564e+10 
           1265     2.12846e+10 
           1275     2.10347e+10 
           1285     2.05797e+10 
           1295     1.94955e+10 
           1305     1.92516e+10 
           1315     1.92183e+10 
           1325     1.85888e+10 
           1335     1.79522e+10 
           1345     1.79328e+10 
           1355     1.75893e+10 
           1365     1.71647e+10 
           1375     1.68121e+10 
           1385     1.64593e+10 
           1395     1.58358e+10 
           1405     1.55818e+10 
           1415     1.54175e+10 
           1425     1.51182e+10 
           1435     1.48152e+10 
           1442     1.46189e+10 
           1447     1.44646e+10 
           1455     1.42278e+10 
           1465     1.39298e+10 
           1475     1.36538e+10 
           1485     1.33765e+10 
           1495     1.31136e+10 
           1505     1.28107e+10 
           1512     1.26393e+10 
           1517     1.25277e+10 
           1525     1.23259e+10 
           1535     1.20021e+10 
           1545     1.17814e+10 
           1555     1.15266e+10 
           1565     1.14084e+10 
           1575     1.12122e+10 
           1585     1.10046e+10 
           1595      1.0806e+10 
           1605     1.05485e+10 
           1615     1.03514e+10 
           1625     1.02152e+10 
           1635     1.00313e+10 
           1645      9.72485e+9 
           1655      9.68182e+9 
           1665      9.52143e+9 
           1672      9.36816e+9 
           1677      9.32778e+9 
           1685      9.19285e+9 
           1695      9.02386e+9 
           1705      8.85844e+9 
           1715      8.69204e+9 
           1725      8.54813e+9 
           1735      8.41258e+9 
           1745      8.26559e+9 
           1755      8.13717e+9 
           1765      7.94086e+9 
           1775      7.84757e+9 
           1785      7.72997e+9 
           1795      7.60971e+9 
           1805      7.48932e+9 
           1815      7.35762e+9 
           1825      7.24225e+9 
           1835      7.12382e+9 
           1845       6.9763e+9 
           1855       6.7894e+9 
           1865      6.70758e+9 
           1875      6.67052e+9 
           1885      6.51829e+9 
           1895      6.36753e+9 
           1905      6.34249e+9 
           1915      6.18468e+9 
           1925      6.09091e+9 
           1935      6.02831e+9 
           1945      5.96748e+9 
           1955      5.82054e+9 
           1967      5.77067e+9 
           1976      5.71089e+9 
           1984      5.61497e+9 
           1995      5.48592e+9 
           2005      5.45908e+9 
           2015      5.38953e+9 
           2025      5.31668e+9 
           2035      5.22789e+9 
           2045      5.15122e+9 
           2055      5.04625e+9 
           2065      4.96534e+9 
           2074      4.94152e+9 
           2078      4.86397e+9 
           2085      4.85373e+9 
           2095      4.77093e+9 
           2105      4.72758e+9 
           2115      4.66799e+9 
           2125      4.60706e+9 
           2135      4.54127e+9 
           2145      4.47504e+9 
           2155        4.416e+9 
           2165      4.35585e+9 
           2175      4.29494e+9 
           2185      4.23741e+9 
           2195      4.18036e+9 
           2205      4.12331e+9 
           2215      4.06774e+9 
           2225      4.01238e+9 
           2235      3.95831e+9 
           2245      3.90646e+9 
           2255      3.85388e+9 
           2265       3.8037e+9 
           2275      3.75337e+9 
           2285       3.7045e+9 
           2295      3.63853e+9 
           2305      3.60795e+9 
           2315      3.56061e+9 
           2325      3.51485e+9 
           2335      3.46864e+9 
           2345      3.42398e+9 
           2355      3.38152e+9 
           2365      3.33776e+9 
           2375      3.29548e+9 
           2385      3.25294e+9 
           2395      3.21223e+9 
           2405      3.17223e+9 
           2415      3.13219e+9 
           2425      3.09423e+9 
           2435      3.05521e+9 
           2445      3.01748e+9 
           2455      2.98076e+9 
           2465      2.94379e+9 
           2475      2.90787e+9 
           2485      2.87225e+9 
           2495      2.81799e+9 
           2505      2.80256e+9 
           2513      2.77114e+9 
           2518       2.7589e+9 
           2525      2.73559e+9 
           2535      2.70261e+9 
           2545      2.66932e+9 
           2555      2.63906e+9 
           2565      2.60764e+9 
           2575      2.57731e+9 
           2585      2.54698e+9 
           2595      2.51704e+9 
           2605      2.50614e+9 
           2615      2.47709e+9 
           2625      2.44819e+9 
           2635      2.41787e+9 
           2645      2.38912e+9 
           2655      2.35839e+9 
           2665       2.3256e+9 
           2675      2.29387e+9 
           2685      2.28408e+9 
           2695      2.23796e+9 
           2705      2.23236e+9 
           2715        2.207e+9 
           2725      2.16039e+9 
           2735      2.15747e+9 
           2745      2.13238e+9 
           2755      2.10883e+9 
           2765      2.06434e+9 
           2775      2.06284e+9 
           2785      2.03989e+9 
           2795      2.01033e+9 
           2805      1.99329e+9 
           2815      1.97335e+9 
           2825      1.92547e+9 
           2835      1.91387e+9 
           2845      1.90947e+9 
           2855      1.88877e+9 
           2865      1.86836e+9 
           2875      1.84823e+9 
           2885      1.82838e+9 
           2895       1.8088e+9 
           2910      1.77992e+9 
           2930      1.74228e+9 
           2950      1.68956e+9 
           2970      1.67025e+9 
           2990      1.63551e+9 
           3010      1.60183e+9 
           3030       1.5691e+9 
           3050      1.53713e+9 
           3070      1.50597e+9 
           3090      1.47549e+9 
           3110      1.44606e+9 
           3130      1.41887e+9 
           3150      1.39066e+9 
           3170      1.36309e+9 
           3190      1.32198e+9 
           3210      1.30962e+9 
           3230      1.28385e+9 
           3250      1.25878e+9 
           3270      1.23621e+9 
           3290      1.21068e+9 
           3310      1.18963e+9 
           3330      1.16716e+9 
           3350      1.14293e+9 
           3370      1.12386e+9 
           3390      1.10297e+9 
           3410      1.08259e+9 
           3430      1.05799e+9 
           3450      1.03462e+9 
           3470      1.01897e+9 
           3490      1.00055e+9 
           3510      9.83831e+8 
           3530      9.67363e+8 
           3550      9.50844e+8 
           3570      9.40604e+8 
           3590      9.16122e+8 
           3610      9.04236e+8 
           3630      8.84579e+8 
           3640      8.84616e+8 
           3650      8.75336e+8 
           3670      8.64283e+8 
           3690      8.49682e+8 
           3710      8.21496e+8 
           3730      7.89992e+8 
           3750      7.86839e+8 
           3770      7.69209e+8 
           3790       8.1097e+8 
           3810      8.52203e+8 
           3830      7.32456e+8 
           3850      8.89053e+8 
           3870      9.17217e+8 
           3890      6.85463e+8 
           3910      9.05766e+8 
           3930      9.11328e+8 
           3950      8.79522e+8 
           3970      6.38515e+8 
           3990      8.38099e+8 
           4010      8.51408e+8 
           4030       7.8559e+8 
           4050      8.37911e+8 
           4070      8.16392e+8 
           4090      7.14674e+8 
           4110      6.11501e+8 
           4130      7.59736e+8 
           4150      7.60371e+8 
           4170      7.57493e+8 
           4190      7.48626e+8 
           4210      7.36217e+8 
           4230      7.23881e+8 
           4250      7.11745e+8 
           4270      6.98047e+8 
           4290       6.8486e+8 
           4310      6.65053e+8 
           4330       5.7222e+8 
           4350      5.17258e+8 
           4370      6.29102e+8 
           4390      6.03952e+8 
           4410      6.21887e+8 
           4430       6.1018e+8 
           4450        6.029e+8 
           4470      5.53115e+8 
           4490      5.83162e+8 
           4510      5.76075e+8 
           4530      5.67015e+8 
           4550      5.58129e+8 
           4570      5.49449e+8 
           4590      5.40934e+8 
           4610      5.32598e+8 
           4630      5.24387e+8 
           4650      5.16262e+8 
           4670      5.08464e+8 
           4690      5.00625e+8 
           4710      4.85022e+8 
           4730       4.8566e+8 
           4750      4.78307e+8 
           4770      4.71274e+8 
           4790      4.63061e+8 
           4810      4.54724e+8 
           4830      4.42294e+8 
           4850      3.90591e+8 
           4870      3.44803e+8 
           4890      4.19171e+8 
           4910      4.20404e+8 
           4930      4.02043e+8 
           4950      4.12069e+8 
           4970      4.06594e+8 
           4990      4.00769e+8 
           5010       3.8851e+8 
           5030      3.89328e+8 
           5050      3.80917e+8 
           5070       3.7846e+8 
           5090      3.73122e+8 
           5110      3.67884e+8 
           5130      3.62731e+8 
           5150       3.5766e+8 
           5170        3.527e+8 
           5190      3.47819e+8 
           5210      3.43016e+8 
           5230      3.38304e+8 
           5250      3.33668e+8 
           5270      3.29105e+8 
           5290      3.24629e+8 
           5310      3.20238e+8 
           5330      3.15903e+8 
           5350       3.1165e+8 
           5370      3.07478e+8 
           5390      3.03359e+8 
           5410      2.99318e+8 
           5430      2.95341e+8 
           5450       2.9144e+8 
           5470        2.876e+8 
           5490      2.83821e+8 
           5510      2.80102e+8 
           5530      2.76441e+8 
           5550       2.7285e+8 
           5570      2.69303e+8 
           5590      2.65824e+8 
           5610        2.624e+8 
           5630       2.5903e+8 
           5650      2.55712e+8 
           5670      2.52458e+8 
           5690      2.49232e+8 
           5710      2.46091e+8 
           5730      2.42976e+8 
           5750      2.39922e+8 
           5770      2.36915e+8 
           5790      2.33944e+8 
           5810       2.3103e+8 
           5830      2.28162e+8 
           5850      2.25328e+8 
           5870      2.13364e+8 
           5890      2.18955e+8 
           5910      2.17108e+8 
           5930      2.14457e+8 
           5950      2.11837e+8 
           5970      2.09268e+8 
           5990      2.06728e+8 
           6010      2.04228e+8 
           6030      2.01767e+8 
           6050      1.99344e+8 
           6070      1.96959e+8 
           6090      1.94611e+8 
           6110       1.9229e+8 
           6130      1.90014e+8 
           6150      1.87765e+8 
           6170       1.8555e+8 
           6190      1.83369e+8 
           6210      1.81223e+8 
           6230       1.7911e+8 
           6250      1.77021e+8 
           6270      1.74964e+8 
           6290      1.72939e+8 
           6310      1.70945e+8 
           6330      1.68973e+8 
           6350      1.67033e+8 
           6370      1.65122e+8 
           6390      1.63241e+8 
           6410       1.6138e+8 
           6430      1.59549e+8 
           6450      1.57746e+8 
           6470      1.55962e+8 
           6490       1.5401e+8 
           6510      1.51847e+8 
           6530      1.48948e+8 
           6550      1.38785e+8 
           6570       1.2176e+8 
           6590      1.42292e+8 
           6610      1.43287e+8 
           6630      1.42218e+8 
           6650      1.41057e+8 
           6670      1.37486e+8 
           6690      1.36059e+8 
           6710      1.36562e+8 
           6730      1.35078e+8 
           6750      1.33609e+8 
           6770      1.32163e+8 
           6790       1.3074e+8 
           6810      1.29332e+8 
           6830      1.27946e+8 
           6850      1.26581e+8 
           6870      1.25231e+8 
           6890      1.23894e+8 
           6910      1.22586e+8 
           6930      1.21283e+8 
           6950      1.20009e+8 
           6970       1.1874e+8 
           6990      1.17498e+8 
           7010      1.16269e+8 
           7030      1.15052e+8 
           7050      1.13854e+8 
           7070      1.10528e+8 
           7090      1.11502e+8 
           7110      1.10354e+8 
           7130      1.09217e+8 
           7150      1.08091e+8 
           7170      1.06976e+8 
           7190      1.05893e+8 
           7210      1.04814e+8 
           7230      1.03716e+8 
           7250      1.02693e+8 
           7270      1.01658e+8 
           7290       9.9676e+7 
           7310      9.96037e+7 
           7330      9.86192e+7 
           7350      9.76299e+7 
           7370      9.66569e+7 
           7390      9.56929e+7 
           7410      9.47379e+7 
           7430      9.37987e+7 
           7450      9.28885e+7 
           7470      9.19732e+7 
           7490      9.10663e+7 
           7510       9.0141e+7 
           7530      8.92908e+7 
           7550      8.84218e+7 
           7570      8.75542e+7 
           7590      8.67075e+7 
           7610      8.58686e+7 
           7630      8.50372e+7 
           7650      8.42133e+7 
           7670      8.34033e+7 
           7690      8.26069e+7 
           7710      8.18113e+7 
           7730      8.10355e+7 
           7750      8.02602e+7 
           7770      7.94981e+7 
           7790      7.87428e+7 
           7810      7.79571e+7 
           7830      7.72644e+7 
           7850      7.66205e+7 
           7870      7.58971e+7 
           7890      7.51436e+7 
           7910      7.44872e+7 
           7930      7.37944e+7 
           7950      7.31077e+7 
           7970      7.23142e+7 
           7990      7.16339e+7 
           8010      7.09302e+7 
           8030      7.02619e+7 
           8050      6.96109e+7 
           8070      6.89828e+7 
           8090      6.82853e+7 
           8110      6.77198e+7 
           8130      6.71476e+7 
           8150      6.64895e+7 
           8170      6.59386e+7 
           8190      6.52856e+7 
           8210      6.46493e+7 
           8230      6.42242e+7 
           8250      6.36642e+7 
           8270      6.28168e+7 
           8290      6.25141e+7 
           8310      6.19898e+7 
           8330      6.13993e+7 
           8350      6.05652e+7 
           8370      6.02385e+7 
           8390      5.98018e+7 
           8410      5.92727e+7 
           8430      5.87108e+7 
           8450      5.77948e+7 
           8470      5.76955e+7 
           8490      5.70477e+7 
           8510      5.66394e+7 
           8530      5.60168e+7 
           8550      5.54098e+7 
           8570      5.53515e+7 
           8590      5.36798e+7 
