# Kurucz ODFNEW /NOVER (2003)
# teff = 22000 K (value for the effective temperature for the model. Temperatures are given in K)
# logg = 3.5 log(cm/s2) (value for Log(G) for the model.)
# meta = -0.5  (value for the Metallicity for the model.)
# lh = 1.25  (l/Hp where l is the  mixing length of the convective element and Hp is the pressure scale height)
# vtur = 2 km/s (Microturbulence velocity)
# alpha = 0  (Alpha)
#
# column 1: WAVELENGTH (ANGSTROM), Wavelength in Angstrom
# column 2: FLUX (ERG/CM2/S/A), Flux in erg/cm2/s/A
          147.2     1.21322e-17 
            151     6.55827e-17 
          155.2     3.87865e-16 
          158.8     1.66214e-15 
            162     5.76779e-15 
            166     2.56571e-14 
          170.3     1.18616e-13 
          173.4     3.42354e-13 
          176.8     1.05131e-12 
          180.2     3.10112e-12 
          181.7     4.93635e-12 
          186.1     1.85367e-11 
            191     7.54915e-11 
          193.9     1.67777e-10 
          198.4     5.53592e-10 
          201.8      1.31799e-9 
            205      2.90599e-9 
          210.5      1.07007e-8 
          216.2      3.85326e-8 
          219.8      8.36552e-8 
            223      1.63157e-7 
          226.8       3.5179e-7 
            230      1.13667e-5 
            234      2.77511e-5 
            240       7.3835e-5 
          246.5     0.000202097 
          252.4     0.000487764 
          256.8     0.000871469 
            260      0.00142104 
            264      0.00241256 
          268.5      0.00429523 
          273.5      0.00795339 
          278.5       0.0144854 
            284         0.02757 
            290       0.0532528 
            296        0.100095 
            301        0.165505 
            308        0.319361 
            318        0.835202 
            328         1.94913 
            338         4.44811 
            348         9.51467 
            357         19.4973 
            366         36.5379 
            375          64.121 
            385         118.215 
            395         210.845 
            405         362.845 
            414         581.944 
            422         857.565 
            430         1259.55 
            441         2080.83 
            451         3206.63 
            460         4623.13 
            470         6892.32 
            480         10014.9 
            490         14407.5 
            500         20364.5 
            506          158425 
            512          783066 
            520          962388 
            530      1.28741e+6 
            540      1.44684e+6 
            550      2.09972e+6 
            560      2.50436e+6 
            570      3.15124e+6 
            580      3.14441e+6 
            590      4.22541e+6 
            600      5.12174e+6 
            610      6.21609e+6 
            620        7.102e+6 
            630      8.19161e+6 
            640      8.72622e+6 
            650      8.49607e+6 
            658      1.14708e+7 
            665      1.27478e+7 
            675      1.38107e+7 
            685       1.5176e+7 
            695      1.83792e+7 
            705      1.98467e+7 
            716      2.26733e+7 
            726      2.45682e+7 
            735      2.64786e+7 
            745      3.02008e+7 
            755      3.32063e+7 
            765      3.64328e+7 
            775      4.00887e+7 
            785       4.3821e+7 
            795      4.68187e+7 
            805      5.02595e+7 
            815      5.33754e+7 
            825      5.86273e+7 
            835      5.88362e+7 
            845       6.5097e+7 
            855      6.91489e+7 
            865      7.46083e+7 
            875      8.07855e+7 
            885      8.75464e+7 
            895      9.29801e+7 
            905      9.53156e+7 
            915      1.61532e+8 
            925      1.50111e+9 
            935      4.35325e+9 
            945      9.44033e+9 
            955     1.20736e+10 
            965     1.41448e+10 
            975      2.87224e+9 
            985     1.32104e+10 
            995     1.28328e+10 
           1005     1.46775e+10 
           1015     1.43338e+10 
           1025      6.71865e+9 
           1035     1.08782e+10 
           1045     1.67216e+10 
           1055     1.55369e+10 
           1065     1.32131e+10 
           1075     1.50653e+10 
           1085     1.33587e+10 
           1095     1.51091e+10 
           1105     1.36885e+10 
           1115     1.34168e+10 
           1125     1.16714e+10 
           1135     1.41652e+10 
           1145     1.29313e+10 
           1155     1.34064e+10 
           1165      1.3477e+10 
           1175      9.35121e+9 
           1185     1.30954e+10 
           1195     1.16805e+10 
           1205      7.71218e+9 
           1215      5.13815e+9 
           1225     1.06593e+10 
           1235     1.22363e+10 
           1245     1.21844e+10 
           1255      1.1904e+10 
           1265     1.17448e+10 
           1275     1.21216e+10 
           1285     1.18796e+10 
           1295       8.8502e+9 
           1305      9.30041e+9 
           1315     1.14209e+10 
           1325     1.07605e+10 
           1335     1.01152e+10 
           1345      1.0551e+10 
           1355     1.04586e+10 
           1365      9.73151e+9 
           1375      9.56278e+9 
           1385      9.50551e+9 
           1395      7.81733e+9 
           1405      8.27401e+9 
           1415      8.64612e+9 
           1425      8.55618e+9 
           1435      8.70097e+9 
           1442      8.86382e+9 
           1447      8.66737e+9 
           1455      8.47889e+9 
           1465      7.97421e+9 
           1475      7.98731e+9 
           1485      7.84833e+9 
           1495      7.71857e+9 
           1505      7.18339e+9 
           1512      6.46909e+9 
           1517       6.6796e+9 
           1525      6.84653e+9 
           1535       6.0466e+9 
           1545      6.10273e+9 
           1555      5.82226e+9 
           1565      6.14694e+9 
           1575      6.42359e+9 
           1585      6.35494e+9 
           1595      6.35147e+9 
           1605      6.28456e+9 
           1615      6.17823e+9 
           1625      6.07418e+9 
           1635      6.31451e+9 
           1645      6.23533e+9 
           1655       6.1144e+9 
           1665      6.23197e+9 
           1672      6.00997e+9 
           1677      6.29046e+9 
           1685      6.16744e+9 
           1695       5.8763e+9 
           1705      5.66204e+9 
           1715      5.39613e+9 
           1725      5.33995e+9 
           1735      5.49183e+9 
           1745      5.35013e+9 
           1755      5.41079e+9 
           1765      5.21808e+9 
           1775      5.03617e+9 
           1785      5.07225e+9 
           1795      5.19256e+9 
           1805      5.20005e+9 
           1815      4.72332e+9 
           1825      4.88695e+9 
           1835      4.73638e+9 
           1845      4.35803e+9 
           1855      4.30822e+9 
           1865      4.38182e+9 
           1875      4.58178e+9 
           1885      4.11535e+9 
           1895      3.83305e+9 
           1905      4.13237e+9 
           1915      3.91458e+9 
           1925      3.75456e+9 
           1935       3.9349e+9 
           1945       4.0001e+9 
           1955      3.65185e+9 
           1967      3.92144e+9 
           1976      4.07375e+9 
           1984      3.78772e+9 
           1995       3.7048e+9 
           2005      3.81019e+9 
           2015      3.77237e+9 
           2025      3.87779e+9 
           2035      3.56222e+9 
           2045      3.60575e+9 
           2055      3.50901e+9 
           2065      3.52759e+9 
           2074      3.69445e+9 
           2078      3.37157e+9 
           2085      3.50556e+9 
           2095      3.32282e+9 
           2105      3.40908e+9 
           2115       3.4021e+9 
           2125      3.44599e+9 
           2135      3.37998e+9 
           2145      3.20624e+9 
           2155      3.32711e+9 
           2165      3.30432e+9 
           2175      3.25649e+9 
           2185       3.1723e+9 
           2195      3.19765e+9 
           2205      3.16259e+9 
           2215      3.11452e+9 
           2225      3.03895e+9 
           2235      3.01053e+9 
           2245      3.02152e+9 
           2255      2.93299e+9 
           2265      2.95767e+9 
           2275      2.91739e+9 
           2285      2.91478e+9 
           2295      2.76899e+9 
           2305      2.82535e+9 
           2315      2.74912e+9 
           2325      2.71792e+9 
           2335      2.63651e+9 
           2345      2.62812e+9 
           2355      2.63723e+9 
           2365      2.59288e+9 
           2375       2.5578e+9 
           2385      2.52746e+9 
           2395      2.51487e+9 
           2405      2.46723e+9 
           2415      2.43922e+9 
           2425      2.44457e+9 
           2435      2.38184e+9 
           2445      2.37903e+9 
           2455      2.37557e+9 
           2465      2.32942e+9 
           2475      2.30209e+9 
           2485      2.27707e+9 
           2495       2.1472e+9 
           2505      2.22519e+9 
           2513      2.13367e+9 
           2518      2.19324e+9 
           2525      2.16047e+9 
           2535      2.12728e+9 
           2545      2.07738e+9 
           2555      2.10086e+9 
           2565      2.06819e+9 
           2575         2.07e+9 
           2585      2.04578e+9 
           2595      2.02535e+9 
           2605      2.01344e+9 
           2615      1.98942e+9 
           2625      1.97052e+9 
           2635       1.9487e+9 
           2645      1.94331e+9 
           2655      1.92848e+9 
           2665      1.88231e+9 
           2675      1.87764e+9 
           2685      1.86896e+9 
           2695      1.81953e+9 
           2705       1.8113e+9 
           2715      1.79599e+9 
           2725      1.76944e+9 
           2735       1.7675e+9 
           2745      1.71495e+9 
           2755      1.71037e+9 
           2765      1.69398e+9 
           2775      1.69974e+9 
           2785      1.67537e+9 
           2795      1.62178e+9 
           2805       1.6338e+9 
           2815      1.63072e+9 
           2825      1.60272e+9 
           2835      1.55834e+9 
           2845      1.57338e+9 
           2855      1.55572e+9 
           2865      1.54915e+9 
           2875      1.53169e+9 
           2885      1.51779e+9 
           2895      1.49914e+9 
           2910      1.47487e+9 
           2930      1.44471e+9 
           2950      1.40718e+9 
           2970         1.39e+9 
           2990      1.35908e+9 
           3010      1.32764e+9 
           3030      1.31268e+9 
           3050      1.28754e+9 
           3070      1.26351e+9 
           3090       1.2298e+9 
           3110      1.21369e+9 
           3130      1.19088e+9 
           3150      1.16901e+9 
           3170      1.14388e+9 
           3190      1.11592e+9 
           3210      1.10367e+9 
           3230      1.08221e+9 
           3250      1.06322e+9 
           3270      1.04374e+9 
           3290      1.02336e+9 
           3310      1.00684e+9 
           3330      9.88155e+8 
           3350      9.68838e+8 
           3370      9.52795e+8 
           3390      9.36439e+8 
           3410      9.19979e+8 
           3430      8.98843e+8 
           3450      8.79906e+8 
           3470      8.66882e+8 
           3490      8.51779e+8 
           3510      8.40968e+8 
           3530      8.28231e+8 
           3550      8.14202e+8 
           3570      8.03656e+8 
           3590      7.84145e+8 
           3610       7.7074e+8 
           3630      7.58954e+8 
           3640      7.57519e+8 
           3650      7.42628e+8 
           3670      7.33773e+8 
           3690      7.13113e+8 
           3710      6.96495e+8 
           3730      6.83279e+8 
           3750      7.45877e+8 
           3770        7.497e+8 
           3790      7.78658e+8 
           3810      8.07772e+8 
           3830      7.13939e+8 
           3850      8.20176e+8 
           3870      8.12324e+8 
           3890      6.81031e+8 
           3910      8.01851e+8 
           3930      7.77416e+8 
           3950      7.74127e+8 
           3970      6.32468e+8 
           3990      7.45408e+8 
           4010      7.37101e+8 
           4030      7.01504e+8 
           4050      7.17744e+8 
           4070      6.97084e+8 
           4090      6.59655e+8 
           4110      5.86233e+8 
           4130      6.58491e+8 
           4150      6.53122e+8 
           4170      6.47413e+8 
           4190      6.39788e+8 
           4210       6.3145e+8 
           4230       6.1985e+8 
           4250      6.08065e+8 
           4270      5.92857e+8 
           4290      5.88099e+8 
           4310      5.75535e+8 
           4330      5.35409e+8 
           4350      4.90261e+8 
           4370      5.47609e+8 
           4390      5.33736e+8 
           4410      5.34582e+8 
           4430       5.2585e+8 
           4450      5.20125e+8 
           4470      4.95835e+8 
           4490       5.0264e+8 
           4510      4.97821e+8 
           4530      4.89396e+8 
           4550       4.8201e+8 
           4570      4.74427e+8 
           4590      4.67619e+8 
           4610      4.59547e+8 
           4630       4.5258e+8 
           4650      4.43155e+8 
           4670      4.39747e+8 
           4690      4.34754e+8 
           4710      4.21102e+8 
           4730      4.19215e+8 
           4750       4.1282e+8 
           4770      4.10492e+8 
           4790      4.04066e+8 
           4810      3.97131e+8 
           4830      3.90393e+8 
           4850       3.6873e+8 
           4870       3.3154e+8 
           4890      3.74002e+8 
           4910       3.7029e+8 
           4930      3.57929e+8 
           4950      3.59748e+8 
           4970      3.55562e+8 
           4990      3.50266e+8 
           5010       3.3883e+8 
           5030       3.4034e+8 
           5050       3.3245e+8 
           5070      3.31254e+8 
           5090      3.26649e+8 
           5110      3.21947e+8 
           5130      3.16407e+8 
           5150      3.12321e+8 
           5170      3.09247e+8 
           5190      3.05119e+8 
           5210        3.002e+8 
           5230      2.96917e+8 
           5250      2.93005e+8 
           5270      2.88954e+8 
           5290      2.85346e+8 
           5310       2.8145e+8 
           5330      2.77698e+8 
           5350      2.73756e+8 
           5370      2.70663e+8 
           5390       2.6705e+8 
           5410       2.6365e+8 
           5430      2.59898e+8 
           5450      2.56624e+8 
           5470      2.53328e+8 
           5490      2.50186e+8 
           5510      2.47082e+8 
           5530      2.43832e+8 
           5550      2.40879e+8 
           5570      2.37732e+8 
           5590       2.3484e+8 
           5610      2.31732e+8 
           5630      2.28995e+8 
           5650       2.2543e+8 
           5670      2.22307e+8 
           5690      2.19444e+8 
           5710      2.17528e+8 
           5730      2.14899e+8 
           5750       2.1204e+8 
           5770      2.09803e+8 
           5790       2.0721e+8 
           5810      2.04681e+8 
           5830      2.02048e+8 
           5850      1.99722e+8 
           5870      1.92132e+8 
           5890      1.93924e+8 
           5910       1.9243e+8 
           5930      1.89999e+8 
           5950      1.87575e+8 
           5970      1.85791e+8 
           5990      1.83335e+8 
           6010      1.81376e+8 
           6030      1.79139e+8 
           6050      1.77092e+8 
           6070      1.75078e+8 
           6090      1.73006e+8 
           6110      1.71017e+8 
           6130      1.69051e+8 
           6150      1.66738e+8 
           6170      1.65035e+8 
           6190      1.63223e+8 
           6210      1.61373e+8 
           6230      1.59523e+8 
           6250      1.57578e+8 
           6270      1.55865e+8 
           6290      1.54114e+8 
           6310      1.52315e+8 
           6330      1.50668e+8 
           6350      1.48608e+8 
           6370      1.47129e+8 
           6390      1.45591e+8 
           6410      1.43978e+8 
           6430      1.42428e+8 
           6450      1.40812e+8 
           6470      1.39079e+8 
           6490      1.37606e+8 
           6510      1.36175e+8 
           6530      1.34353e+8 
           6550      1.29784e+8 
           6570      1.15825e+8 
           6590      1.28838e+8 
           6610       1.2881e+8 
           6630      1.27519e+8 
           6650      1.26208e+8 
           6670      1.23818e+8 
           6690      1.22515e+8 
           6710      1.22213e+8 
           6730      1.20838e+8 
           6750      1.19636e+8 
           6770      1.18363e+8 
           6790      1.16702e+8 
           6810      1.15807e+8 
           6830      1.14604e+8 
           6850       1.1343e+8 
           6870      1.12244e+8 
           6890      1.11054e+8 
           6910      1.09883e+8 
           6930      1.08732e+8 
           6950      1.07631e+8 
           6970      1.06526e+8 
           6990      1.05401e+8 
           7010      1.04333e+8 
           7030      1.03259e+8 
           7050      1.02182e+8 
           7070      9.95771e+7 
           7090      1.00133e+8 
           7110      9.89516e+7 
           7130      9.79971e+7 
           7150      9.71033e+7 
           7170      9.61153e+7 
           7190       9.5166e+7 
           7210      9.42112e+7 
           7230      9.23285e+7 
           7250      9.23001e+7 
           7270      9.14151e+7 
           7290      8.97871e+7 
           7310      8.95926e+7 
           7330      8.87187e+7 
           7350       8.7853e+7 
           7370      8.69884e+7 
           7390      8.61388e+7 
           7410      8.52902e+7 
           7430      8.44427e+7 
           7450      8.36437e+7 
           7470      8.27644e+7 
           7490      8.20208e+7 
           7510      8.11971e+7 
           7530      8.04341e+7 
           7550      7.96847e+7 
           7570      7.89158e+7 
           7590      7.81538e+7 
           7610      7.74053e+7 
           7630        7.667e+7 
           7650      7.59478e+7 
           7670      7.52256e+7 
           7690      7.45099e+7 
           7710       7.3807e+7 
           7730      7.31103e+7 
           7750      7.24261e+7 
           7770      7.15483e+7 
           7790      7.10821e+7 
           7810      7.03603e+7 
           7830      6.97616e+7 
           7850      6.91498e+7 
           7870      6.85008e+7 
           7890      6.77727e+7 
           7910      6.72498e+7 
           7930      6.65276e+7 
           7950      6.58535e+7 
           7970      6.52387e+7 
           7990      6.46175e+7 
           8010      6.40545e+7 
           8030      6.34846e+7 
           8050      6.29486e+7 
           8070      6.24345e+7 
           8090      6.17348e+7 
           8110       6.1213e+7 
           8130      6.07868e+7 
           8150      6.01315e+7 
           8170      5.97302e+7 
           8190      5.90906e+7 
           8210       5.8356e+7 
           8230      5.79837e+7 
           8250      5.75369e+7 
           8270      5.66805e+7 
           8290      5.64457e+7 
           8310      5.59671e+7 
           8330      5.54706e+7 
           8350      5.47081e+7 
           8370      5.43555e+7 
           8390      5.39683e+7 
           8410      5.34615e+7 
           8430       5.2915e+7 
           8450      5.20971e+7 
           8470      5.17674e+7 
           8490      5.16089e+7 
           8510      5.06155e+7 
           8530      5.09412e+7 
           8550      4.89731e+7 
           8570        5.087e+7 
