# Kurucz ODFNEW /NOVER (2003)
# teff = 22000 K (value for the effective temperature for the model. Temperatures are given in K)
# logg = 4.5 log(cm/s2) (value for Log(G) for the model.)
# meta = -2  (value for the Metallicity for the model.)
# lh = 1.25  (l/Hp where l is the  mixing length of the convective element and Hp is the pressure scale height)
# vtur = 2 km/s (Microturbulence velocity)
# alpha = 0.4  (Alpha)
#
# column 1: WAVELENGTH (ANGSTROM), Wavelength in Angstrom
# column 2: FLUX (ERG/CM2/S/A), Flux in erg/cm2/s/A
          147.2     5.66663e-18 
            151     3.28054e-17 
          155.2     2.07735e-16 
          158.8     9.38543e-16 
            162     3.39981e-15 
            166     1.58889e-14 
          170.3     7.70824e-14 
          173.4     2.29602e-13 
          176.8     7.28457e-13 
          180.2     2.21499e-12 
          181.7     3.57093e-12 
          186.1     1.38778e-11 
            191     5.85071e-11 
          193.9     1.32466e-10 
          198.4     4.49376e-10 
          201.8      1.09087e-9 
            205      2.44666e-9 
          210.5      9.25112e-9 
          216.2      3.41642e-8 
          219.8      7.52468e-8 
            223      1.48513e-7 
          226.8      3.24545e-7 
            230      1.16957e-6 
            234      2.73121e-6 
            240      7.97018e-6 
          246.5      2.38727e-5 
          252.4       6.1726e-5 
          256.8     0.000120126 
            260     0.000195554 
            264     0.000349097 
          268.5     0.000655141 
          273.5      0.00128558 
          278.5      0.00246344 
            284      0.00489875 
            290       0.0100485 
            296       0.0199755 
            301       0.0346866 
            308       0.0722094 
            318        0.197451 
            328        0.502497 
            338         1.20642 
            348         2.74577 
            357         5.51782 
            366         10.6976 
            375         20.0261 
            385         38.7544 
            395          72.306 
            405         130.505 
            414         216.282 
            422         332.106 
            430         500.995 
            441         859.569 
            451         1368.68 
            460         2040.86 
            470         3119.06 
            480         4673.47 
            490         6876.68 
            500         9942.49 
            506         68749.3 
            512          211542 
            520          270997 
            530          389390 
            540          435060 
            550          620738 
            560          760715 
            570          940223 
            580          974591 
            590      1.30075e+6 
            600      1.63574e+6 
            610      1.95685e+6 
            620      2.29546e+6 
            630      2.70611e+6 
            640      3.11354e+6 
            650       3.6479e+6 
            658      4.10956e+6 
            665      4.51649e+6 
            675      5.11418e+6 
            685      5.81451e+6 
            695      6.71144e+6 
            705      7.55111e+6 
            716      8.59049e+6 
            726      9.60915e+6 
            735      1.06884e+7 
            745      1.19347e+7 
            755      1.32616e+7 
            765      1.46359e+7 
            775      1.61969e+7 
            785      1.78178e+7 
            795      1.94956e+7 
            805      2.13379e+7 
            815       2.3241e+7 
            825      2.53184e+7 
            835      2.71266e+7 
            845      2.96656e+7 
            855      3.19251e+7 
            865      3.45515e+7 
            875      3.71477e+7 
            885      3.99598e+7 
            895      4.27916e+7 
            905      4.52034e+7 
            915      7.08619e+7 
            925      3.33085e+8 
            935      1.06987e+9 
            945      4.89524e+9 
            955      9.66706e+9 
            965     1.35137e+10 
            975      4.28793e+9 
            985     1.86737e+10 
            995     1.90696e+10 
           1005     1.95141e+10 
           1015     1.56422e+10 
           1025      2.73701e+9 
           1035     1.31346e+10 
           1045     1.90962e+10 
           1055     1.89829e+10 
           1065     1.75121e+10 
           1075      1.8174e+10 
           1085     1.69288e+10 
           1095      1.7715e+10 
           1105     1.66368e+10 
           1115     1.64979e+10 
           1125     1.55728e+10 
           1135     1.59714e+10 
           1145     1.49876e+10 
           1155     1.52872e+10 
           1165     1.50531e+10 
           1175     1.33247e+10 
           1185     1.42987e+10 
           1195     1.27677e+10 
           1205      9.46763e+9 
           1215      2.05421e+9 
           1225      8.96418e+9 
           1235     1.22114e+10 
           1245     1.24367e+10 
           1255     1.21743e+10 
           1265     1.19771e+10 
           1275     1.20155e+10 
           1285     1.17701e+10 
           1295     1.06887e+10 
           1305      1.0548e+10 
           1315     1.10619e+10 
           1325     1.06923e+10 
           1335      1.0252e+10 
           1345     1.03259e+10 
           1355     1.02423e+10 
           1365      9.91712e+9 
           1375      9.77718e+9 
           1385      9.64298e+9 
           1395       9.1498e+9 
           1405      9.10074e+9 
           1415      9.05611e+9 
           1425       8.9263e+9 
           1435      8.78348e+9 
           1442      8.71544e+9 
           1447      8.62598e+9 
           1455      8.48815e+9 
           1465      8.31403e+9 
           1475      8.16965e+9 
           1485       8.0002e+9 
           1495      7.86319e+9 
           1505      7.62648e+9 
           1512      7.54483e+9 
           1517      7.51694e+9 
           1525      7.38677e+9 
           1535      7.13591e+9 
           1545      7.10996e+9 
           1555      6.92003e+9 
           1565      6.89571e+9 
           1575      6.81997e+9 
           1585      6.70014e+9 
           1595      6.60706e+9 
           1605      6.42306e+9 
           1615      6.31574e+9 
           1625      6.26678e+9 
           1635      6.18655e+9 
           1645      6.04363e+9 
           1655      5.97109e+9 
           1665      5.90596e+9 
           1672      5.75582e+9 
           1677      5.80219e+9 
           1685      5.72533e+9 
           1695      5.61339e+9 
           1705      5.50523e+9 
           1715      5.38742e+9 
           1725      5.31248e+9 
           1735      5.25154e+9 
           1745      5.16307e+9 
           1755      5.10941e+9 
           1765      4.93111e+9 
           1775      4.91624e+9 
           1785      4.85327e+9 
           1795       4.8073e+9 
           1805      4.73891e+9 
           1815      4.64727e+9 
           1825      4.59309e+9 
           1835       4.5209e+9 
           1845      4.38902e+9 
           1855      4.27767e+9 
           1865      4.24633e+9 
           1875      4.24573e+9 
           1885      4.10973e+9 
           1895      3.99723e+9 
           1905      4.03448e+9 
           1915      3.91807e+9 
           1925      3.85816e+9 
           1935      3.84434e+9 
           1945      3.82543e+9 
           1955      3.69886e+9 
           1967      3.70859e+9 
           1976      3.69264e+9 
           1984      3.60932e+9 
           1995      3.51501e+9 
           2005      3.52633e+9 
           2015      3.49597e+9 
           2025      3.46345e+9 
           2035      3.39484e+9 
           2045      3.34911e+9 
           2055      3.25522e+9 
           2065      3.23869e+9 
           2074      3.24253e+9 
           2078      3.18233e+9 
           2085      3.17816e+9 
           2095      3.11141e+9 
           2105      3.09969e+9 
           2115      3.06834e+9 
           2125      3.03911e+9 
           2135      2.99617e+9 
           2145      2.95061e+9 
           2155      2.92045e+9 
           2165      2.88316e+9 
           2175      2.84453e+9 
           2185       2.8109e+9 
           2195      2.77823e+9 
           2205      2.74162e+9 
           2215      2.70717e+9 
           2225      2.67041e+9 
           2235      2.63895e+9 
           2245      2.60846e+9 
           2255      2.57375e+9 
           2265      2.54505e+9 
           2275      2.51319e+9 
           2285      2.48446e+9 
           2295      2.43947e+9 
           2305       2.4231e+9 
           2315      2.39187e+9 
           2325      2.36444e+9 
           2335      2.33028e+9 
           2345      2.29832e+9 
           2355      2.27966e+9 
           2365      2.24877e+9 
           2375      2.22419e+9 
           2385      2.19273e+9 
           2395      2.16953e+9 
           2405      2.14502e+9 
           2415       2.1185e+9 
           2425      2.09992e+9 
           2435      2.07317e+9 
           2445      2.04988e+9 
           2455       2.0284e+9 
           2465      2.00349e+9 
           2475      1.98136e+9 
           2485      1.95886e+9 
           2495       1.9188e+9 
           2505      1.91408e+9 
           2513      1.88867e+9 
           2518      1.88516e+9 
           2525      1.86987e+9 
           2535      1.84753e+9 
           2545      1.82292e+9 
           2555      1.80983e+9 
           2565      1.78767e+9 
           2575       1.7712e+9 
           2585      1.75166e+9 
           2595      1.73198e+9 
           2605      1.72426e+9 
           2615      1.70696e+9 
           2625      1.68928e+9 
           2635      1.66813e+9 
           2645      1.65241e+9 
           2655      1.63192e+9 
           2665      1.60993e+9 
           2675      1.59165e+9 
           2685      1.58562e+9 
           2695      1.55551e+9 
           2705      1.55176e+9 
           2715      1.53498e+9 
           2725      1.50532e+9 
           2735      1.50299e+9 
           2745      1.48186e+9 
           2755      1.46755e+9 
           2765      1.44242e+9 
           2775      1.44144e+9 
           2785        1.426e+9 
           2795       1.3892e+9 
           2805      1.38735e+9 
           2815      1.38284e+9 
           2825      1.35282e+9 
           2835      1.34268e+9 
           2845      1.34052e+9 
           2855      1.32708e+9 
           2865      1.31388e+9 
           2875      1.30047e+9 
           2885      1.28749e+9 
           2895      1.27457e+9 
           2910      1.25536e+9 
           2930      1.22968e+9 
           2950      1.19683e+9 
           2970      1.18269e+9 
           2990      1.15934e+9 
           3010      1.13712e+9 
           3030      1.11539e+9 
           3050        1.094e+9 
           3070       1.0732e+9 
           3090      1.05245e+9 
           3110      1.03296e+9 
           3130      1.01476e+9 
           3150      9.95803e+8 
           3170      9.77054e+8 
           3190      9.50699e+8 
           3210       9.4112e+8 
           3230      9.23796e+8 
           3250      9.06861e+8 
           3270      8.91504e+8 
           3290      8.74294e+8 
           3310      8.59875e+8 
           3330      8.44549e+8 
           3350      8.28184e+8 
           3370      8.14999e+8 
           3390      8.00723e+8 
           3410       7.8679e+8 
           3430      7.70341e+8 
           3450      7.54567e+8 
           3470       7.4361e+8 
           3490      7.30874e+8 
           3510      7.19847e+8 
           3530      7.08992e+8 
           3550       6.9714e+8 
           3570      6.89085e+8 
           3590       6.7339e+8 
           3610       6.6407e+8 
           3630      6.51312e+8 
           3640      6.50184e+8 
           3650       6.4425e+8 
           3670      6.36549e+8 
           3690      6.24548e+8 
           3710      6.02998e+8 
           3730      5.76674e+8 
           3750      6.01454e+8 
           3770      6.02962e+8 
           3790      6.47942e+8 
           3810      6.84731e+8 
           3830      5.85477e+8 
           3850      7.16097e+8 
           3870      7.35303e+8 
           3890      5.49904e+8 
           3910      7.26224e+8 
           3930      7.24169e+8 
           3950       7.0483e+8 
           3970      5.13217e+8 
           3990      6.73636e+8 
           4010      6.79116e+8 
           4030      6.32077e+8 
           4050      6.66686e+8 
           4070      6.50871e+8 
           4090       5.7795e+8 
           4110      4.93033e+8 
           4130      6.07824e+8 
           4150      6.06573e+8 
           4170      6.03412e+8 
           4190      5.95948e+8 
           4210      5.86367e+8 
           4230      5.76793e+8 
           4250      5.67331e+8 
           4270      5.56843e+8 
           4290        5.472e+8 
           4310      5.33433e+8 
           4330      4.64339e+8 
           4350      4.19046e+8 
           4370      5.06063e+8 
           4390       4.8688e+8 
           4410      4.98029e+8 
           4430      4.88474e+8 
           4450      4.83256e+8 
           4470      4.48454e+8 
           4490       4.6734e+8 
           4510      4.61667e+8 
           4530      4.54552e+8 
           4550      4.47562e+8 
           4570      4.40731e+8 
           4590      4.34145e+8 
           4610      4.27621e+8 
           4630      4.21193e+8 
           4650      4.14616e+8 
           4670      4.08688e+8 
           4690      4.02675e+8 
           4710      3.90755e+8 
           4730       3.9069e+8 
           4750      3.84819e+8 
           4770      3.79529e+8 
           4790      3.73608e+8 
           4810       3.6699e+8 
           4830      3.58273e+8 
           4850      3.19561e+8 
           4870      2.81424e+8 
           4890      3.40681e+8 
           4910      3.40443e+8 
           4930      3.26976e+8 
           4950      3.33164e+8 
           4970      3.28566e+8 
           4990      3.23941e+8 
           5010       3.1474e+8 
           5030      3.14938e+8 
           5050      3.08149e+8 
           5070      3.06309e+8 
           5090      3.02075e+8 
           5110      2.97926e+8 
           5130      2.93846e+8 
           5150      2.89821e+8 
           5170      2.85906e+8 
           5190      2.82029e+8 
           5210      2.78119e+8 
           5230      2.74481e+8 
           5250      2.70808e+8 
           5270      2.67183e+8 
           5290      2.63632e+8 
           5310       2.6014e+8 
           5330      2.56679e+8 
           5350      2.53276e+8 
           5370      2.49982e+8 
           5390      2.46717e+8 
           5410      2.43493e+8 
           5430      2.40285e+8 
           5450      2.37193e+8 
           5470      2.34139e+8 
           5490      2.31137e+8 
           5510      2.28171e+8 
           5530      2.25255e+8 
           5550      2.22387e+8 
           5570      2.19554e+8 
           5590       2.1678e+8 
           5610      2.14028e+8 
           5630      2.11358e+8 
           5650      2.08648e+8 
           5670      2.06054e+8 
           5690      2.03514e+8 
           5710      2.01005e+8 
           5730      1.98526e+8 
           5750      1.96065e+8 
           5770      1.93667e+8 
           5790      1.91286e+8 
           5810      1.88956e+8 
           5830      1.86653e+8 
           5850      1.84388e+8 
           5870      1.75776e+8 
           5890      1.79536e+8 
           5910      1.77783e+8 
           5930      1.75654e+8 
           5950      1.73539e+8 
           5970       1.7149e+8 
           5990      1.69433e+8 
           6010      1.67442e+8 
           6030      1.65463e+8 
           6050      1.63516e+8 
           6070      1.61592e+8 
           6090      1.59699e+8 
           6110      1.57838e+8 
           6130      1.56008e+8 
           6150      1.54198e+8 
           6170      1.52418e+8 
           6190      1.50658e+8 
           6210      1.48927e+8 
           6230      1.47225e+8 
           6250      1.45532e+8 
           6270      1.43877e+8 
           6290      1.42249e+8 
           6310       1.4063e+8 
           6330      1.39047e+8 
           6350      1.37415e+8 
           6370      1.35904e+8 
           6390      1.34418e+8 
           6410      1.32911e+8 
           6430      1.31439e+8 
           6450      1.29973e+8 
           6470      1.28532e+8 
           6490      1.27106e+8 
           6510       1.2533e+8 
           6530      1.23194e+8 
           6550      1.15524e+8 
           6570      1.01337e+8 
           6590      1.17986e+8 
           6610      1.18454e+8 
           6630      1.17569e+8 
           6650      1.16531e+8 
           6670      1.13911e+8 
           6690      1.12726e+8 
           6710      1.12816e+8 
           6730      1.11614e+8 
           6750      1.10425e+8 
           6770      1.09255e+8 
           6790       1.0809e+8 
           6810       1.0696e+8 
           6830      1.05826e+8 
           6850      1.04719e+8 
           6870      1.03623e+8 
           6890      1.02539e+8 
           6910      1.01472e+8 
           6930      1.00417e+8 
           6950      9.93719e+7 
           6970      9.83449e+7 
           6990       9.7328e+7 
           7010      9.63288e+7 
           7030      9.53469e+7 
           7050      9.43671e+7 
           7070      9.18518e+7 
           7090      9.24585e+7 
           7110      9.15142e+7 
           7130       9.0594e+7 
           7150      8.96752e+7 
           7170      8.87579e+7 
           7190      8.78859e+7 
           7210      8.70004e+7 
           7230      8.60657e+7 
           7250      8.52761e+7 
           7270      8.44298e+7 
           7290      8.29039e+7 
           7310       8.2754e+7 
           7330      8.19454e+7 
           7350      8.11374e+7 
           7370      8.03439e+7 
           7390      7.95578e+7 
           7410       7.8779e+7 
           7430      7.80143e+7 
           7450      7.72634e+7 
           7470      7.65126e+7 
           7490      7.57755e+7 
           7510      7.50185e+7 
           7530      7.43215e+7 
           7550       7.3611e+7 
           7570       7.2907e+7 
           7590      7.22094e+7 
           7610      7.15181e+7 
           7630      7.08395e+7 
           7650       7.0167e+7 
           7670       6.9507e+7 
           7690      6.88465e+7 
           7710      6.81983e+7 
           7730      6.75621e+7 
           7750      6.69253e+7 
           7770      6.62755e+7 
           7790      6.56811e+7 
           7810      6.50363e+7 
           7830       6.4471e+7 
           7850      6.39289e+7 
           7870      6.33368e+7 
           7890      6.27256e+7 
           7910       6.2186e+7 
           7930      6.16151e+7 
           7950      6.10373e+7 
           7970      6.04289e+7 
           7990      5.98907e+7 
           8010      5.93043e+7 
           8030      5.87638e+7 
           8050       5.8228e+7 
           8070      5.77304e+7 
           8090      5.71045e+7 
           8110       5.6672e+7 
           8130      5.61986e+7 
           8150      5.56355e+7 
           8170      5.52134e+7 
           8190       5.4648e+7 
           8210      5.41144e+7 
           8230      5.37727e+7 
           8250      5.33208e+7 
           8270      5.26209e+7 
           8290      5.23624e+7 
           8310       5.1929e+7 
           8330      5.14519e+7 
           8350      5.07718e+7 
           8370      5.04881e+7 
           8390      5.01235e+7 
           8410      4.96798e+7 
           8430       4.9201e+7 
           8450      4.84655e+7 
           8470      4.82963e+7 
           8490      4.78014e+7 
           8510      4.73309e+7 
           8530       4.6986e+7 
           8550      4.60563e+7 
           8570      4.66413e+7 
