# Kurucz ODFNEW /NOVER (2003)
# teff = 8250 K (value for the effective temperature for the model. Temperatures are given in K)
# logg = 3 log(cm/s2) (value for Log(G) for the model.)
# meta = 0.5  (value for the Metallicity for the model.)
# lh = 1.25  (l/Hp where l is the  mixing length of the convective element and Hp is the pressure scale height)
# vtur = 2 km/s (Microturbulence velocity)
# alpha = 0.4  (Alpha)
#
# column 1: WAVELENGTH (ANGSTROM), Wavelength in Angstrom
# column 2: FLUX (ERG/CM2/S/A), Flux in erg/cm2/s/A
            348     3.83094e-23 
            357     3.22225e-22 
            366     2.23595e-21 
            375     1.40246e-20 
            385     9.71274e-20 
            395     6.07813e-19 
            405     3.46354e-18 
            414     1.53944e-17 
            422     5.48496e-17 
            430     1.86081e-16 
            441     9.25857e-16 
            451     2.29685e-16 
            460     7.07418e-16 
            470       2.339e-15 
            480     7.33069e-15 
            490     2.18569e-14 
            500     6.21167e-14 
            506     1.97005e-12 
            512     5.12818e-12 
            520     1.16342e-11 
            530     1.64747e-12 
            540     3.91768e-12 
            550     9.17177e-12 
            560     2.06288e-11 
            570     4.49142e-11 
            580     9.37478e-11 
            590     1.94977e-10 
            600     3.89936e-10 
            610     7.63786e-10 
            620      1.45468e-9 
            630      2.71019e-9 
            640       4.9339e-9 
            650      8.83081e-9 
            658      1.38523e-8 
            665      2.01874e-8 
            675      3.44892e-8 
            685      5.79508e-8 
            695       9.5558e-8 
            705      1.52678e-7 
            716      2.58788e-7 
            726      4.06673e-7 
            735       6.0322e-7 
            745      9.19993e-7 
            755      1.38974e-6 
            765      2.07669e-6 
            775      3.06521e-6 
            785      4.49483e-6 
            795      6.37971e-6 
            805      9.11266e-6 
            815      1.30597e-5 
            825      1.83282e-5 
            835      2.54191e-5 
            845      3.50056e-5 
            855      4.77518e-5 
            865      6.45937e-5 
            875      8.55978e-5 
            885     0.000115286 
            895     0.000152371 
            905     0.000197545 
            915       0.0668346 
            925        0.196976 
            935        0.255744 
            945         0.33749 
            955        0.469123 
            965        0.613342 
            975        0.765724 
            985        0.968087 
            995         1.18446 
           1005         1.58722 
           1015         2.00563 
           1025         2.40813 
           1035         3.06539 
           1045          3.8162 
           1055         4.71257 
           1065         5.66908 
           1075         7.03891 
           1085         8.60776 
           1095          10.207 
           1105         32.3592 
           1115         104.483 
           1125         151.504 
           1135         208.958 
           1145         261.335 
           1155         286.891 
           1165         391.212 
           1175         465.132 
           1185         479.126 
           1195         222.198 
           1205         350.933 
           1215          81.454 
           1225         421.159 
           1235         848.442 
           1245         1979.01 
           1255         4386.74 
           1265         3241.07 
           1275         6183.17 
           1285         8426.55 
           1295         9714.17 
           1305         5889.32 
           1315         11412.2 
           1325         13637.5 
           1335         14436.3 
           1345           17842 
           1355         18075.4 
           1365         19083.1 
           1375         20703.3 
           1385         22891.8 
           1395         26115.2 
           1405         28851.7 
           1415         29286.4 
           1425           32873 
           1435         32696.3 
           1442         37508.7 
           1447         40375.3 
           1455         44817.3 
           1465         45167.7 
           1475         48721.8 
           1485         53754.9 
           1495         60469.9 
           1505         65916.1 
           1512         66529.9 
           1517         71901.9 
           1525         80807.4 
           1535          143535 
           1545          368676 
           1555          359899 
           1565          365666 
           1575          664259 
           1585          970516 
           1595      1.32061e+6 
           1605       1.2342e+6 
           1615      1.09216e+6 
           1625          861450 
           1635          990970 
           1645      1.55243e+6 
           1655          853142 
           1665       1.3834e+6 
           1672          544048 
           1677      2.25877e+6 
           1685       4.2115e+6 
           1695      4.50826e+6 
           1705      6.56711e+6 
           1715      1.14013e+7 
           1725      1.18143e+7 
           1735      1.60455e+7 
           1745      1.42055e+7 
           1755      1.93659e+7 
           1765         1.23e+7 
           1775      1.81428e+7 
           1785      1.56321e+7 
           1795      2.33203e+7 
           1805      1.73724e+7 
           1815      1.95522e+7 
           1825      1.62189e+7 
           1835      1.43298e+7 
           1845      1.31544e+7 
           1855      1.64781e+7 
           1865      1.91223e+7 
           1875      1.75001e+7 
           1885      1.82373e+7 
           1895      2.04519e+7 
           1905      1.74702e+7 
           1915      1.93058e+7 
           1925      1.88201e+7 
           1935      1.25448e+7 
           1945      2.07593e+7 
           1955       2.1201e+7 
           1967      2.40716e+7 
           1976      2.30365e+7 
           1984      2.16481e+7 
           1995      2.14271e+7 
           2005      1.99112e+7 
           2015      1.76134e+7 
           2025      1.72736e+7 
           2035      2.05775e+7 
           2045      2.30622e+7 
           2055      1.95866e+7 
           2065      1.94742e+7 
           2074      2.43091e+7 
           2078       2.6511e+7 
           2085      2.49112e+7 
           2095       2.2789e+7 
           2105      2.05852e+7 
           2115      2.09393e+7 
           2125      2.15077e+7 
           2135      1.59156e+7 
           2145       2.0424e+7 
           2155      2.11313e+7 
           2165      1.83686e+7 
           2175      1.86914e+7 
           2185      1.97541e+7 
           2195      2.17412e+7 
           2205      2.01428e+7 
           2215      1.64337e+7 
           2225      1.57263e+7 
           2235      2.03236e+7 
           2245      1.81681e+7 
           2255      1.52128e+7 
           2265       1.5634e+7 
           2275      1.78697e+7 
           2285      1.89208e+7 
           2295      1.66563e+7 
           2305      1.75927e+7 
           2315      1.61933e+7 
           2325      1.52702e+7 
           2335      1.11225e+7 
           2345      8.63822e+6 
           2355      1.40645e+7 
           2365      8.68133e+6 
           2375       1.1495e+7 
           2385      6.97266e+6 
           2395      9.23101e+6 
           2405      8.79097e+6 
           2415      1.04281e+7 
           2425      1.52341e+7 
           2435      1.44104e+7 
           2445      1.58632e+7 
           2455      1.57811e+7 
           2465      1.51684e+7 
           2475      1.40283e+7 
           2485      1.46306e+7 
           2495      1.37504e+7 
           2505      1.82054e+7 
           2513      1.32374e+7 
           2518      1.38848e+7 
           2525      1.10934e+7 
           2535      1.02123e+7 
           2545      1.05265e+7 
           2555      1.39547e+7 
           2565      1.22154e+7 
           2575      1.47888e+7 
           2585      1.43301e+7 
           2595      1.30523e+7 
           2605      1.16244e+7 
           2615      1.08117e+7 
           2625      1.42833e+7 
           2635      1.62374e+7 
           2645      2.23328e+7 
           2655      2.31884e+7 
           2665      1.77204e+7 
           2675      2.02711e+7 
           2685      1.94159e+7 
           2695       1.8228e+7 
           2705      1.96767e+7 
           2715      1.70885e+7 
           2725       1.7324e+7 
           2735      1.91144e+7 
           2745      1.14513e+7 
           2755      1.29711e+7 
           2765      1.43365e+7 
           2775      1.68913e+7 
           2785      1.16945e+7 
           2795      4.02003e+6 
           2805      5.32533e+6 
           2815       1.5132e+7 
           2825      2.04225e+7 
           2835      2.00134e+7 
           2845      1.92088e+7 
           2855      1.65911e+7 
           2865      2.10528e+7 
           2875      2.02069e+7 
           2885      2.06913e+7 
           2895      1.92985e+7 
           2910      2.36708e+7 
           2930       2.1801e+7 
           2950      2.19401e+7 
           2970      2.38285e+7 
           2990      2.39494e+7 
           3010      2.50148e+7 
           3030      2.45642e+7 
           3050       2.4205e+7 
           3070      2.42536e+7 
           3090      2.53879e+7 
           3110      2.42165e+7 
           3130      2.41029e+7 
           3150      2.51719e+7 
           3170      2.47431e+7 
           3190      2.27335e+7 
           3210      2.41885e+7 
           3230      2.25794e+7 
           3250      2.41781e+7 
           3270      2.48828e+7 
           3290      2.51015e+7 
           3310        2.581e+7 
           3330      2.48839e+7 
           3350      2.44044e+7 
           3370      2.39584e+7 
           3390      2.45495e+7 
           3410      2.51996e+7 
           3430      2.55403e+7 
           3450      2.52656e+7 
           3470      2.48222e+7 
           3490      2.45249e+7 
           3510       2.5451e+7 
           3530       2.5451e+7 
           3550       2.6443e+7 
           3570      2.48135e+7 
           3590      2.47743e+7 
           3610      2.49636e+7 
           3630      2.51871e+7 
           3640      2.45877e+7 
           3650      2.60288e+7 
           3670      2.56737e+7 
           3690      2.46721e+7 
           3710      2.77892e+7 
           3730      3.02891e+7 
           3750      4.06104e+7 
           3770      4.48749e+7 
           3790      5.82453e+7 
           3810       6.8852e+7 
           3830      5.25945e+7 
           3850      7.44233e+7 
           3870      8.49074e+7 
           3890      4.72328e+7 
           3910      8.10081e+7 
           3930      5.41596e+7 
           3950      7.59713e+7 
           3970      3.79863e+7 
           3990      8.04189e+7 
           4010      8.86902e+7 
           4030       8.6912e+7 
           4050      8.62648e+7 
           4070      8.33995e+7 
           4090       6.8855e+7 
           4110      5.16472e+7 
           4130      7.93926e+7 
           4150      8.37828e+7 
           4170      8.15642e+7 
           4190      8.09848e+7 
           4210      8.06359e+7 
           4230      7.82497e+7 
           4250      7.83159e+7 
           4270      7.44268e+7 
           4290       7.5716e+7 
           4310      6.93303e+7 
           4330      5.56849e+7 
           4350      4.69257e+7 
           4370      7.08978e+7 
           4390      7.07165e+7 
           4410       6.9323e+7 
           4430      6.79287e+7 
           4450      6.94217e+7 
           4470      6.93524e+7 
           4490      6.79492e+7 
           4510      7.00836e+7 
           4530      6.64131e+7 
           4550      6.54174e+7 
           4570      6.78693e+7 
           4590      6.45058e+7 
           4610      6.67179e+7 
           4630       6.3932e+7 
           4650      6.47004e+7 
           4670      6.42649e+7 
           4690       6.1536e+7 
           4710      5.90344e+7 
           4730      6.18113e+7 
           4750      6.16008e+7 
           4770      6.01763e+7 
           4790      5.96748e+7 
           4810      5.80968e+7 
           4830      5.65767e+7 
           4850      4.40592e+7 
           4870      3.45312e+7 
           4890      5.30479e+7 
           4910      5.48277e+7 
           4930      5.37529e+7 
           4950      5.47355e+7 
           4970      5.49852e+7 
           4990      5.22426e+7 
           5010      4.95075e+7 
           5030      5.08939e+7 
           5050      5.00779e+7 
           5070      5.11243e+7 
           5090       5.0466e+7 
           5110       5.0278e+7 
           5130      4.88718e+7 
           5150      4.75058e+7 
           5170      4.66653e+7 
           5190      4.59833e+7 
           5210       4.6064e+7 
           5230      4.55099e+7 
           5250      4.61438e+7 
           5270      4.23163e+7 
           5290      4.50097e+7 
           5310       4.3863e+7 
           5330       4.1845e+7 
           5350        4.379e+7 
           5370      4.34043e+7 
           5390      4.25485e+7 
           5410      4.13477e+7 
           5430      4.14832e+7 
           5450      4.20633e+7 
           5470      4.13848e+7 
           5490      4.08114e+7 
           5510      4.03965e+7 
           5530      4.01812e+7 
           5550      4.00866e+7 
           5570      3.94228e+7 
           5590      3.88833e+7 
           5610      3.88746e+7 
           5630      3.88141e+7 
           5650      3.80547e+7 
           5670      3.72617e+7 
           5690      3.73877e+7 
           5710      3.70188e+7 
           5730      3.73587e+7 
           5750      3.63996e+7 
           5770      3.63435e+7 
           5790      3.58153e+7 
           5810      3.56171e+7 
           5830      3.53598e+7 
           5850      3.49368e+7 
           5870       3.4638e+7 
           5890      3.37472e+7 
           5910      3.39549e+7 
           5930      3.36363e+7 
           5950      3.31349e+7 
           5970      3.30106e+7 
           5990      3.24135e+7 
           6010      3.19072e+7 
           6030      3.18917e+7 
           6050      3.14599e+7 
           6070      3.15464e+7 
           6090      3.10886e+7 
           6110      3.06251e+7 
           6130      3.00095e+7 
           6150      2.90138e+7 
           6170      2.92189e+7 
           6190      2.97511e+7 
           6210      2.94162e+7 
           6230      2.89374e+7 
           6250      2.78527e+7 
           6270      2.87524e+7 
           6290      2.85155e+7 
           6310      2.78298e+7 
           6330      2.77313e+7 
           6350       2.6973e+7 
           6370      2.69589e+7 
           6390      2.70478e+7 
           6410      2.64686e+7 
           6430      2.65128e+7 
           6450      2.55427e+7 
           6470      2.59412e+7 
           6490      2.53057e+7 
           6510      2.52429e+7 
           6530      2.46583e+7 
           6550      2.14899e+7 
           6570      1.69055e+7 
           6590      2.33673e+7 
           6610      2.41763e+7 
           6630      2.42535e+7 
           6650      2.41078e+7 
           6670      2.38229e+7 
           6690      2.37202e+7 
           6710       2.3528e+7 
           6730      2.32187e+7 
           6750      2.28142e+7 
           6770        2.301e+7 
           6790      2.27292e+7 
           6810      2.25756e+7 
           6830      2.22796e+7 
           6850      2.21176e+7 
           6870      2.20305e+7 
           6890      2.18401e+7 
           6910      2.16358e+7 
           6930      2.14067e+7 
           6950      2.12744e+7 
           6970      2.10416e+7 
           6990      2.09337e+7 
           7010      2.02885e+7 
           7030      2.05002e+7 
           7050      2.03621e+7 
           7070      2.02229e+7 
           7090      2.00783e+7 
           7110      1.93879e+7 
           7130      1.95527e+7 
           7150      1.93654e+7 
           7170      1.92113e+7 
           7190       1.9047e+7 
           7210      1.89589e+7 
           7230      1.87547e+7 
           7250      1.84485e+7 
           7270      1.85717e+7 
           7290      1.82523e+7 
           7310      1.81906e+7 
           7330      1.80628e+7 
           7350      1.79834e+7 
           7370       1.7895e+7 
           7390      1.76354e+7 
           7410      1.73524e+7 
           7430      1.70742e+7 
           7450      1.70505e+7 
           7470      1.68486e+7 
           7490      1.68453e+7 
           7510      1.67878e+7 
           7530       1.6712e+7 
           7550      1.66692e+7 
           7570      1.64228e+7 
           7590      1.63841e+7 
           7610      1.62415e+7 
           7630      1.61422e+7 
           7650       1.5917e+7 
           7670      1.56932e+7 
           7690      1.55868e+7 
           7710      1.55492e+7 
           7730      1.54814e+7 
           7750      1.53245e+7 
           7770      1.47733e+7 
           7790      1.51911e+7 
           7810      1.50071e+7 
           7830      1.48255e+7 
           7850      1.46021e+7 
           7870      1.45468e+7 
           7890      1.43497e+7 
           7910      1.42712e+7 
           7930      1.40951e+7 
           7950      1.39092e+7 
           7970      1.41449e+7 
           7990      1.37078e+7 
           8010      1.38936e+7 
           8030      1.37193e+7 
           8050      1.36675e+7 
           8070      1.35524e+7 
           8090      1.34642e+7 
           8110      1.33945e+7 
           8130      1.33395e+7 
           8150      1.32406e+7 
           8170      1.31437e+7 
           8190      1.27718e+7 
           8210      1.26124e+7 
           8230      1.25172e+7 
           8250      1.25596e+7 
           8270      1.27181e+7 
           8290      1.25894e+7 
           8310      1.24416e+7 
           8330      1.22587e+7 
           8350      1.22903e+7 
           8370      1.22192e+7 
           8390      1.20588e+7 
           8410      1.19547e+7 
           8430      1.18487e+7 
           8450      1.15051e+7 
           8470      1.13527e+7 
           8490      1.17242e+7 
           8510      1.06261e+7 
           8530      1.17543e+7 
           8550      9.41637e+6 
           8570      1.20598e+7 
           8590      1.10295e+7 
           8610       1.0648e+7 
           8630      1.21805e+7 
           8650      1.16197e+7 
           8670       8.8558e+6 
           8690      1.15833e+7 
           8710      1.23883e+7 
           8730      1.18185e+7 
           8750      9.12122e+6 
           8770      1.13563e+7 
           8790      1.23379e+7 
           8810      1.23654e+7 
           8830      1.18084e+7 
           8850      1.06147e+7 
           8870      8.81815e+6 
           8890      1.13769e+7 
           8910       1.1874e+7 
           8930      1.18289e+7 
           8950       1.1975e+7 
           8970      1.17011e+7 
           8990      1.11737e+7 
           9010      8.72259e+6 
           9030      9.68795e+6 
           9050      1.11631e+7 
           9070      1.10709e+7 
           9090      1.09451e+7 
           9110        1.117e+7 
           9130      1.12237e+7 
           9150      1.12363e+7 
           9170      1.10516e+7 
           9190       1.0723e+7 
           9210      9.91432e+6 
           9230      7.57015e+6 
           9250      9.42368e+6 
           9270      1.00126e+7 
           9290      1.06103e+7 
           9310      1.06144e+7 
           9330      1.04694e+7 
           9350      1.04953e+7 
           9370      1.04664e+7 
           9390      1.02454e+7 
           9410      9.78156e+6 
