# Kurucz ODFNEW /NOVER (2003)
# teff = 19000 K (value for the effective temperature for the model. Temperatures are given in K)
# logg = 3 log(cm/s2) (value for Log(G) for the model.)
# meta = -4  (value for the Metallicity for the model.)
# lh = 1.25  (l/Hp where l is the  mixing length of the convective element and Hp is the pressure scale height)
# vtur = 2 km/s (Microturbulence velocity)
# alpha = 0.4  (Alpha)
#
# column 1: WAVELENGTH (ANGSTROM), Wavelength in Angstrom
# column 2: FLUX (ERG/CM2/S/A), Flux in erg/cm2/s/A
          147.2     4.54189e-22 
            151     3.80497e-21 
          155.2     3.34766e-20 
          158.8     1.96107e-19 
            162     8.81906e-19 
            166     5.31039e-18 
          170.3     3.32057e-17 
          173.4     1.17448e-16 
          176.8     4.45388e-16 
          180.2     1.60335e-15 
          181.7      2.7773e-15 
          186.1     1.31968e-14 
            191     6.85757e-14 
          193.9     1.74611e-13 
          198.4     7.03881e-13 
          201.8     1.93336e-12 
            205     4.84697e-12 
          210.5      2.1977e-11 
          216.2     9.67404e-11 
          219.8     2.36672e-10 
            223     5.11099e-10 
          226.8      1.23803e-9 
            230      2.62464e-9 
            234      6.30469e-9 
            240      2.19556e-8 
          246.5      7.89701e-8 
          252.4      2.37809e-7 
          256.8      5.22316e-7 
            260      9.10392e-7 
            264      1.78619e-6 
          268.5      3.71706e-6 
          273.5      8.14477e-6 
          278.5      1.73263e-5 
            284      3.84773e-5 
            290      8.85874e-5 
            296     0.000196762 
            301     0.000372904 
            308     0.000879237 
            318      0.00279403 
            328      0.00823465 
            338       0.0226656 
            348       0.0586167 
            357        0.131273 
            366        0.281712 
            375        0.581067 
            385          1.2444 
            395          2.5558 
            405         5.05039 
            414         9.04128 
            422         14.8298 
            430         23.8385 
            441         44.3964 
            451         75.9067 
            460         120.331 
            470         196.227 
            480         312.862 
            490         488.367 
            500         747.341 
            506         4308.24 
            512         13000.2 
            520         17370.8 
            530         28372.1 
            540         31427.7 
            550         49745.7 
            560         64159.3 
            570         81664.1 
            580         82647.5 
            590          115952 
            600          161334 
            610          199957 
            620          244972 
            630          297644 
            640          358840 
            650          430497 
            658          495488 
            665          558451 
            675          658901 
            685          772270 
            695          904260 
            705      1.05062e+6 
            716      1.23221e+6 
            726      1.41728e+6 
            735       1.6028e+6 
            745       1.8294e+6 
            755      2.07946e+6 
            765      2.35414e+6 
            775      2.65562e+6 
            785      2.98467e+6 
            795      3.34275e+6 
            805      3.73157e+6 
            815      4.15198e+6 
            825      4.60627e+6 
            835      5.06789e+6 
            845      5.61961e+6 
            855      6.18001e+6 
            865      6.78161e+6 
            875      7.42068e+6 
            885      8.10096e+6 
            895      8.82159e+6 
            905        9.561e+6 
            915      2.30918e+7 
            925      3.87488e+8 
            935      1.49976e+9 
            945      4.29029e+9 
            955       5.4868e+9 
            965      6.91259e+9 
            975      3.41005e+9 
            985      7.54954e+9 
            995      7.45943e+9 
           1005      7.53254e+9 
           1015      7.03782e+9 
           1025      2.71995e+9 
           1035      6.66541e+9 
           1045      7.31225e+9 
           1055      7.25349e+9 
           1065      7.06012e+9 
           1075      7.05488e+9 
           1085      6.82176e+9 
           1095      6.94123e+9 
           1105       6.7381e+9 
           1115      6.67748e+9 
           1125      6.53876e+9 
           1135      6.57787e+9 
           1145      6.48531e+9 
           1155      6.43252e+9 
           1165      6.35338e+9 
           1175      5.98483e+9 
           1185      6.15575e+9 
           1195      5.86664e+9 
           1205      5.23261e+9 
           1215      1.58539e+9 
           1225      4.99988e+9 
           1235      5.65579e+9 
           1245      5.67953e+9 
           1255      5.61928e+9 
           1265      5.52726e+9 
           1275      5.50254e+9 
           1285      5.42978e+9 
           1295      5.24381e+9 
           1305      5.20357e+9 
           1315      5.21841e+9 
           1325      5.13779e+9 
           1335       4.9922e+9 
           1345      5.01383e+9 
           1355      4.95138e+9 
           1365      4.88476e+9 
           1375      4.82134e+9 
           1385      4.76002e+9 
           1395      4.65795e+9 
           1405      4.60677e+9 
           1415      4.57575e+9 
           1425      4.51769e+9 
           1435      4.45952e+9 
           1442       4.4185e+9 
           1447       4.3891e+9 
           1455      4.34186e+9 
           1465      4.28437e+9 
           1475      4.22785e+9 
           1485      4.17179e+9 
           1495       4.1165e+9 
           1505      4.06032e+9 
           1512      4.02462e+9 
           1517      3.99863e+9 
           1525      3.95613e+9 
           1535       3.8998e+9 
           1545      3.84932e+9 
           1555      3.79888e+9 
           1565      3.75649e+9 
           1575      3.70909e+9 
           1585      3.66229e+9 
           1595      3.61562e+9 
           1605      3.56544e+9 
           1615      3.51911e+9 
           1625      3.47693e+9 
           1635      3.43242e+9 
           1645      3.37007e+9 
           1655      3.34556e+9 
           1665      3.30318e+9 
           1672      3.26696e+9 
           1677      3.25286e+9 
           1685      3.21966e+9 
           1695      3.17837e+9 
           1705      3.13783e+9 
           1715      3.09737e+9 
           1725      3.05865e+9 
           1735      3.02049e+9 
           1745      2.98276e+9 
           1755      2.94666e+9 
           1765      2.90671e+9 
           1775      2.87334e+9 
           1785      2.83851e+9 
           1795      2.80405e+9 
           1805      2.76983e+9 
           1815      2.73585e+9 
           1825      2.70289e+9 
           1835      2.67027e+9 
           1845      2.63609e+9 
           1855      2.58683e+9 
           1865      2.56014e+9 
           1875      2.54159e+9 
           1885      2.50801e+9 
           1895      2.47049e+9 
           1905      2.44992e+9 
           1915       2.4132e+9 
           1925      2.38545e+9 
           1935      2.36035e+9 
           1945      2.33475e+9 
           1955      2.30353e+9 
           1967      2.27483e+9 
           1976      2.25175e+9 
           1984      2.22932e+9 
           1995       2.1978e+9 
           2005      2.17668e+9 
           2015      2.15234e+9 
           2025       2.1281e+9 
           2035      2.10351e+9 
           2045      2.07966e+9 
           2055      2.05126e+9 
           2065      2.02932e+9 
           2074      2.01201e+9 
           2078      1.99528e+9 
           2085      1.98607e+9 
           2095      1.96209e+9 
           2105      1.94137e+9 
           2115      1.91968e+9 
           2125      1.89824e+9 
           2135      1.87686e+9 
           2145      1.85572e+9 
           2155      1.83513e+9 
           2165      1.81476e+9 
           2175       1.7946e+9 
           2185      1.77498e+9 
           2195      1.75556e+9 
           2205      1.73634e+9 
           2215      1.71732e+9 
           2225      1.69857e+9 
           2235      1.67993e+9 
           2245      1.66171e+9 
           2255      1.64352e+9 
           2265      1.62581e+9 
           2275      1.60828e+9 
           2285      1.59106e+9 
           2295      1.57279e+9 
           2305      1.55725e+9 
           2315      1.54067e+9 
           2325      1.52431e+9 
           2335      1.50789e+9 
           2345       1.4917e+9 
           2355      1.47614e+9 
           2365      1.46045e+9 
           2375       1.4451e+9 
           2385      1.42977e+9 
           2395      1.41496e+9 
           2405      1.40035e+9 
           2415      1.38587e+9 
           2425      1.37165e+9 
           2435      1.35742e+9 
           2445      1.34338e+9 
           2455      1.32964e+9 
           2465      1.31609e+9 
           2475      1.30264e+9 
           2485      1.28937e+9 
           2495      1.27301e+9 
           2505       1.2634e+9 
           2513      1.25305e+9 
           2518      1.24677e+9 
           2525      1.23803e+9 
           2535      1.22565e+9 
           2545      1.21336e+9 
           2555      1.20151e+9 
           2565      1.18947e+9 
           2575      1.17775e+9 
           2585      1.16606e+9 
           2595      1.15446e+9 
           2605      1.15361e+9 
           2615        1.142e+9 
           2625      1.12905e+9 
           2635      1.11458e+9 
           2645      1.10509e+9 
           2655      1.09325e+9 
           2665      1.08188e+9 
           2675      1.07081e+9 
           2685      1.06598e+9 
           2695      1.04932e+9 
           2705      1.04544e+9 
           2715      1.03535e+9 
           2725      1.01858e+9 
           2735      1.01558e+9 
           2745      1.00579e+9 
           2755       9.9622e+8 
           2765      9.79862e+8 
           2775      9.77607e+8 
           2785      9.68413e+8 
           2795       9.5759e+8 
           2805      9.49817e+8 
           2815      9.41369e+8 
           2825       9.2485e+8 
           2835      9.22087e+8 
           2845      9.15151e+8 
           2855      9.06671e+8 
           2865      8.98242e+8 
           2875      8.89908e+8 
           2885      8.81712e+8 
           2895      8.73609e+8 
           2910        8.616e+8 
           2930      8.45973e+8 
           2950      8.26272e+8 
           2970      8.15822e+8 
           2990      8.01194e+8 
           3010      7.86965e+8 
           3030       7.7304e+8 
           3050      7.59412e+8 
           3070      7.46072e+8 
           3090      7.33052e+8 
           3110      7.20343e+8 
           3130      7.08706e+8 
           3150      6.96356e+8 
           3170      6.84111e+8 
           3190       6.6797e+8 
           3210      6.61062e+8 
           3230      6.49831e+8 
           3250      6.38862e+8 
           3270      6.28746e+8 
           3290       6.1754e+8 
           3310      6.08036e+8 
           3330      5.98003e+8 
           3350      5.87292e+8 
           3370       5.7855e+8 
           3390      5.69154e+8 
           3410      5.59938e+8 
           3430      5.48976e+8 
           3450      5.38642e+8 
           3470      5.31418e+8 
           3490      5.23396e+8 
           3510      5.17448e+8 
           3530      5.09455e+8 
           3550      5.01549e+8 
           3570      4.95265e+8 
           3590      4.85699e+8 
           3610       4.7854e+8 
           3630      4.70622e+8 
           3640       4.6912e+8 
           3650      4.65168e+8 
           3670      4.58937e+8 
           3690      4.41912e+8 
           3710      4.49067e+8 
           3730      4.58101e+8 
           3750      5.21193e+8 
           3770      5.25405e+8 
           3790      5.42876e+8 
           3810       5.6631e+8 
           3830      4.99981e+8 
           3850      5.75851e+8 
           3870      5.69563e+8 
           3890      4.79548e+8 
           3910      5.59694e+8 
           3930      5.49207e+8 
           3950      5.42259e+8 
           3970      4.46146e+8 
           3990      5.23679e+8 
           4010       5.1568e+8 
           4030      4.94105e+8 
           4050      5.03248e+8 
           4070      4.94789e+8 
           4090      4.70864e+8 
           4110      4.14418e+8 
           4130      4.67331e+8 
           4150      4.61306e+8 
           4170      4.56524e+8 
           4190      4.50781e+8 
           4210      4.43872e+8 
           4230      4.37074e+8 
           4250      4.30405e+8 
           4270      4.23882e+8 
           4290      4.17462e+8 
           4310      4.10555e+8 
           4330      3.84668e+8 
           4350      3.51096e+8 
           4370      3.91961e+8 
           4390      3.80305e+8 
           4410      3.81299e+8 
           4430      3.74101e+8 
           4450      3.70118e+8 
           4470      3.54276e+8 
           4490      3.59367e+8 
           4510       3.5415e+8 
           4530       3.4901e+8 
           4550      3.43983e+8 
           4570      3.39049e+8 
           4590      3.34188e+8 
           4610      3.29415e+8 
           4630       3.2473e+8 
           4650      3.20131e+8 
           4670      3.15615e+8 
           4690      3.11165e+8 
           4710      3.03535e+8 
           4730      3.02489e+8 
           4750      2.98244e+8 
           4770      2.94093e+8 
           4790          2.9e+8 
           4810      2.85982e+8 
           4830      2.81551e+8 
           4850      2.67094e+8 
           4870      2.39108e+8 
           4890      2.69658e+8 
           4910      2.66904e+8 
           4930      2.59054e+8 
           4950      2.59778e+8 
           4970      2.56289e+8 
           4990      2.52846e+8 
           5010      2.47034e+8 
           5030      2.46161e+8 
           5050       2.4163e+8 
           5070      2.39669e+8 
           5090      2.36509e+8 
           5110      2.33392e+8 
           5130      2.30344e+8 
           5150      2.27337e+8 
           5170       2.2437e+8 
           5190      2.21469e+8 
           5210      2.18606e+8 
           5230       2.1578e+8 
           5250      2.13005e+8 
           5270      2.10279e+8 
           5290      2.07588e+8 
           5310      2.04945e+8 
           5330      2.02349e+8 
           5350      1.99799e+8 
           5370      1.97282e+8 
           5390      1.94796e+8 
           5410      1.92354e+8 
           5430      1.89943e+8 
           5450      1.87575e+8 
           5470      1.85249e+8 
           5490      1.82952e+8 
           5510      1.80696e+8 
           5530      1.78479e+8 
           5550       1.7629e+8 
           5570      1.74128e+8 
           5590      1.72016e+8 
           5610      1.69918e+8 
           5630      1.67869e+8 
           5650      1.65845e+8 
           5670      1.63845e+8 
           5690      1.61892e+8 
           5710      1.59951e+8 
           5730      1.58045e+8 
           5750      1.56161e+8 
           5770        1.543e+8 
           5790      1.52471e+8 
           5810      1.50676e+8 
           5830      1.48901e+8 
           5850      1.47158e+8 
           5870      1.42002e+8 
           5890      1.43711e+8 
           5910      1.42071e+8 
           5930      1.40429e+8 
           5950      1.38805e+8 
           5970        1.372e+8 
           5990      1.35624e+8 
           6010      1.34077e+8 
           6030      1.32546e+8 
           6050      1.31043e+8 
           6070      1.29547e+8 
           6090      1.28088e+8 
           6110      1.26636e+8 
           6130      1.25209e+8 
           6150      1.23808e+8 
           6170      1.22423e+8 
           6190      1.21053e+8 
           6210      1.19708e+8 
           6230      1.18378e+8 
           6250      1.17062e+8 
           6270       1.1577e+8 
           6290      1.14493e+8 
           6310      1.13238e+8 
           6330      1.11997e+8 
           6350      1.10779e+8 
           6370      1.09574e+8 
           6390      1.08381e+8 
           6410      1.07211e+8 
           6430      1.06053e+8 
           6450      1.04916e+8 
           6470      1.03783e+8 
           6490      1.02679e+8 
           6510      1.01578e+8 
           6530      1.00338e+8 
           6550      9.71976e+7 
           6570      8.68552e+7 
           6590        9.688e+7 
           6610      9.63119e+7 
           6630      9.53032e+7 
           6650       9.4373e+7 
           6670      9.27155e+7 
           6690      9.17664e+7 
           6710       9.1446e+7 
           6730      9.05041e+7 
           6750      8.95634e+7 
           6770      8.86405e+7 
           6790      8.77268e+7 
           6810      8.68305e+7 
           6830      8.59351e+7 
           6850      8.50567e+7 
           6870       8.4195e+7 
           6890      8.33339e+7 
           6910      8.24972e+7 
           6930       8.1653e+7 
           6950      8.08327e+7 
           6970      8.00206e+7 
           6990      7.92086e+7 
           7010      7.84276e+7 
           7030      7.76466e+7 
           7050      7.68732e+7 
           7070      7.50144e+7 
           7090      7.53562e+7 
           7110      7.46124e+7 
           7130      7.38728e+7 
           7150      7.31462e+7 
           7170      7.24148e+7 
           7190      7.17195e+7 
           7210      7.10193e+7 
           7230      7.03271e+7 
           7250      6.96443e+7 
           7270      6.89694e+7 
           7290      6.78202e+7 
           7310      6.76336e+7 
           7330      6.69937e+7 
           7350      6.63514e+7 
           7370      6.57164e+7 
           7390      6.50894e+7 
           7410      6.44689e+7 
           7430      6.38561e+7 
           7450      6.32599e+7 
           7470      6.26616e+7 
           7490      6.20703e+7 
           7510      6.14649e+7 
           7530      6.09089e+7 
           7550      6.03382e+7 
           7570      5.97745e+7 
           7590      5.92173e+7 
           7610      5.86664e+7 
           7630      5.81218e+7 
           7650      5.75833e+7 
           7670      5.70529e+7 
           7690      5.65252e+7 
           7710      5.60023e+7 
           7730      5.54941e+7 
           7750      5.49804e+7 
           7770      5.44831e+7 
           7790      5.39882e+7 
           7810      5.34601e+7 
           7830      5.30134e+7 
           7850      5.25878e+7 
           7870      5.21134e+7 
           7890      5.16244e+7 
           7910      5.11794e+7 
           7930      5.06916e+7 
           7950      5.01805e+7 
           7970      4.96941e+7 
           7990      4.93023e+7 
           8010      4.88291e+7 
           8030      4.84133e+7 
           8050      4.80195e+7 
           8070      4.76077e+7 
           8090      4.71072e+7 
           8110      4.67268e+7 
           8130      4.63826e+7 
           8150      4.58904e+7 
           8170      4.55791e+7 
           8190      4.51534e+7 
           8210      4.46705e+7 
           8230      4.44152e+7 
           8250      4.40358e+7 
           8270      4.34595e+7 
           8290       4.3227e+7 
           8310      4.28692e+7 
           8330      4.24909e+7 
           8350      4.19472e+7 
           8370      4.16018e+7 
           8390      4.12747e+7 
           8410      4.08618e+7 
           8430      4.05155e+7 
           8450      4.00601e+7 
           8470      3.93697e+7 
           8490      3.98832e+7 
           8510      3.84823e+7 
           8530      3.95447e+7 
           8550      3.71599e+7 
           8570      3.96073e+7 
           8590      3.73599e+7 
