# Kurucz ODFNEW /NOVER (2003)
# teff = 23000 K (value for the effective temperature for the model. Temperatures are given in K)
# logg = 4.5 log(cm/s2) (value for Log(G) for the model.)
# meta = -2.5  (value for the Metallicity for the model.)
# lh = 1.25  (l/Hp where l is the  mixing length of the convective element and Hp is the pressure scale height)
# vtur = 2 km/s (Microturbulence velocity)
# alpha = 0  (Alpha)
#
# column 1: WAVELENGTH (ANGSTROM), Wavelength in Angstrom
# column 2: FLUX (ERG/CM2/S/A), Flux in erg/cm2/s/A
          147.2     1.17886e-16 
            151     6.67905e-16 
          155.2     4.11998e-15 
          158.8     1.81601e-14 
            162     6.42438e-14 
            166     2.90969e-13 
          170.3     1.36262e-12 
          173.4     3.95278e-12 
          176.8     1.21679e-11 
          180.2     3.58735e-11 
          181.7     5.70442e-11 
          186.1     2.12789e-10 
            191     8.56736e-10 
          193.9        1.888e-9 
          198.4      6.13696e-9 
          201.8       1.4425e-8 
            205      3.13889e-8 
          210.5      1.12772e-7 
          216.2      3.95158e-7 
          219.8        8.424e-7 
            223      1.61589e-6 
          226.8      3.41558e-6 
            230      9.58061e-6 
            234       2.1162e-5 
            240      5.91164e-5 
          246.5     0.000169603 
          252.4     0.000422206 
          256.8     0.000801088 
            260      0.00127648 
            264      0.00222516 
          268.5      0.00406959 
          273.5      0.00776704 
          278.5       0.0144815 
            284       0.0279707 
            290       0.0556538 
            296        0.107451 
            301        0.182159 
            308        0.367731 
            318        0.960376 
            328         2.34409 
            338         5.40672 
            348         11.8471 
            357         23.0432 
            366         43.2847 
            375         78.6544 
            385         147.421 
            395         266.831 
            405         467.808 
            414         755.938 
            422         1136.23 
            430         1679.41 
            441         2801.82 
            451         4355.33 
            460         6360.78 
            470         9506.58 
            480         13942.4 
            490         20093.3 
            500         28480.7 
            506          159926 
            512          498792 
            520          631732 
            530          896224 
            540          983773 
            550      1.37267e+6 
            560       1.6566e+6 
            570      2.00563e+6 
            580      2.05992e+6 
            590      2.69403e+6 
            600      3.34316e+6 
            610      3.92939e+6 
            620      4.56897e+6 
            630      5.29813e+6 
            640      6.06124e+6 
            650       6.9921e+6 
            658      7.78416e+6 
            665      8.51359e+6 
            675      9.58474e+6 
            685      1.07706e+7 
            695      1.22513e+7 
            705      1.36965e+7 
            716      1.54239e+7 
            726      1.71191e+7 
            735      1.88307e+7 
            745      2.08169e+7 
            755      2.29266e+7 
            765      2.51539e+7 
            775      2.75517e+7 
            785      3.00772e+7 
            795      3.27205e+7 
            805      3.55269e+7 
            815      3.84571e+7 
            825       4.1581e+7 
            835       4.4383e+7 
            845      4.81701e+7 
            855      5.15808e+7 
            865      5.53948e+7 
            875      5.92532e+7 
            885      6.32512e+7 
            895      6.73624e+7 
            905      7.10198e+7 
            915      1.10559e+8 
            925      5.72959e+8 
            935      1.81271e+9 
            945      7.51413e+9 
            955     1.34128e+10 
            965      1.8533e+10 
            975      6.60349e+9 
            985     2.43066e+10 
            995     2.44921e+10 
           1005     2.51004e+10 
           1015     2.05722e+10 
           1025      4.26849e+9 
           1035     1.78566e+10 
           1045     2.36686e+10 
           1055     2.34955e+10 
           1065     2.21107e+10 
           1075     2.23826e+10 
           1085     2.08448e+10 
           1095     2.16525e+10 
           1105     2.07493e+10 
           1115     2.03576e+10 
           1125     1.93737e+10 
           1135     1.95239e+10 
           1145     1.87683e+10 
           1155     1.87376e+10 
           1165     1.83251e+10 
           1175     1.64594e+10 
           1185     1.73163e+10 
           1195     1.60115e+10 
           1205      1.2888e+10 
           1215      3.05421e+9 
           1225     1.18763e+10 
           1235      1.4978e+10 
           1245      1.5031e+10 
           1255     1.48726e+10 
           1265     1.44872e+10 
           1275     1.44078e+10 
           1285     1.41249e+10 
           1295      1.3334e+10 
           1305     1.32061e+10 
           1315     1.32594e+10 
           1325     1.28285e+10 
           1335     1.23836e+10 
           1345     1.24359e+10 
           1355     1.22304e+10 
           1365     1.19502e+10 
           1375     1.17224e+10 
           1385     1.15013e+10 
           1395     1.10921e+10 
           1405     1.09378e+10 
           1415     1.08265e+10 
           1425     1.06396e+10 
           1435     1.04445e+10 
           1442     1.03192e+10 
           1447     1.02165e+10 
           1455     1.00609e+10 
           1465       9.8645e+9 
           1475      9.68479e+9 
           1485       9.5003e+9 
           1495      9.32778e+9 
           1505      9.12124e+9 
           1512      9.00435e+9 
           1517       8.9356e+9 
           1525      8.79965e+9 
           1535      8.56402e+9 
           1545       8.4461e+9 
           1555      8.26303e+9 
           1565      8.19269e+9 
           1575      8.06514e+9 
           1585      7.92531e+9 
           1595      7.79411e+9 
           1605       7.6072e+9 
           1615      7.47486e+9 
           1625      7.39385e+9 
           1635      7.27761e+9 
           1645      7.08679e+9 
           1655      7.03318e+9 
           1665       6.9287e+9 
           1672      6.79669e+9 
           1677      6.79641e+9 
           1685      6.70496e+9 
           1695      6.58569e+9 
           1705      6.47057e+9 
           1715      6.35344e+9 
           1725       6.2567e+9 
           1735      6.16526e+9 
           1745      6.06263e+9 
           1755       5.9787e+9 
           1765       5.8248e+9 
           1775       5.7737e+9 
           1785      5.69547e+9 
           1795      5.61407e+9 
           1805      5.53168e+9 
           1815      5.43739e+9 
           1825      5.35862e+9 
           1835      5.27587e+9 
           1845      5.16439e+9 
           1855      5.02696e+9 
           1865      4.97374e+9 
           1875      4.95673e+9 
           1885      4.83822e+9 
           1895      4.72708e+9 
           1905      4.72284e+9 
           1915      4.60317e+9 
           1925      4.53717e+9 
           1935      4.49905e+9 
           1945      4.46057e+9 
           1955      4.34646e+9 
           1967      4.32182e+9 
           1976      4.28274e+9 
           1984      4.20922e+9 
           1995      4.11163e+9 
           2005      4.10145e+9 
           2015        4.055e+9 
           2025      4.00476e+9 
           2035      3.93902e+9 
           2045       3.8842e+9 
           2055      3.80804e+9 
           2065      3.75552e+9 
           2074       3.7456e+9 
           2078      3.68329e+9 
           2085      3.67715e+9 
           2095      3.61002e+9 
           2105       3.5821e+9 
           2115      3.54022e+9 
           2125      3.49797e+9 
           2135       3.4499e+9 
           2145      3.40144e+9 
           2155      3.35996e+9 
           2165      3.31654e+9 
           2175      3.27226e+9 
           2185      3.23077e+9 
           2195      3.19014e+9 
           2205      3.14856e+9 
           2215       3.1083e+9 
           2225      3.06741e+9 
           2235      3.02863e+9 
           2245      2.99117e+9 
           2255       2.9524e+9 
           2265      2.91633e+9 
           2275      2.87954e+9 
           2285      2.84422e+9 
           2295      2.79652e+9 
           2305      2.77352e+9 
           2315      2.73857e+9 
           2325      2.70524e+9 
           2335      2.67058e+9 
           2345      2.63709e+9 
           2355      2.60727e+9 
           2365      2.57456e+9 
           2375      2.54404e+9 
           2385      2.51189e+9 
           2395      2.48223e+9 
           2405      2.45296e+9 
           2415      2.42326e+9 
           2425      2.39601e+9 
           2435      2.36697e+9 
           2445      2.33927e+9 
           2455       2.3125e+9 
           2465      2.28485e+9 
           2475      2.25842e+9 
           2485      2.23199e+9 
           2495      2.19277e+9 
           2505      2.18028e+9 
           2513       2.1564e+9 
           2518      2.14784e+9 
           2525      2.13022e+9 
           2535      2.10541e+9 
           2545      2.08064e+9 
           2555      2.05885e+9 
           2565      2.03521e+9 
           2575      2.01278e+9 
           2585      1.99019e+9 
           2595      1.96772e+9 
           2605       1.9612e+9 
           2615      1.93967e+9 
           2625      1.91792e+9 
           2635      1.89373e+9 
           2645      1.87282e+9 
           2655      1.84922e+9 
           2665      1.82466e+9 
           2675      1.80256e+9 
           2685      1.79548e+9 
           2695      1.76128e+9 
           2705      1.75652e+9 
           2715      1.73742e+9 
           2725      1.70328e+9 
           2735      1.70012e+9 
           2745       1.6804e+9 
           2755      1.66277e+9 
           2765      1.63066e+9 
           2775      1.62871e+9 
           2785       1.6113e+9 
           2795        1.586e+9 
           2805      1.57495e+9 
           2815      1.56102e+9 
           2825      1.52615e+9 
           2835       1.5177e+9 
           2845      1.51254e+9 
           2855      1.49688e+9 
           2865       1.4814e+9 
           2875       1.4661e+9 
           2885      1.45102e+9 
           2895      1.43612e+9 
           2910      1.41414e+9 
           2930      1.38538e+9 
           2950      1.34666e+9 
           2970      1.33046e+9 
           2990      1.30387e+9 
           3010      1.27812e+9 
           3030      1.25306e+9 
           3050      1.22854e+9 
           3070      1.20463e+9 
           3090      1.18123e+9 
           3110      1.15861e+9 
           3130      1.13781e+9 
           3150      1.11608e+9 
           3170      1.09455e+9 
           3190      1.06428e+9 
           3210      1.05355e+9 
           3230      1.03368e+9 
           3250      1.01429e+9 
           3270      9.96776e+8 
           3290      9.77002e+8 
           3310      9.60624e+8 
           3330      9.43174e+8 
           3350      9.24426e+8 
           3370      9.09506e+8 
           3390      8.93233e+8 
           3410      8.77343e+8 
           3430       8.5824e+8 
           3450      8.40088e+8 
           3470      8.27804e+8 
           3490      8.13333e+8 
           3510      8.00972e+8 
           3530      7.88837e+8 
           3550        7.754e+8 
           3570       7.6653e+8 
           3590      7.48455e+8 
           3610      7.38016e+8 
           3630      7.23445e+8 
           3640      7.22489e+8 
           3650       7.1551e+8 
           3670       7.0681e+8 
           3690      6.93414e+8 
           3710      6.69344e+8 
           3730      6.40334e+8 
           3750      6.63794e+8 
           3770      6.63396e+8 
           3790      7.09182e+8 
           3810      7.47199e+8 
           3830      6.40925e+8 
           3850      7.78951e+8 
           3870      7.97031e+8 
           3890      6.03107e+8 
           3910      7.86425e+8 
           3930      7.83563e+8 
           3950      7.62827e+8 
           3970      5.62146e+8 
           3990      7.29388e+8 
           4010      7.33212e+8 
           4030      6.82715e+8 
           4050      7.19329e+8 
           4070      7.03043e+8 
           4090      6.27653e+8 
           4110      5.37548e+8 
           4130      6.56856e+8 
           4150      6.54193e+8 
           4170      6.50598e+8 
           4190      6.42256e+8 
           4210      6.31726e+8 
           4230      6.21366e+8 
           4250      6.11172e+8 
           4270      6.00626e+8 
           4290      5.89532e+8 
           4310      5.75089e+8 
           4330      5.03903e+8 
           4350      4.55559e+8 
           4370      5.45557e+8 
           4390      5.24295e+8 
           4410      5.36228e+8 
           4430      5.25581e+8 
           4450      5.20011e+8 
           4470      4.82637e+8 
           4490      5.03256e+8 
           4510      4.96469e+8 
           4530      4.88809e+8 
           4550      4.81282e+8 
           4570      4.73922e+8 
           4590      4.66707e+8 
           4610      4.59635e+8 
           4630      4.52668e+8 
           4650      4.45803e+8 
           4670       4.3916e+8 
           4690      4.32562e+8 
           4710      4.19947e+8 
           4730      4.19788e+8 
           4750      4.13522e+8 
           4770      4.07561e+8 
           4790      4.01341e+8 
           4810      3.94248e+8 
           4830      3.85144e+8 
           4850      3.45395e+8 
           4870      3.04902e+8 
           4890      3.66251e+8 
           4910      3.65508e+8 
           4930      3.50923e+8 
           4950      3.57503e+8 
           4970      3.52466e+8 
           4990      3.47482e+8 
           5010      3.37674e+8 
           5030      3.37764e+8 
           5050      3.30706e+8 
           5070      3.28425e+8 
           5090      3.23871e+8 
           5110      3.19394e+8 
           5130       3.1499e+8 
           5150      3.10659e+8 
           5170      3.06414e+8 
           5190      3.02238e+8 
           5210      2.98118e+8 
           5230      2.94093e+8 
           5250      2.90121e+8 
           5270      2.86227e+8 
           5290      2.82385e+8 
           5310      2.78618e+8 
           5330      2.74913e+8 
           5350      2.71256e+8 
           5370      2.67684e+8 
           5390      2.64158e+8 
           5410       2.6069e+8 
           5430      2.57265e+8 
           5450      2.53922e+8 
           5470      2.50621e+8 
           5490      2.47373e+8 
           5510      2.44178e+8 
           5530      2.41048e+8 
           5550      2.37956e+8 
           5570      2.34915e+8 
           5590      2.31923e+8 
           5610      2.28979e+8 
           5630      2.26072e+8 
           5650      2.23223e+8 
           5670      2.20409e+8 
           5690       2.1764e+8 
           5710      2.14928e+8 
           5730       2.1226e+8 
           5750      2.09624e+8 
           5770       2.0703e+8 
           5790      2.04468e+8 
           5810      2.01957e+8 
           5830      1.99477e+8 
           5850      1.97047e+8 
           5870      1.87726e+8 
           5890       1.9185e+8 
           5910       1.8995e+8 
           5930      1.87664e+8 
           5950      1.85404e+8 
           5970      1.83181e+8 
           5990      1.80983e+8 
           6010      1.78831e+8 
           6030      1.76704e+8 
           6050      1.74611e+8 
           6070      1.72553e+8 
           6090      1.70517e+8 
           6110      1.68515e+8 
           6130      1.66545e+8 
           6150      1.64597e+8 
           6170       1.6269e+8 
           6190      1.60805e+8 
           6210       1.5894e+8 
           6230      1.57106e+8 
           6250      1.55302e+8 
           6270      1.53527e+8 
           6290      1.51771e+8 
           6310      1.50044e+8 
           6330      1.48336e+8 
           6350      1.46646e+8 
           6370      1.44993e+8 
           6390      1.43368e+8 
           6410      1.41759e+8 
           6430      1.40168e+8 
           6450      1.38603e+8 
           6470      1.37063e+8 
           6490       1.3554e+8 
           6510       1.3366e+8 
           6530      1.31446e+8 
           6550      1.23655e+8 
           6570      1.08703e+8 
           6590      1.25993e+8 
           6610        1.263e+8 
           6630      1.25351e+8 
           6650      1.24189e+8 
           6670      1.21354e+8 
           6690      1.20074e+8 
           6710      1.20213e+8 
           6730      1.18917e+8 
           6750      1.17643e+8 
           6770       1.1639e+8 
           6790       1.1515e+8 
           6810       1.1393e+8 
           6830      1.12723e+8 
           6850      1.11527e+8 
           6870      1.10352e+8 
           6890      1.09197e+8 
           6910      1.08053e+8 
           6930       1.0692e+8 
           6950      1.05806e+8 
           6970      1.04704e+8 
           6990       1.0362e+8 
           7010      1.02546e+8 
           7030      1.01491e+8 
           7050      1.00446e+8 
           7070      9.77004e+7 
           7090      9.84015e+7 
           7110      9.73941e+7 
           7130      9.64039e+7 
           7150      9.54231e+7 
           7170      9.44372e+7 
           7190      9.35044e+7 
           7210      9.25588e+7 
           7230      9.16006e+7 
           7250      9.07161e+7 
           7270      8.98042e+7 
           7290      8.81425e+7 
           7310      8.80133e+7 
           7330      8.71551e+7 
           7350      8.62909e+7 
           7370      8.54417e+7 
           7390      8.46005e+7 
           7410       8.3767e+7 
           7430      8.29482e+7 
           7450      8.21505e+7 
           7470      8.13466e+7 
           7490      8.05568e+7 
           7510      7.97476e+7 
           7530      7.90056e+7 
           7550      7.82439e+7 
           7570      7.74892e+7 
           7590      7.67478e+7 
           7610      7.60067e+7 
           7630      7.52852e+7 
           7650      7.45637e+7 
           7670      7.38552e+7 
           7690       7.3153e+7 
           7710      7.24634e+7 
           7730        7.178e+7 
           7750      7.11027e+7 
           7770      7.04314e+7 
           7790      6.97722e+7 
           7810      6.90818e+7 
           7830      6.84774e+7 
           7850      6.79149e+7 
           7870      6.72782e+7 
           7890      6.66168e+7 
           7910      6.60456e+7 
           7930      6.54313e+7 
           7950      6.48342e+7 
           7970      6.41178e+7 
           7990      6.35081e+7 
           8010      6.29095e+7 
           8030      6.23336e+7 
           8050      6.17685e+7 
           8070      6.12544e+7 
           8090       6.0595e+7 
           8110      6.01419e+7 
           8130      5.96241e+7 
           8150      5.90369e+7 
           8170      5.85845e+7 
           8190      5.79842e+7 
           8210      5.74114e+7 
           8230      5.70604e+7 
           8250      5.65738e+7 
           8270      5.57992e+7 
           8290      5.55413e+7 
           8310      5.50778e+7 
           8330      5.45694e+7 
           8350      5.38198e+7 
           8370      5.35323e+7 
           8390      5.31478e+7 
           8410      5.26786e+7 
           8430      5.21686e+7 
           8450      5.13621e+7 
           8470      5.12202e+7 
           8490      5.06718e+7 
           8510      5.02066e+7 
           8530      4.97964e+7 
           8550       4.8884e+7 
           8570      4.94301e+7 
