# Kurucz ODFNEW /NOVER (2003)
# teff = 28000 K (value for the effective temperature for the model. Temperatures are given in K)
# logg = 4 log(cm/s2) (value for Log(G) for the model.)
# meta = -1  (value for the Metallicity for the model.)
# lh = 1.25  (l/Hp where l is the  mixing length of the convective element and Hp is the pressure scale height)
# vtur = 2 km/s (Microturbulence velocity)
# alpha = 0.4  (Alpha)
#
# column 1: WAVELENGTH (ANGSTROM), Wavelength in Angstrom
# column 2: FLUX (ERG/CM2/S/A), Flux in erg/cm2/s/A
          147.2      4.1879e-11 
            151     1.58338e-10 
          155.2     6.40159e-10 
          158.8      2.00275e-9 
            162       5.2981e-9 
            166      1.69703e-8 
          170.3      5.58156e-8 
          173.4      1.27011e-7 
          176.8      3.02618e-7 
          180.2      6.97608e-7 
          181.7      9.98236e-7 
          186.1      2.76348e-6 
            191      8.12022e-6 
          193.9      1.49701e-5 
          198.4       3.7302e-5 
          201.8      7.23157e-5 
            205     0.000132091 
          210.5     0.000356161 
          216.2     0.000942097 
          219.8      0.00169541 
            223      0.00281132 
          226.8      0.00503834 
            230         1.17683 
            234         2.74752 
            240          5.5304 
          246.5         11.5377 
          252.4         21.9329 
          256.8         31.0347 
            260          48.232 
            264         68.1179 
          268.5          106.29 
          273.5         166.516 
          278.5         252.493 
            284         434.423 
            290         691.372 
            296         1078.56 
            301         1507.03 
            308         2408.69 
            318         5243.16 
            328         9359.06 
            338         17265.8 
            348         29637.1 
            357           68335 
            366          115041 
            375          164156 
            385          255406 
            395          397289 
            405          564273 
            414          787589 
            422          988871 
            430      1.28381e+6 
            441      1.77909e+6 
            451      2.37724e+6 
            460       2.9695e+6 
            470      3.87201e+6 
            480      4.90958e+6 
            490      6.22223e+6 
            500      7.85451e+6 
            506      4.17331e+7 
            512      1.65081e+8 
            520      1.72078e+8 
            530      1.89692e+8 
            540      1.84515e+8 
            550      2.34706e+8 
            560      2.63975e+8 
            570      2.93626e+8 
            580       2.8043e+8 
            590      3.35604e+8 
            600      3.51269e+8 
            610      3.90063e+8 
            620      4.23723e+8 
            630      4.49712e+8 
            640      4.50503e+8 
            650      4.83186e+8 
            658      5.15083e+8 
            665      5.47462e+8 
            675       5.5973e+8 
            685      5.69046e+8 
            695      6.60295e+8 
            705      6.56151e+8 
            716      7.30456e+8 
            726      7.47346e+8 
            735      7.78599e+8 
            745      8.37591e+8 
            755       8.6948e+8 
            765      9.12236e+8 
            775      9.57779e+8 
            785      1.00983e+9 
            795      1.03602e+9 
            805      1.06951e+9 
            815       1.0909e+9 
            825      1.15362e+9 
            835      1.08606e+9 
            845      1.20196e+9 
            855       1.2342e+9 
            865      1.28498e+9 
            875      1.33593e+9 
            885      1.39307e+9 
            895      1.43694e+9 
            905      1.45025e+9 
            915      1.92773e+9 
            925     1.19171e+10 
            935     2.41015e+10 
            945       4.246e+10 
            955     4.81556e+10 
            965     5.69529e+10 
            975     2.35345e+10 
            985     5.31104e+10 
            995     4.90763e+10 
           1005     5.11705e+10 
           1015      5.0595e+10 
           1025     3.01957e+10 
           1035     4.58908e+10 
           1045     5.41208e+10 
           1055     5.16781e+10 
           1065     4.54676e+10 
           1075     4.79508e+10 
           1085     4.43124e+10 
           1095     4.75819e+10 
           1105     4.47654e+10 
           1115     4.38903e+10 
           1125     3.82854e+10 
           1135     4.31379e+10 
           1145     3.96923e+10 
           1155     4.02506e+10 
           1165     3.99595e+10 
           1175     3.07714e+10 
           1185     3.73584e+10 
           1195      3.5509e+10 
           1205     3.06645e+10 
           1215     2.04309e+10 
           1225     3.29074e+10 
           1235     3.46491e+10 
           1245     3.36548e+10 
           1255     3.32856e+10 
           1265     3.29545e+10 
           1275     3.29425e+10 
           1285     3.22948e+10 
           1295     2.81588e+10 
           1305     2.89058e+10 
           1315     3.05288e+10 
           1325     2.92865e+10 
           1335     2.83463e+10 
           1345     2.80138e+10 
           1355     2.80738e+10 
           1365     2.66712e+10 
           1375     2.62448e+10 
           1385     2.58338e+10 
           1395     2.11516e+10 
           1405     2.19184e+10 
           1415     2.39936e+10 
           1425      2.2927e+10 
           1435     2.31922e+10 
           1442     2.33571e+10 
           1447     2.29801e+10 
           1455     2.23864e+10 
           1465     2.17466e+10 
           1475     2.14717e+10 
           1485     2.11528e+10 
           1495     2.06145e+10 
           1505     1.96413e+10 
           1512     1.90528e+10 
           1517      1.9137e+10 
           1525     1.88897e+10 
           1535      1.7231e+10 
           1545     1.68493e+10 
           1555     1.62406e+10 
           1565     1.67613e+10 
           1575     1.70655e+10 
           1585     1.68553e+10 
           1595     1.67187e+10 
           1605     1.59772e+10 
           1615     1.55359e+10 
           1625     1.55164e+10 
           1635     1.56048e+10 
           1645     1.51414e+10 
           1655     1.52616e+10 
           1665     1.49973e+10 
           1672     1.46025e+10 
           1677     1.52683e+10 
           1685     1.48557e+10 
           1695     1.44147e+10 
           1705     1.40193e+10 
           1715     1.35656e+10 
           1725     1.32783e+10 
           1735      1.3386e+10 
           1745     1.31539e+10 
           1755     1.30264e+10 
           1765     1.26894e+10 
           1775     1.23614e+10 
           1785     1.22931e+10 
           1795     1.22442e+10 
           1805     1.21817e+10 
           1815     1.16751e+10 
           1825     1.16357e+10 
           1835     1.14399e+10 
           1845     1.06838e+10 
           1855     1.06319e+10 
           1865     1.06921e+10 
           1875     1.06725e+10 
           1885      9.96854e+9 
           1895      9.48363e+9 
           1905      9.86497e+9 
           1915      9.48546e+9 
           1925       9.1447e+9 
           1935      9.40781e+9 
           1945      9.48021e+9 
           1955       8.8107e+9 
           1967      9.08093e+9 
           1976      9.30107e+9 
           1984      8.82232e+9 
           1995      8.58322e+9 
           2005      8.66313e+9 
           2015      8.66226e+9 
           2025      8.67338e+9 
           2035      8.26422e+9 
           2045      8.18287e+9 
           2055      7.61644e+9 
           2065      7.53578e+9 
           2074      7.73966e+9 
           2078      7.47625e+9 
           2085      7.58515e+9 
           2095      7.47051e+9 
           2105      7.59176e+9 
           2115      7.55198e+9 
           2125      7.52645e+9 
           2135       7.3976e+9 
           2145      7.19974e+9 
           2155      7.21063e+9 
           2165      7.10399e+9 
           2175      7.00879e+9 
           2185      6.90154e+9 
           2195      6.85999e+9 
           2205      6.76211e+9 
           2215      6.65358e+9 
           2225      6.55442e+9 
           2235      6.44491e+9 
           2245      6.39577e+9 
           2255      6.26827e+9 
           2265      6.22032e+9 
           2275       6.1386e+9 
           2285      6.04761e+9 
           2295      5.77866e+9 
           2305      5.86321e+9 
           2315      5.78434e+9 
           2325      5.71092e+9 
           2335      5.61139e+9 
           2345      5.57336e+9 
           2355      5.50209e+9 
           2365      5.43195e+9 
           2375      5.34563e+9 
           2385      5.26029e+9 
           2395        5.198e+9 
           2405      5.14047e+9 
           2415      5.06072e+9 
           2425      5.01055e+9 
           2435      4.92112e+9 
           2445      4.87131e+9 
           2455      4.81652e+9 
           2465      4.75755e+9 
           2475      4.68893e+9 
           2485      4.62314e+9 
           2495      4.14062e+9 
           2505      4.48501e+9 
           2513      4.37072e+9 
           2518       4.3999e+9 
           2525      4.39705e+9 
           2535      4.34754e+9 
           2545       4.2355e+9 
           2555       4.2128e+9 
           2565      4.16936e+9 
           2575      4.13096e+9 
           2585       4.0808e+9 
           2595      4.03095e+9 
           2605      4.00094e+9 
           2615      3.94919e+9 
           2625      3.90298e+9 
           2635      3.85073e+9 
           2645      3.80164e+9 
           2655      3.75216e+9 
           2665      3.68909e+9 
           2675      3.64819e+9 
           2685      3.62739e+9 
           2695       3.5459e+9 
           2705       3.5255e+9 
           2715      3.48869e+9 
           2725      3.42737e+9 
           2735      3.39842e+9 
           2745      3.36555e+9 
           2755      3.32876e+9 
           2765      3.26668e+9 
           2775       3.2583e+9 
           2785      3.21454e+9 
           2795      3.12455e+9 
           2805      3.12453e+9 
           2815      3.10893e+9 
           2825      3.04815e+9 
           2835      3.00241e+9 
           2845      3.00307e+9 
           2855      2.96146e+9 
           2865      2.92995e+9 
           2875       2.8972e+9 
           2885      2.86697e+9 
           2895      2.83241e+9 
           2910      2.77961e+9 
           2930      2.72165e+9 
           2950      2.64371e+9 
           2970      2.60271e+9 
           2990       2.5437e+9 
           3010      2.47965e+9 
           3030      2.43283e+9 
           3050      2.38434e+9 
           3070      2.33659e+9 
           3090      2.26501e+9 
           3110      2.23597e+9 
           3130      2.18541e+9 
           3150      2.14127e+9 
           3170      2.09687e+9 
           3190      2.04034e+9 
           3210      2.01104e+9 
           3230      1.96766e+9 
           3250      1.93053e+9 
           3270      1.89163e+9 
           3290      1.85147e+9 
           3310      1.81733e+9 
           3330       1.7794e+9 
           3350      1.74284e+9 
           3370      1.70974e+9 
           3390      1.67845e+9 
           3410      1.64596e+9 
           3430      1.60793e+9 
           3450      1.57136e+9 
           3470      1.54426e+9 
           3490      1.51411e+9 
           3510      1.48993e+9 
           3530      1.46509e+9 
           3550      1.43727e+9 
           3570      1.41669e+9 
           3590      1.38045e+9 
           3610      1.35893e+9 
           3630      1.33076e+9 
           3640      1.32766e+9 
           3650      1.29961e+9 
           3670      1.28252e+9 
           3690      1.25538e+9 
           3710      1.21207e+9 
           3730       1.1667e+9 
           3750      1.20489e+9 
           3770      1.19386e+9 
           3790      1.23582e+9 
           3810      1.27289e+9 
           3830      1.13405e+9 
           3850      1.28504e+9 
           3870      1.27609e+9 
           3890      1.07511e+9 
           3910      1.25268e+9 
           3930      1.22418e+9 
           3950      1.20573e+9 
           3970      9.96412e+8 
           3990       1.1627e+9 
           4010      1.14925e+9 
           4030      1.09586e+9 
           4050      1.11883e+9 
           4070      1.08162e+9 
           4090      1.01852e+9 
           4110      9.14609e+8 
           4130      1.02416e+9 
           4150       1.0147e+9 
           4170      1.00605e+9 
           4190      9.88898e+8 
           4210      9.75423e+8 
           4230      9.58473e+8 
           4250      9.37856e+8 
           4270      9.16859e+8 
           4290      9.04563e+8 
           4310      8.84385e+8 
           4330      8.23328e+8 
           4350      7.56724e+8 
           4370      8.42018e+8 
           4390      8.19371e+8 
           4410      8.19084e+8 
           4430      8.08288e+8 
           4450      7.95978e+8 
           4470      7.58648e+8 
           4490      7.70217e+8 
           4510      7.60438e+8 
           4530      7.48561e+8 
           4550      7.34898e+8 
           4570      7.22851e+8 
           4590      7.11112e+8 
           4610       7.0024e+8 
           4630      6.90056e+8 
           4650      6.70072e+8 
           4670      6.67074e+8 
           4690      6.57595e+8 
           4710      6.38284e+8 
           4730      6.39481e+8 
           4750      6.28815e+8 
           4770      6.21533e+8 
           4790      6.11986e+8 
           4810       6.0181e+8 
           4830      5.89457e+8 
           4850      5.56546e+8 
           4870      5.04188e+8 
           4890      5.63816e+8 
           4910      5.57904e+8 
           4930       5.3956e+8 
           4950      5.40944e+8 
           4970      5.35119e+8 
           4990      5.27222e+8 
           5010      5.12665e+8 
           5030      5.11828e+8 
           5050      5.01799e+8 
           5070       4.9751e+8 
           5090      4.90133e+8 
           5110      4.83144e+8 
           5130      4.76106e+8 
           5150      4.69376e+8 
           5170      4.62792e+8 
           5190       4.5656e+8 
           5210      4.50036e+8 
           5230       4.4397e+8 
           5250      4.37819e+8 
           5270      4.31668e+8 
           5290      4.25798e+8 
           5310      4.19898e+8 
           5330      4.14166e+8 
           5350      4.08443e+8 
           5370      4.03016e+8 
           5390      3.97372e+8 
           5410      3.91917e+8 
           5430      3.86825e+8 
           5450      3.81555e+8 
           5470      3.76479e+8 
           5490      3.71516e+8 
           5510      3.66627e+8 
           5530      3.61714e+8 
           5550      3.57008e+8 
           5570      3.52275e+8 
           5590      3.47673e+8 
           5610      3.43116e+8 
           5630      3.38686e+8 
           5650      3.34132e+8 
           5670      3.29576e+8 
           5690      3.24913e+8 
           5710      3.21277e+8 
           5730      3.17295e+8 
           5750      3.12755e+8 
           5770      3.09323e+8 
           5790       3.0537e+8 
           5810      3.01508e+8 
           5830      2.97625e+8 
           5850      2.93942e+8 
           5870      2.82857e+8 
           5890      2.86065e+8 
           5910      2.82945e+8 
           5930       2.7939e+8 
           5950      2.75908e+8 
           5970      2.72741e+8 
           5990      2.69233e+8 
           6010      2.66036e+8 
           6030       2.6273e+8 
           6050      2.59576e+8 
           6070      2.56467e+8 
           6090      2.53353e+8 
           6110      2.50305e+8 
           6130        2.473e+8 
           6150      2.44201e+8 
           6170      2.41333e+8 
           6190      2.38518e+8 
           6210      2.35695e+8 
           6230      2.32903e+8 
           6250      2.30112e+8 
           6270       2.2742e+8 
           6290      2.24767e+8 
           6310      2.22095e+8 
           6330      2.19538e+8 
           6350      2.16886e+8 
           6370       2.1444e+8 
           6390      2.11956e+8 
           6410      2.09498e+8 
           6430      2.07122e+8 
           6450      2.04735e+8 
           6470      2.02274e+8 
           6490      1.99983e+8 
           6510      1.97778e+8 
           6530      1.94952e+8 
           6550      1.88389e+8 
           6570       1.6943e+8 
           6590      1.87427e+8 
           6610      1.86769e+8 
           6630      1.84787e+8 
           6650      1.82723e+8 
           6670      1.79241e+8 
           6690      1.77279e+8 
           6710      1.76784e+8 
           6730      1.74695e+8 
           6750      1.72934e+8 
           6770      1.71034e+8 
           6790      1.68998e+8 
           6810      1.67292e+8 
           6830      1.65434e+8 
           6850       1.6369e+8 
           6870      1.61909e+8 
           6890      1.60097e+8 
           6910      1.58327e+8 
           6930       1.5674e+8 
           6950      1.55067e+8 
           6970      1.53411e+8 
           6990      1.51779e+8 
           7010      1.50162e+8 
           7030      1.48562e+8 
           7050         1.47e+8 
           7070      1.43344e+8 
           7090      1.43923e+8 
           7110      1.42399e+8 
           7130      1.40919e+8 
           7150      1.39454e+8 
           7170      1.37988e+8 
           7190       1.3658e+8 
           7210      1.35164e+8 
           7230      1.33221e+8 
           7250      1.32301e+8 
           7270      1.31032e+8 
           7290      1.28712e+8 
           7310      1.28347e+8 
           7330      1.27059e+8 
           7350      1.25768e+8 
           7370      1.24497e+8 
           7390      1.23238e+8 
           7410       1.2199e+8 
           7430      1.20761e+8 
           7450      1.19564e+8 
           7470      1.18216e+8 
           7490      1.17175e+8 
           7510      1.15984e+8 
           7530      1.14857e+8 
           7550      1.13728e+8 
           7570      1.12608e+8 
           7590      1.11492e+8 
           7610      1.10354e+8 
           7630      1.09317e+8 
           7650      1.08244e+8 
           7670      1.07187e+8 
           7690      1.06146e+8 
           7710      1.05114e+8 
           7730      1.04086e+8 
           7750      1.03085e+8 
           7770      1.02037e+8 
           7790       1.0111e+8 
           7810      1.00087e+8 
           7830      9.91828e+7 
           7850      9.83113e+7 
           7870      9.73317e+7 
           7890      9.63366e+7 
           7910       9.5537e+7 
           7930      9.46183e+7 
           7950      9.36958e+7 
           7970      9.27043e+7 
           7990      9.18336e+7 
           8010      9.09469e+7 
           8030      9.00855e+7 
           8050      8.92896e+7 
           8070      8.84889e+7 
           8090      8.75223e+7 
           8110      8.66444e+7 
           8130      8.60876e+7 
           8150      8.51721e+7 
           8170      8.45186e+7 
           8190      8.35671e+7 
           8210      8.26127e+7 
           8230      8.20337e+7 
           8250      8.13653e+7 
           8270       8.0157e+7 
           8290      7.98145e+7 
           8310      7.91253e+7 
           8330      7.83875e+7 
           8350       7.7337e+7 
           8370      7.68495e+7 
           8390      7.62642e+7 
           8410      7.55663e+7 
           8430      7.48318e+7 
           8450      7.37024e+7 
           8470       7.3402e+7 
           8490      7.27064e+7 
           8510      7.18969e+7 
           8530      7.14928e+7 
           8550      6.99786e+7 
           8570      7.09501e+7 
           8590      6.83073e+7 
