# Kurucz ODFNEW /NOVER (2003)
# teff = 27000 K (value for the effective temperature for the model. Temperatures are given in K)
# logg = 5 log(cm/s2) (value for Log(G) for the model.)
# meta = 0.5  (value for the Metallicity for the model.)
# lh = 1.25  (l/Hp where l is the  mixing length of the convective element and Hp is the pressure scale height)
# vtur = 2 km/s (Microturbulence velocity)
# alpha = 0.4  (Alpha)
#
# column 1: WAVELENGTH (ANGSTROM), Wavelength in Angstrom
# column 2: FLUX (ERG/CM2/S/A), Flux in erg/cm2/s/A
          147.2     2.05614e-11 
            151     7.27452e-11 
          155.2     2.74066e-10 
          158.8     8.09423e-10 
            162      2.03997e-9 
            166      6.17169e-9 
          170.3      1.90339e-8 
          173.4      4.20062e-8 
          176.8      9.62715e-8 
          180.2       2.1412e-7 
          181.7      3.01362e-7 
          186.1      8.01262e-7 
            191      2.27012e-6 
          193.9      4.10114e-6 
          198.4      9.94784e-6 
          201.8      1.89626e-5 
            205      3.41203e-5 
          210.5      9.02071e-5 
          216.2     0.000235037 
          219.8     0.000420124 
            223      0.00069377 
          226.8      0.00124968 
            230       0.0192709 
            234       0.0412424 
            240       0.0903235 
          246.5        0.202674 
          252.4        0.412254 
          256.8        0.663927 
            260         1.01109 
            264         1.50452 
          268.5         2.44733 
          273.5         4.04952 
          278.5         6.56392 
            284         12.1086 
            290         20.5275 
            296         34.3303 
            301         51.6646 
            308         97.0258 
            318         214.014 
            328         418.981 
            338          848.37 
            348         1588.65 
            357         9247.31 
            366         21147.1 
            375         30577.7 
            385         50496.6 
            395          114131 
            405          163751 
            414          249012 
            422          336358 
            430          464382 
            441          663283 
            451          870215 
            460       1.0917e+6 
            470       1.4879e+6 
            480      1.94644e+6 
            490      2.55034e+6 
            500       3.2248e+6 
            506      1.02943e+7 
            512      9.52947e+7 
            520      9.98096e+7 
            530      1.11431e+8 
            540      1.09525e+8 
            550      1.63943e+8 
            560      1.92257e+8 
            570      2.18837e+8 
            580      2.04536e+8 
            590      2.62704e+8 
            600      2.67781e+8 
            610      3.10577e+8 
            620      3.26943e+8 
            630      3.27363e+8 
            640      2.80744e+8 
            650      2.38093e+8 
            658      3.10936e+8 
            665      3.80218e+8 
            675      4.08377e+8 
            685      4.00282e+8 
            695       5.6246e+8 
            705      5.46238e+8 
            716       6.3491e+8 
            726      6.35595e+8 
            735      6.67307e+8 
            745      7.53968e+8 
            755      7.86405e+8 
            765      8.39108e+8 
            775      8.83076e+8 
            785      9.35366e+8 
            795      9.38687e+8 
            805      9.60565e+8 
            815      9.77406e+8 
            825       1.0583e+9 
            835      8.49664e+8 
            845      1.04963e+9 
            855      1.05202e+9 
            865      1.11379e+9 
            875       1.1613e+9 
            885      1.24901e+9 
            895      1.29297e+9 
            905       1.2462e+9 
            915      1.41791e+9 
            925      5.37735e+9 
            935     1.17829e+10 
            945     2.51587e+10 
            955     3.50171e+10 
            965     4.40962e+10 
            975      7.17297e+9 
            985     3.73415e+10 
            995     3.44257e+10 
           1005     4.13049e+10 
           1015     4.26014e+10 
           1025      1.8007e+10 
           1035     3.35725e+10 
           1045     5.45693e+10 
           1055     4.98064e+10 
           1065     3.40816e+10 
           1075     4.22067e+10 
           1085     3.91954e+10 
           1095     4.44525e+10 
           1105     3.79684e+10 
           1115     3.42631e+10 
           1125     2.37535e+10 
           1135     3.77541e+10 
           1145     3.21291e+10 
           1155      3.3696e+10 
           1165     3.39472e+10 
           1175       1.825e+10 
           1185     3.19176e+10 
           1195      2.8001e+10 
           1205     1.61114e+10 
           1215     1.33639e+10 
           1225     2.44391e+10 
           1235     3.11515e+10 
           1245     3.02983e+10 
           1255     2.96045e+10 
           1265     3.06709e+10 
           1275     3.15172e+10 
           1285     3.16446e+10 
           1295     1.85383e+10 
           1305     2.02307e+10 
           1315     3.07096e+10 
           1325     2.78723e+10 
           1335     2.75346e+10 
           1345     2.66685e+10 
           1355     2.71791e+10 
           1365     2.32925e+10 
           1375     2.22257e+10 
           1385     2.08768e+10 
           1395     1.21032e+10 
           1405     1.44245e+10 
           1415     1.86541e+10 
           1425     1.85691e+10 
           1435     1.95735e+10 
           1442      2.0471e+10 
           1447     2.01984e+10 
           1455     1.92936e+10 
           1465     1.73967e+10 
           1475     1.79705e+10 
           1485     1.75106e+10 
           1495     1.71726e+10 
           1505     1.47159e+10 
           1512     1.35181e+10 
           1517     1.40008e+10 
           1525     1.45711e+10 
           1535      1.1914e+10 
           1545     1.12186e+10 
           1555     1.10565e+10 
           1565     1.21387e+10 
           1575     1.30212e+10 
           1585     1.30455e+10 
           1595     1.30305e+10 
           1605     1.34587e+10 
           1615     1.30235e+10 
           1625     1.27339e+10 
           1635     1.36465e+10 
           1645     1.37934e+10 
           1655     1.34643e+10 
           1665     1.37715e+10 
           1672     1.29645e+10 
           1677     1.46012e+10 
           1685     1.40635e+10 
           1695     1.31546e+10 
           1705     1.27105e+10 
           1715     1.20041e+10 
           1725     1.15178e+10 
           1735     1.22264e+10 
           1745     1.20273e+10 
           1755     1.19912e+10 
           1765     1.18408e+10 
           1775     1.08632e+10 
           1785     1.11086e+10 
           1795     1.16272e+10 
           1805     1.17354e+10 
           1815     1.03383e+10 
           1825     1.07959e+10 
           1835     1.03264e+10 
           1845      9.31115e+9 
           1855      9.53816e+9 
           1865      9.63067e+9 
           1875     1.00474e+10 
           1885      8.88264e+9 
           1895      8.31611e+9 
           1905      9.08307e+9 
           1915      8.39694e+9 
           1925      7.88314e+9 
           1935      8.50397e+9 
           1945      8.68245e+9 
           1955      7.71807e+9 
           1967      8.52222e+9 
           1976       8.9654e+9 
           1984      8.16902e+9 
           1995      8.10332e+9 
           2005      8.43438e+9 
           2015      8.25066e+9 
           2025      8.46207e+9 
           2035      7.72604e+9 
           2045      7.91298e+9 
           2055      7.46853e+9 
           2065       7.4621e+9 
           2074      7.63982e+9 
           2078      7.00644e+9 
           2085      7.44113e+9 
           2095      6.99473e+9 
           2105      7.37139e+9 
           2115      7.44258e+9 
           2125       7.4522e+9 
           2135       7.2904e+9 
           2145      6.93216e+9 
           2155      7.24989e+9 
           2165      7.18042e+9 
           2175      7.07728e+9 
           2185       6.8179e+9 
           2195      6.91597e+9 
           2205      6.91088e+9 
           2215      6.76439e+9 
           2225      6.54589e+9 
           2235      6.47138e+9 
           2245      6.53002e+9 
           2255      6.25353e+9 
           2265      6.38429e+9 
           2275      6.26176e+9 
           2285      6.20599e+9 
           2295       5.5148e+9 
           2305      5.97241e+9 
           2315      5.79066e+9 
           2325      5.73991e+9 
           2335      5.54285e+9 
           2345       5.6157e+9 
           2355      5.56186e+9 
           2365      5.51008e+9 
           2375       5.3704e+9 
           2385       5.3405e+9 
           2395        5.278e+9 
           2405      5.16959e+9 
           2415      5.11801e+9 
           2425       5.1126e+9 
           2435      4.93123e+9 
           2445      4.94788e+9 
           2455      4.94447e+9 
           2465      4.86481e+9 
           2475      4.77823e+9 
           2485      4.62692e+9 
           2495      3.69974e+9 
           2505      4.43548e+9 
           2513       4.2915e+9 
           2518       4.4349e+9 
           2525      4.42884e+9 
           2535      4.40229e+9 
           2545      4.16099e+9 
           2555      4.26381e+9 
           2565       4.1724e+9 
           2575      4.22874e+9 
           2585      4.18064e+9 
           2595      4.14334e+9 
           2605      4.09421e+9 
           2615      4.03145e+9 
           2625      4.00478e+9 
           2635      3.96408e+9 
           2645      3.90901e+9 
           2655        3.887e+9 
           2665      3.67578e+9 
           2675      3.72437e+9 
           2685      3.71926e+9 
           2695      3.55923e+9 
           2705      3.45646e+9 
           2715      3.47939e+9 
           2725      3.48586e+9 
           2735      3.45976e+9 
           2745      3.36605e+9 
           2755       3.3573e+9 
           2765      3.31591e+9 
           2775      3.36989e+9 
           2785      3.29935e+9 
           2795      3.13009e+9 
           2805      3.18816e+9 
           2815      3.21861e+9 
           2825      3.16692e+9 
           2835      3.02266e+9 
           2845      3.08118e+9 
           2855      3.01632e+9 
           2865      3.02192e+9 
           2875      2.97983e+9 
           2885      2.93921e+9 
           2895      2.89008e+9 
           2910      2.80738e+9 
           2930      2.80319e+9 
           2950      2.71288e+9 
           2970      2.67536e+9 
           2990      2.59928e+9 
           3010      2.47728e+9 
           3030      2.47628e+9 
           3050      2.44764e+9 
           3070      2.42752e+9 
           3090      2.29866e+9 
           3110      2.31013e+9 
           3130      2.23798e+9 
           3150      2.21136e+9 
           3170      2.14294e+9 
           3190      2.10468e+9 
           3210       2.0815e+9 
           3230      2.02251e+9 
           3250      1.99869e+9 
           3270      1.94814e+9 
           3290      1.90991e+9 
           3310      1.87311e+9 
           3330      1.82832e+9 
           3350      1.79937e+9 
           3370      1.75589e+9 
           3390      1.73644e+9 
           3410      1.70152e+9 
           3430       1.6688e+9 
           3450      1.62776e+9 
           3470      1.59638e+9 
           3490      1.56196e+9 
           3510      1.53602e+9 
           3530      1.51666e+9 
           3550      1.48539e+9 
           3570      1.46454e+9 
           3590      1.41296e+9 
           3610      1.39674e+9 
           3630      1.37144e+9 
           3640      1.37296e+9 
           3650      1.35122e+9 
           3670      1.33695e+9 
           3690      1.31484e+9 
           3710      1.25997e+9 
           3730      1.22375e+9 
           3750       1.2076e+9 
           3770       1.1641e+9 
           3790      1.20293e+9 
           3810      1.24466e+9 
           3830      1.08836e+9 
           3850      1.25675e+9 
           3870      1.25529e+9 
           3890      1.01673e+9 
           3910      1.27468e+9 
           3930      1.23784e+9 
           3950      1.20865e+9 
           3970      9.44303e+8 
           3990      1.16953e+9 
           4010      1.18261e+9 
           4030      1.10148e+9 
           4050       1.1378e+9 
           4070      1.05908e+9 
           4090      9.74158e+8 
           4110      8.68823e+8 
           4130      1.02573e+9 
           4150      1.02439e+9 
           4170      1.03171e+9 
           4190      1.01958e+9 
           4210      1.01611e+9 
           4230      9.87654e+8 
           4250      9.44446e+8 
           4270      9.16363e+8 
           4290      9.02987e+8 
           4310      8.64855e+8 
           4330      7.85271e+8 
           4350      7.21704e+8 
           4370      8.23948e+8 
           4390      8.28421e+8 
           4410      8.25748e+8 
           4430      8.26505e+8 
           4450      8.09029e+8 
           4470      7.63851e+8 
           4490      7.82345e+8 
           4510      7.85979e+8 
           4530      7.73455e+8 
           4550       7.6394e+8 
           4570      7.49674e+8 
           4590      7.36003e+8 
           4610      7.12046e+8 
           4630      7.01426e+8 
           4650      6.76013e+8 
           4670       6.8307e+8 
           4690      6.78918e+8 
           4710      6.42546e+8 
           4730      6.57095e+8 
           4750      6.46196e+8 
           4770      6.50227e+8 
           4790      6.36188e+8 
           4810      6.16579e+8 
           4830       6.0068e+8 
           4850      5.49307e+8 
           4870      4.89574e+8 
           4890      5.77018e+8 
           4910      5.74874e+8 
           4930      5.51945e+8 
           4950      5.56826e+8 
           4970      5.58149e+8 
           4990      5.47859e+8 
           5010      5.17903e+8 
           5030      5.28296e+8 
           5050      5.13912e+8 
           5070      5.17721e+8 
           5090      5.05939e+8 
           5110      4.96764e+8 
           5130      4.84338e+8 
           5150      4.79958e+8 
           5170      4.78126e+8 
           5190      4.72518e+8 
           5210      4.62236e+8 
           5230      4.59699e+8 
           5250      4.53606e+8 
           5270       4.4469e+8 
           5290       4.4132e+8 
           5310      4.34394e+8 
           5330      4.27998e+8 
           5350      4.20552e+8 
           5370      4.17504e+8 
           5390      4.11079e+8 
           5410      4.05728e+8 
           5430      3.99359e+8 
           5450       3.9325e+8 
           5470       3.8766e+8 
           5490      3.83715e+8 
           5510      3.79942e+8 
           5530      3.73183e+8 
           5550      3.69862e+8 
           5570      3.64564e+8 
           5590      3.60489e+8 
           5610      3.54751e+8 
           5630      3.51248e+8 
           5650      3.42665e+8 
           5670      3.36513e+8 
           5690      3.31802e+8 
           5710      3.30117e+8 
           5730      3.27667e+8 
           5750      3.21575e+8 
           5770      3.20266e+8 
           5790      3.15641e+8 
           5810      3.11474e+8 
           5830      3.06581e+8 
           5850      3.03332e+8 
           5870      2.88968e+8 
           5890      2.91429e+8 
           5910      2.90042e+8 
           5930      2.86547e+8 
           5950      2.82123e+8 
           5970      2.81959e+8 
           5990      2.76015e+8 
           6010      2.74567e+8 
           6030      2.70211e+8 
           6050      2.67295e+8 
           6070      2.64688e+8 
           6090      2.61378e+8 
           6110      2.58257e+8 
           6130      2.55541e+8 
           6150       2.4945e+8 
           6170      2.47716e+8 
           6190       2.4604e+8 
           6210      2.43432e+8 
           6230      2.40774e+8 
           6250      2.36439e+8 
           6270      2.34224e+8 
           6290      2.31956e+8 
           6310      2.28558e+8 
           6330      2.26683e+8 
           6350      2.22221e+8 
           6370      2.20949e+8 
           6390      2.18479e+8 
           6410      2.15944e+8 
           6430      2.14011e+8 
           6450      2.11237e+8 
           6470      2.07017e+8 
           6490       2.0534e+8 
           6510      2.02987e+8 
           6530      1.98653e+8 
           6550      1.88125e+8 
           6570      1.64552e+8 
           6590      1.89761e+8 
           6610      1.91356e+8 
           6630      1.90135e+8 
           6650       1.8786e+8 
           6670      1.83644e+8 
           6690      1.81883e+8 
           6710      1.82147e+8 
           6730      1.79353e+8 
           6750      1.78407e+8 
           6770      1.76451e+8 
           6790      1.72128e+8 
           6810      1.72004e+8 
           6830      1.69738e+8 
           6850       1.6866e+8 
           6870      1.66738e+8 
           6890      1.64525e+8 
           6910      1.62193e+8 
           6930      1.61376e+8 
           6950       1.5984e+8 
           6970      1.58157e+8 
           6990      1.56312e+8 
           7010      1.54517e+8 
           7030      1.52862e+8 
           7050      1.51268e+8 
           7070      1.46682e+8 
           7090        1.477e+8 
           7110       1.4529e+8 
           7130      1.43876e+8 
           7150      1.42925e+8 
           7170      1.41843e+8 
           7190      1.40647e+8 
           7210      1.39208e+8 
           7230      1.35037e+8 
           7250       1.3577e+8 
           7270      1.34895e+8 
           7290       1.3227e+8 
           7310      1.32076e+8 
           7330      1.30655e+8 
           7350      1.29415e+8 
           7370      1.28152e+8 
           7390      1.26846e+8 
           7410      1.25565e+8 
           7430      1.24016e+8 
           7450      1.22896e+8 
           7470      1.20268e+8 
           7490      1.20197e+8 
           7510      1.19204e+8 
           7530      1.17768e+8 
           7550       1.1694e+8 
           7570       1.1581e+8 
           7590      1.14572e+8 
           7610      1.13054e+8 
           7630      1.12319e+8 
           7650      1.11205e+8 
           7670      1.10184e+8 
           7690       1.0907e+8 
           7710      1.07985e+8 
           7730      1.06765e+8 
           7750      1.05952e+8 
           7770      1.03791e+8 
           7790      1.03904e+8 
           7810       1.0286e+8 
           7830      1.01923e+8 
           7850      1.00677e+8 
           7870      9.94727e+7 
           7890      9.80855e+7 
           7910       9.7843e+7 
           7930      9.69128e+7 
           7950      9.56748e+7 
           7970      9.50588e+7 
           7990      9.37809e+7 
           8010      9.33132e+7 
           8030      9.24049e+7 
           8050      9.15394e+7 
           8070      9.07276e+7 
           8090      8.98306e+7 
           8110      8.79561e+7 
           8130      8.81907e+7 
           8150      8.74295e+7 
           8170      8.66972e+7 
           8190      8.49319e+7 
           8210      8.44236e+7 
           8230      8.32296e+7 
           8250        8.338e+7 
           8270      8.12751e+7 
           8290      8.16893e+7 
           8310      8.11492e+7 
           8330      8.05103e+7 
           8350      7.93686e+7 
           8370      7.87263e+7 
           8390      7.83353e+7 
           8410      7.75158e+7 
           8430      7.69151e+7 
           8450      7.52958e+7 
           8470      7.55865e+7 
           8490      7.46297e+7 
           8510      7.40609e+7 
           8530      7.33826e+7 
           8550      7.25811e+7 
           8570       7.2335e+7 
