# Kurucz ODFNEW /NOVER (2003)
# teff = 7500 K (value for the effective temperature for the model. Temperatures are given in K)
# logg = 4.5 log(cm/s2) (value for Log(G) for the model.)
# meta = -2  (value for the Metallicity for the model.)
# lh = 1.25  (l/Hp where l is the  mixing length of the convective element and Hp is the pressure scale height)
# vtur = 2 km/s (Microturbulence velocity)
# alpha = 0.4  (Alpha)
#
# column 1: WAVELENGTH (ANGSTROM), Wavelength in Angstrom
# column 2: FLUX (ERG/CM2/S/A), Flux in erg/cm2/s/A
            318     1.13208e-24 
            328     1.43959e-22 
            338     1.56098e-21 
            348     6.47978e-22 
            357     3.90004e-21 
            366     2.14145e-20 
            375     1.07716e-19 
            385     5.90262e-19 
            395     2.94937e-18 
            405      1.3543e-17 
            414     4.99453e-17 
            422      1.5149e-16 
            430     4.39647e-16 
            441     1.77824e-15 
            451     5.94115e-15 
            460      1.6768e-14 
            470     5.05234e-14 
            480     1.44789e-13 
            490     3.96295e-13 
            500     1.03736e-12 
            506     2.39925e-12 
            512     4.65767e-12 
            520     9.38285e-12 
            530      2.1964e-11 
            540     4.88456e-11 
            550     1.06574e-10 
            560      2.2414e-10 
            570     4.57977e-10 
            580     9.00141e-10 
            590      1.76428e-9 
            600      3.33542e-9 
            610      6.16081e-9 
            620      1.11304e-8 
            630      1.96898e-8 
            640      3.41623e-8 
            650      5.81572e-8 
            658      8.78557e-8 
            665      1.24888e-7 
            675      2.03486e-7 
            685      3.26233e-7 
            695      5.15047e-7 
            705      8.01097e-7 
            716      1.28174e-6 
            726      1.93705e-6 
            735      2.77904e-6 
            745      4.10243e-6 
            755      5.98465e-6 
            765      8.63119e-6 
            775      1.23138e-5 
            785      1.73844e-5 
            795      2.42844e-5 
            805      3.36259e-5 
            815      4.61161e-5 
            825      6.26845e-5 
            835      8.44909e-5 
            845     0.000112946 
            855     0.000149774 
            865     0.000197094 
            875     0.000257418 
            885     0.000333909 
            895     0.000430117 
            905     0.000550312 
            915        0.550138 
            925         4.13334 
            935         7.46111 
            945         13.3134 
            955         18.9244 
            965          25.219 
            975         21.2589 
            985         41.0773 
            995         49.7575 
           1005         61.3718 
           1015         64.2677 
           1025         48.8776 
           1035         95.5447 
           1045         133.032 
           1055          156.27 
           1065         190.191 
           1075         229.625 
           1085         277.606 
           1095         318.878 
           1105         443.365 
           1115         605.749 
           1125         688.583 
           1135         847.201 
           1145         962.466 
           1155         1017.32 
           1165         1147.49 
           1175         1201.99 
           1185         1378.33 
           1195         922.048 
           1205         619.647 
           1215         215.338 
           1225         705.923 
           1235         1562.79 
           1245         1424.96 
           1255          3016.9 
           1265         3724.15 
           1275          4565.6 
           1285         5883.11 
           1295         7072.84 
           1305         8290.58 
           1315         9889.77 
           1325         11581.8 
           1335         13316.2 
           1345         15587.5 
           1355         17516.2 
           1365         20358.7 
           1375         22650.1 
           1385         24769.3 
           1395         27859.4 
           1405         30542.6 
           1415           35567 
           1425         37947.1 
           1435         41201.5 
           1442         46864.6 
           1447         46060.9 
           1455         51209.3 
           1465         52966.5 
           1475         58268.1 
           1485         63383.2 
           1495         70086.1 
           1505         76966.7 
           1512         81472.9 
           1517         78648.1 
           1525         83337.7 
           1535         89616.6 
           1545         94097.7 
           1555         97316.1 
           1565         95665.7 
           1575          105859 
           1585          111939 
           1595          119513 
           1605          125805 
           1615          141803 
           1625          164481 
           1635          229514 
           1645          538526 
           1655          919932 
           1665      2.66747e+6 
           1672      3.19958e+6 
           1677      4.76617e+6 
           1685      6.26722e+6 
           1695      6.93095e+6 
           1705      8.72172e+6 
           1715      1.07013e+7 
           1725      1.13565e+7 
           1735       1.2938e+7 
           1745      1.28124e+7 
           1755      1.41395e+7 
           1765       1.2335e+7 
           1775      1.42292e+7 
           1785      1.46614e+7 
           1795       1.5787e+7 
           1805      1.48239e+7 
           1815      1.52305e+7 
           1825      1.45415e+7 
           1835      1.55694e+7 
           1845      1.42501e+7 
           1855      1.52902e+7 
           1865      1.61611e+7 
           1875      1.61777e+7 
           1885      1.64179e+7 
           1895       1.6863e+7 
           1905      1.62131e+7 
           1915      1.73293e+7 
           1925      1.79447e+7 
           1935      1.70232e+7 
           1945      1.83862e+7 
           1955      1.84046e+7 
           1967       1.9095e+7 
           1976      1.84381e+7 
           1984       1.8461e+7 
           1995      1.86556e+7 
           2005      1.81335e+7 
           2015      1.84606e+7 
           2025      1.74776e+7 
           2035      1.91575e+7 
           2045      1.96804e+7 
           2055      1.92155e+7 
           2065      1.92896e+7 
           2074      2.03749e+7 
           2078      2.03943e+7 
           2085      2.01857e+7 
           2095      1.99213e+7 
           2105      1.96925e+7 
           2115       2.0082e+7 
           2125      2.01887e+7 
           2135      1.90347e+7 
           2145      2.04035e+7 
           2155      2.00589e+7 
           2165      1.93789e+7 
           2175      1.95459e+7 
           2185       2.0192e+7 
           2195       2.1075e+7 
           2205       2.0534e+7 
           2215      1.94783e+7 
           2225      2.02084e+7 
           2235      2.16781e+7 
           2245      2.07163e+7 
           2255      1.99203e+7 
           2265      1.93629e+7 
           2275      2.05884e+7 
           2285      2.09397e+7 
           2295       2.0013e+7 
           2305      2.06091e+7 
           2315      2.07442e+7 
           2325      2.06972e+7 
           2335      2.06446e+7 
           2345      1.90214e+7 
           2355      2.11419e+7 
           2365      1.97174e+7 
           2375      2.06464e+7 
           2385      1.86304e+7 
           2395      2.02209e+7 
           2405      2.00029e+7 
           2415      2.00798e+7 
           2425      2.11324e+7 
           2435      2.04617e+7 
           2445      2.09916e+7 
           2455      2.08604e+7 
           2465      2.07101e+7 
           2475      2.00781e+7 
           2485      2.03487e+7 
           2495      2.00026e+7 
           2505      2.15344e+7 
           2513      2.02271e+7 
           2518      1.96834e+7 
           2525      1.90083e+7 
           2535      1.88323e+7 
           2545      1.87736e+7 
           2555      2.01718e+7 
           2565      2.03985e+7 
           2575      2.14573e+7 
           2585      2.17573e+7 
           2595      2.17802e+7 
           2605      2.11508e+7 
           2615      2.08957e+7 
           2625      2.15908e+7 
           2635      2.17159e+7 
           2645      2.33484e+7 
           2655      2.33637e+7 
           2665      2.23288e+7 
           2675      2.27787e+7 
           2685      2.33383e+7 
           2695      2.24756e+7 
           2705      2.25929e+7 
           2715      2.17317e+7 
           2725      2.18211e+7 
           2735      2.23276e+7 
           2745      2.06343e+7 
           2755      2.10864e+7 
           2765      2.19551e+7 
           2775      2.25051e+7 
           2785      2.19945e+7 
           2795      1.62116e+7 
           2805      1.83341e+7 
           2815      2.32345e+7 
           2825      2.31217e+7 
           2835       2.2718e+7 
           2845      2.22746e+7 
           2855      2.08197e+7 
           2865       2.2347e+7 
           2875      2.22507e+7 
           2885      2.26181e+7 
           2895      2.28293e+7 
           2910      2.34732e+7 
           2930      2.29081e+7 
           2950      2.26903e+7 
           2970       2.2818e+7 
           2990      2.28235e+7 
           3010      2.28243e+7 
           3030      2.28958e+7 
           3050      2.28787e+7 
           3070      2.27663e+7 
           3090      2.28044e+7 
           3110      2.27254e+7 
           3130      2.28001e+7 
           3150      2.28802e+7 
           3170      2.28522e+7 
           3190      2.22511e+7 
           3210      2.24079e+7 
           3230      2.19796e+7 
           3250      2.23416e+7 
           3270      2.25931e+7 
           3290      2.27174e+7 
           3310      2.27112e+7 
           3330      2.23417e+7 
           3350      2.20942e+7 
           3370      2.21286e+7 
           3390       2.2002e+7 
           3410      2.21983e+7 
           3430      2.21902e+7 
           3450      2.19704e+7 
           3470      2.19066e+7 
           3490      2.19432e+7 
           3510      2.19963e+7 
           3530      2.19334e+7 
           3550      2.20035e+7 
           3570      2.16252e+7 
           3590      2.15507e+7 
           3610      2.15308e+7 
           3630      2.15627e+7 
           3640       2.1528e+7 
           3650      2.16791e+7 
           3670      2.17285e+7 
           3690      2.09128e+7 
           3710      2.10695e+7 
           3730      2.06449e+7 
           3750      2.43212e+7 
           3770      2.51549e+7 
           3790      2.88499e+7 
           3810      3.24381e+7 
           3830      2.68122e+7 
           3850      3.49089e+7 
           3870      3.76656e+7 
           3890      2.52222e+7 
           3910      3.76554e+7 
           3930      3.73732e+7 
           3950      3.78601e+7 
           3970      2.44024e+7 
           3990      3.69107e+7 
           4010         3.98e+7 
           4030      3.99743e+7 
           4050      3.95643e+7 
           4070      3.80939e+7 
           4090      3.23691e+7 
           4110      2.62763e+7 
           4130      3.70834e+7 
           4150      3.82231e+7 
           4170      3.83448e+7 
           4190      3.80633e+7 
           4210      3.77578e+7 
           4230        3.725e+7 
           4250       3.7188e+7 
           4270       3.6733e+7 
           4290      3.62767e+7 
           4310      3.46895e+7 
           4330      2.87497e+7 
           4350      2.52487e+7 
           4370      3.41538e+7 
           4390      3.48872e+7 
           4410      3.49472e+7 
           4430      3.49703e+7 
           4450      3.46947e+7 
           4470      3.45621e+7 
           4490       3.4311e+7 
           4510        3.415e+7 
           4530      3.37977e+7 
           4550      3.35103e+7 
           4570      3.33872e+7 
           4590      3.31309e+7 
           4610      3.29699e+7 
           4630      3.26892e+7 
           4650      3.24713e+7 
           4670      3.22508e+7 
           4690      3.19746e+7 
           4710      3.15881e+7 
           4730      3.14748e+7 
           4750       3.1217e+7 
           4770      3.09359e+7 
           4790      3.05976e+7 
           4810       3.0119e+7 
           4830       2.9074e+7 
           4850      2.46482e+7 
           4870      2.07975e+7 
           4890      2.79379e+7 
           4910      2.89109e+7 
           4930      2.88814e+7 
           4950       2.8873e+7 
           4970      2.87768e+7 
           4990      2.85648e+7 
           5010      2.82966e+7 
           5030      2.82046e+7 
           5050      2.79786e+7 
           5070      2.78067e+7 
           5090      2.75988e+7 
           5110      2.74034e+7 
           5130      2.71858e+7 
           5150      2.69637e+7 
           5170      2.64257e+7 
           5190      2.63203e+7 
           5210      2.63365e+7 
           5230      2.61107e+7 
           5250      2.60297e+7 
           5270      2.56765e+7 
           5290      2.56402e+7 
           5310      2.54501e+7 
           5330       2.5168e+7 
           5350      2.50841e+7 
           5370      2.48715e+7 
           5390       2.4699e+7 
           5410      2.44781e+7 
           5430      2.43339e+7 
           5450      2.41581e+7 
           5470      2.40044e+7 
           5490      2.38349e+7 
           5510      2.36708e+7 
           5530      2.34827e+7 
           5550       2.3337e+7 
           5570      2.31515e+7 
           5590      2.29524e+7 
           5610      2.28105e+7 
           5630       2.2669e+7 
           5650      2.25052e+7 
           5670      2.23338e+7 
           5690      2.21829e+7 
           5710      2.20197e+7 
           5730      2.18732e+7 
           5750      2.17099e+7 
           5770      2.15585e+7 
           5790      2.14053e+7 
           5810      2.12537e+7 
           5830      2.11026e+7 
           5850      2.09476e+7 
           5870      2.07996e+7 
           5890      2.05381e+7 
           5910      2.05071e+7 
           5930      2.03616e+7 
           5950      2.02174e+7 
           5970      2.00748e+7 
           5990      1.99326e+7 
           6010      1.97897e+7 
           6030      1.96483e+7 
           6050      1.95135e+7 
           6070      1.93779e+7 
           6090      1.92407e+7 
           6110      1.91038e+7 
           6130      1.89513e+7 
           6150      1.88223e+7 
           6170      1.86688e+7 
           6190      1.85759e+7 
           6210      1.84476e+7 
           6230      1.83119e+7 
           6250      1.81727e+7 
           6270      1.80646e+7 
           6290      1.79404e+7 
           6310      1.78108e+7 
           6330      1.76881e+7 
           6350      1.75619e+7 
           6370      1.74434e+7 
           6390      1.73261e+7 
           6410      1.71961e+7 
           6430      1.70693e+7 
           6450      1.69011e+7 
           6470      1.67707e+7 
           6490      1.66031e+7 
           6510       1.6391e+7 
           6530      1.59515e+7 
           6550      1.43772e+7 
           6570      1.19499e+7 
           6590      1.52581e+7 
           6610      1.57479e+7 
           6630      1.58099e+7 
           6650      1.57677e+7 
           6670      1.56902e+7 
           6690      1.56075e+7 
           6710      1.55255e+7 
           6730      1.54225e+7 
           6750      1.53147e+7 
           6770      1.52154e+7 
           6790      1.51128e+7 
           6810      1.50111e+7 
           6830      1.49104e+7 
           6850      1.48098e+7 
           6870       1.4711e+7 
           6890      1.46138e+7 
           6910      1.45159e+7 
           6930      1.44189e+7 
           6950      1.43228e+7 
           6970      1.42275e+7 
           6990      1.41331e+7 
           7010      1.40357e+7 
           7030      1.39453e+7 
           7050      1.38542e+7 
           7070      1.37623e+7 
           7090       1.3672e+7 
           7110      1.35766e+7 
           7130      1.34909e+7 
           7150      1.34001e+7 
           7170       1.3313e+7 
           7190      1.32244e+7 
           7210      1.31381e+7 
           7230      1.30533e+7 
           7250      1.29685e+7 
           7270      1.28844e+7 
           7290      1.27968e+7 
           7310       1.2717e+7 
           7330      1.26322e+7 
           7350      1.25531e+7 
           7370      1.24719e+7 
           7390      1.23893e+7 
           7410      1.23033e+7 
           7430      1.22269e+7 
           7450      1.21512e+7 
           7470       1.2072e+7 
           7490      1.19935e+7 
           7510      1.19177e+7 
           7530      1.18419e+7 
           7550      1.17667e+7 
           7570      1.16908e+7 
           7590      1.16162e+7 
           7610      1.15415e+7 
           7630      1.14681e+7 
           7650      1.13941e+7 
           7670      1.13187e+7 
           7690      1.12478e+7 
           7710      1.11775e+7 
           7730      1.11078e+7 
           7750      1.10361e+7 
           7770      1.09307e+7 
           7790      1.08988e+7 
           7810      1.08295e+7 
           7830      1.07607e+7 
           7850      1.06925e+7 
           7870      1.06255e+7 
           7890      1.05578e+7 
           7910      1.04936e+7 
           7930      1.04228e+7 
           7950      1.03591e+7 
           7970      1.02982e+7 
           7990       1.0232e+7 
           8010      1.01698e+7 
           8030      1.01064e+7 
           8050      1.00434e+7 
           8070      9.98212e+6 
           8090      9.91958e+6 
           8110      9.85869e+6 
           8130      9.79827e+6 
           8150      9.73777e+6 
           8170      9.67773e+6 
           8190      9.60862e+6 
           8210      9.55963e+6 
           8230      9.50098e+6 
           8250      9.44446e+6 
           8270      9.39608e+6 
           8290      9.34038e+6 
           8310      9.28347e+6 
           8330       9.2194e+6 
           8350      9.17367e+6 
           8370      9.11644e+6 
           8390      9.05644e+6 
           8410      8.99956e+6 
           8430      8.94525e+6 
           8450      8.88132e+6 
           8470      8.79637e+6 
           8490      8.79835e+6 
           8510      8.58434e+6 
           8530       8.7093e+6 
           8550      8.31095e+6 
           8570      8.64768e+6 
           8590       8.4063e+6 
           8610      8.29056e+6 
           8630      8.54758e+6 
           8650      8.38676e+6 
           8670      7.68706e+6 
           8690      8.36859e+6 
           8710      8.42406e+6 
           8730      8.26242e+6 
           8750      7.34638e+6 
           8770      8.04077e+6 
           8790      8.26362e+6 
           8810      8.23779e+6 
           8830      8.14833e+6 
           8850      7.71376e+6 
           8870       6.9555e+6 
           8890       7.8919e+6 
           8910       8.0226e+6 
           8930      8.02213e+6 
           8950      7.98867e+6 
           8970      7.89737e+6 
           8990      7.68514e+6 
           9010      6.68812e+6 
           9030       7.1284e+6 
           9050      7.62175e+6 
           9070      7.68206e+6 
           9090      7.65878e+6 
           9110      7.65923e+6 
           9130      7.62707e+6 
           9150      7.57441e+6 
           9170      7.50243e+6 
           9190      7.38283e+6 
           9210      7.07455e+6 
           9230       6.0211e+6 
           9250      6.91135e+6 
           9270      7.18844e+6 
           9290      7.24657e+6 
           9310      7.23981e+6 
           9330      7.21356e+6 
