# Kurucz ODFNEW /NOVER (2003)
# teff = 31000 K (value for the effective temperature for the model. Temperatures are given in K)
# logg = 3.5 log(cm/s2) (value for Log(G) for the model.)
# meta = 0.5  (value for the Metallicity for the model.)
# lh = 1.25  (l/Hp where l is the  mixing length of the convective element and Hp is the pressure scale height)
# vtur = 2 km/s (Microturbulence velocity)
# alpha = 0.4  (Alpha)
#
# column 1: WAVELENGTH (ANGSTROM), Wavelength in Angstrom
# column 2: FLUX (ERG/CM2/S/A), Flux in erg/cm2/s/A
          147.2      3.51435e-8 
            151      1.05181e-7 
          155.2      3.30809e-7 
          158.8      8.43604e-7 
            162      1.87145e-6 
            166      4.88698e-6 
          170.3      1.29297e-5 
          173.4       2.5669e-5 
          176.8       5.3978e-5 
          180.2     0.000107683 
          181.7     0.000150247 
          186.1     0.000349468 
            191     0.000860578 
          193.9      0.00143118 
          198.4      0.00313031 
          201.8      0.00543716 
            205      0.00900206 
          210.5       0.0207519 
          216.2       0.0465471 
          219.8       0.0777015 
            223        0.119529 
          226.8        0.224463 
            230         71.5786 
            234         151.755 
            240         254.057 
          246.5          451.42 
          252.4         803.065 
          256.8         1197.66 
            260         2221.64 
            264         3951.72 
          268.5         6455.25 
          273.5         9168.15 
          278.5         11522.1 
            284         29425.7 
            290         44331.8 
            296         59951.8 
            301          101487 
            308          352906 
            318          804616 
            328      1.20624e+6 
            338      2.40051e+6 
            348      3.87294e+6 
            357      9.64104e+6 
            366      2.60822e+7 
            375      2.98678e+7 
            385      4.88801e+7 
            395       1.4524e+8 
            405      1.99466e+8 
            414      3.75925e+8 
            422      4.32167e+8 
            430      4.48061e+8 
            441      5.58757e+8 
            451      5.75593e+8 
            460      5.09421e+8 
            470      6.66482e+8 
            480      8.02725e+8 
            490      6.54577e+8 
            500      9.78125e+8 
            506      8.31381e+8 
            512      6.69204e+9 
            520      6.52909e+9 
            530      6.25607e+9 
            540      6.12586e+9 
            550      5.55554e+9 
            560      9.17089e+9 
            570     1.40152e+10 
            580     1.28126e+10 
            590     1.28841e+10 
            600      5.66444e+9 
            610      9.53376e+9 
            620     1.53348e+10 
            630     1.47493e+10 
            640     1.54674e+10 
            650     1.19269e+10 
            658      5.77558e+9 
            665      1.2056e+10 
            675     1.78813e+10 
            685     1.00673e+10 
            695     1.65963e+10 
            705      8.22396e+9 
            716     2.01572e+10 
            726     2.00045e+10 
            735     2.00636e+10 
            745      1.4402e+10 
            755     1.51736e+10 
            765     1.59826e+10 
            775     1.89009e+10 
            785     1.67168e+10 
            795     1.95594e+10 
            805     1.69876e+10 
            815     1.64293e+10 
            825     1.94861e+10 
            835     1.11243e+10 
            845     1.79637e+10 
            855     1.73805e+10 
            865     1.88177e+10 
            875     1.89909e+10 
            885       1.939e+10 
            895     1.92855e+10 
            905     1.82913e+10 
            915     2.13549e+10 
            925     4.34525e+10 
            935     6.15497e+10 
            945     6.39199e+10 
            955     6.70866e+10 
            965     6.95992e+10 
            975     2.77812e+10 
            985     5.09903e+10 
            995     4.91829e+10 
           1005     5.19053e+10 
           1015     5.65007e+10 
           1025     5.31482e+10 
           1035     5.56887e+10 
           1045     6.41667e+10 
           1055     6.04581e+10 
           1065     5.16788e+10 
           1075     5.36264e+10 
           1085      5.0972e+10 
           1095     5.32312e+10 
           1105     5.11243e+10 
           1115      4.9366e+10 
           1125     3.55439e+10 
           1135     4.74485e+10 
           1145     4.72756e+10 
           1155     4.34445e+10 
           1165      4.3282e+10 
           1175     2.62985e+10 
           1185     3.89761e+10 
           1195     3.77884e+10 
           1205     3.63128e+10 
           1215     3.36759e+10 
           1225      3.6156e+10 
           1235     3.85615e+10 
           1245     3.65203e+10 
           1255     3.68974e+10 
           1265     3.80655e+10 
           1275      3.9918e+10 
           1285     3.99174e+10 
           1295      3.7131e+10 
           1305     3.69557e+10 
           1315     3.94981e+10 
           1325     3.83119e+10 
           1335     3.68882e+10 
           1345     3.70373e+10 
           1355     3.60268e+10 
           1365     3.47811e+10 
           1375     3.32249e+10 
           1385     3.15822e+10 
           1395     2.00829e+10 
           1405     2.24184e+10 
           1415      3.1262e+10 
           1425     2.81291e+10 
           1435     3.03729e+10 
           1442     2.96566e+10 
           1447     2.96103e+10 
           1455     2.80008e+10 
           1465     2.72284e+10 
           1475     2.80154e+10 
           1485     2.79759e+10 
           1495     2.70821e+10 
           1505     2.63408e+10 
           1512     2.59261e+10 
           1517     2.63285e+10 
           1525     2.50486e+10 
           1535     2.16007e+10 
           1545     1.65573e+10 
           1555     1.70835e+10 
           1565     2.07098e+10 
           1575     2.21258e+10 
           1585     2.22133e+10 
           1595     2.21904e+10 
           1605     2.09232e+10 
           1615     1.99557e+10 
           1625     2.04598e+10 
           1635     2.09403e+10 
           1645     2.11654e+10 
           1655      2.0733e+10 
           1665     2.03936e+10 
           1672     1.85051e+10 
           1677     2.24377e+10 
           1685     2.12088e+10 
           1695     2.04518e+10 
           1705     2.03577e+10 
           1715     1.89772e+10 
           1725     1.84907e+10 
           1735     1.92105e+10 
           1745     1.90862e+10 
           1755     1.88302e+10 
           1765     1.86525e+10 
           1775     1.78857e+10 
           1785     1.82428e+10 
           1795     1.77653e+10 
           1805     1.77529e+10 
           1815     1.72799e+10 
           1825     1.70333e+10 
           1835     1.70451e+10 
           1845     1.62632e+10 
           1855     1.66609e+10 
           1865      1.6629e+10 
           1875     1.61263e+10 
           1885     1.54022e+10 
           1895     1.51719e+10 
           1905      1.5584e+10 
           1915     1.51576e+10 
           1925     1.42045e+10 
           1935     1.51317e+10 
           1945     1.52443e+10 
           1955       1.377e+10 
           1967     1.44895e+10 
           1976     1.47765e+10 
           1984      1.4358e+10 
           1995     1.39815e+10 
           2005     1.42875e+10 
           2015     1.42435e+10 
           2025     1.42318e+10 
           2035     1.36256e+10 
           2045     1.34206e+10 
           2055      1.1019e+10 
           2065     1.07765e+10 
           2074       1.151e+10 
           2078     1.14953e+10 
           2085     1.25041e+10 
           2095     1.23207e+10 
           2105     1.23518e+10 
           2115     1.25755e+10 
           2125     1.22956e+10 
           2135     1.22774e+10 
           2145     1.20125e+10 
           2155     1.19816e+10 
           2165     1.15007e+10 
           2175     1.16468e+10 
           2185     1.14434e+10 
           2195     1.15606e+10 
           2205     1.13661e+10 
           2215     1.10449e+10 
           2225      1.1012e+10 
           2235     1.08526e+10 
           2245     1.06971e+10 
           2255     1.04891e+10 
           2265     1.04334e+10 
           2275     1.03819e+10 
           2285     1.00315e+10 
           2295      8.79556e+9 
           2305      9.70643e+9 
           2315      9.54332e+9 
           2325      9.60148e+9 
           2335      9.45032e+9 
           2345      9.31303e+9 
           2355       9.1064e+9 
           2365      8.93189e+9 
           2375      8.72259e+9 
           2385      8.40852e+9 
           2395      8.43237e+9 
           2405      8.44251e+9 
           2415      8.31266e+9 
           2425      8.29101e+9 
           2435       8.1538e+9 
           2445      8.06014e+9 
           2455      7.92772e+9 
           2465      7.80525e+9 
           2475      7.64944e+9 
           2485      6.99136e+9 
           2495      4.23031e+9 
           2505      6.33743e+9 
           2513      6.89847e+9 
           2518      6.98875e+9 
           2525      7.21359e+9 
           2535        7.216e+9 
           2545      7.06285e+9 
           2555      7.03018e+9 
           2565      6.93081e+9 
           2575      6.87992e+9 
           2585      6.80199e+9 
           2595      6.63889e+9 
           2605      6.65353e+9 
           2615      6.48099e+9 
           2625       6.4656e+9 
           2635      6.42747e+9 
           2645      6.30249e+9 
           2655      6.25457e+9 
           2665      6.11755e+9 
           2675      5.94501e+9 
           2685      6.00219e+9 
           2695      5.89497e+9 
           2705      5.86279e+9 
           2715      5.77317e+9 
           2725      5.72428e+9 
           2735      5.60696e+9 
           2745      5.62917e+9 
           2755      5.53577e+9 
           2765      5.47363e+9 
           2775      5.44452e+9 
           2785      5.31029e+9 
           2795      5.14312e+9 
           2805      5.21425e+9 
           2815      5.17917e+9 
           2825      5.12841e+9 
           2835      5.03417e+9 
           2845      5.02118e+9 
           2855      4.93846e+9 
           2865       4.8531e+9 
           2875      4.79342e+9 
           2885      4.76116e+9 
           2895      4.71573e+9 
           2910      4.58405e+9 
           2930      4.54187e+9 
           2950      4.43114e+9 
           2970      4.32127e+9 
           2990      4.17929e+9 
           3010      4.04414e+9 
           3030      3.93168e+9 
           3050      3.91252e+9 
           3070      3.83637e+9 
           3090      3.73478e+9 
           3110      3.70957e+9 
           3130      3.60271e+9 
           3150      3.56045e+9 
           3170      3.47326e+9 
           3190      3.41615e+9 
           3210      3.30666e+9 
           3230      3.24713e+9 
           3250        3.209e+9 
           3270      3.09838e+9 
           3290      3.05958e+9 
           3310      2.98616e+9 
           3330      2.91476e+9 
           3350        2.833e+9 
           3370      2.78733e+9 
           3390      2.76182e+9 
           3410      2.70262e+9 
           3430      2.67376e+9 
           3450      2.59097e+9 
           3470      2.55831e+9 
           3490      2.51126e+9 
           3510      2.46248e+9 
           3530      2.41996e+9 
           3550      2.36952e+9 
           3570      2.32132e+9 
           3590      2.27644e+9 
           3610      2.22859e+9 
           3630      2.18757e+9 
           3640      2.15118e+9 
           3650      2.01976e+9 
           3670      1.98824e+9 
           3690      1.95275e+9 
           3710      1.89483e+9 
           3730      1.88783e+9 
           3750      1.92352e+9 
           3770      1.89434e+9 
           3790       1.9139e+9 
           3810      1.92555e+9 
           3830      1.81327e+9 
           3850      1.88107e+9 
           3870      1.80178e+9 
           3890      1.71925e+9 
           3910      1.79938e+9 
           3930       1.7386e+9 
           3950      1.69602e+9 
           3970      1.57677e+9 
           3990      1.67033e+9 
           4010       1.6364e+9 
           4030      1.59491e+9 
           4050      1.58202e+9 
           4070      1.51803e+9 
           4090      1.46085e+9 
           4110      1.39607e+9 
           4130      1.45239e+9 
           4150      1.43532e+9 
           4170      1.42822e+9 
           4190       1.4014e+9 
           4210      1.37445e+9 
           4230      1.35906e+9 
           4250       1.3221e+9 
           4270      1.29551e+9 
           4290      1.26817e+9 
           4310      1.23787e+9 
           4330      1.20661e+9 
           4350      1.14264e+9 
           4370      1.18904e+9 
           4390      1.16961e+9 
           4410      1.14523e+9 
           4430      1.14114e+9 
           4450      1.11802e+9 
           4470      1.09886e+9 
           4490      1.09008e+9 
           4510      1.06052e+9 
           4530      1.05257e+9 
           4550      1.03059e+9 
           4570      1.02382e+9 
           4590      1.00246e+9 
           4610      9.87075e+8 
           4630      9.67987e+8 
           4650      9.14117e+8 
           4670      9.37691e+8 
           4690      9.20633e+8 
           4710      9.09655e+8 
           4730      9.16309e+8 
           4750      9.00327e+8 
           4770      8.90723e+8 
           4790       8.7716e+8 
           4810      8.61641e+8 
           4830      8.47043e+8 
           4850      8.28476e+8 
           4870      7.71157e+8 
           4890      8.09417e+8 
           4910      7.96757e+8 
           4930      7.81564e+8 
           4950      7.70848e+8 
           4970      7.67524e+8 
           4990      7.56709e+8 
           5010      7.33043e+8 
           5030      7.28968e+8 
           5050      7.19955e+8 
           5070      7.13656e+8 
           5090       7.0297e+8 
           5110      6.92673e+8 
           5130      6.82187e+8 
           5150      6.72737e+8 
           5170      6.62242e+8 
           5190      6.53987e+8 
           5210      6.45409e+8 
           5230      6.37025e+8 
           5250      6.25347e+8 
           5270      6.15848e+8 
           5290      6.10972e+8 
           5310      6.02049e+8 
           5330      5.94025e+8 
           5350       5.8638e+8 
           5370      5.78088e+8 
           5390      5.69294e+8 
           5410      5.57331e+8 
           5430      5.55315e+8 
           5450      5.47632e+8 
           5470       5.3987e+8 
           5490      5.32819e+8 
           5510      5.25074e+8 
           5530      5.18708e+8 
           5550      5.12359e+8 
           5570      5.04789e+8 
           5590      4.96228e+8 
           5610      4.92469e+8 
           5630      4.85957e+8 
           5650      4.79454e+8 
           5670      4.72445e+8 
           5690      4.58541e+8 
           5710      4.43976e+8 
           5730      4.38748e+8 
           5750      4.32055e+8 
           5770      4.28262e+8 
           5790      4.23095e+8 
           5810      4.16738e+8 
           5830      4.13141e+8 
           5850      4.10783e+8 
           5870       4.0086e+8 
           5890      4.02595e+8 
           5910      3.99519e+8 
           5930      3.96271e+8 
           5950      3.93378e+8 
           5970       3.9063e+8 
           5990      3.85338e+8 
           6010      3.80994e+8 
           6030      3.75767e+8 
           6050        3.713e+8 
           6070      3.66884e+8 
           6090      3.63046e+8 
           6110      3.57938e+8 
           6130      3.53822e+8 
           6150      3.49054e+8 
           6170       3.4438e+8 
           6190      3.41755e+8 
           6210      3.37897e+8 
           6230      3.32703e+8 
           6250      3.29198e+8 
           6270       3.2574e+8 
           6290      3.21939e+8 
           6310      3.16552e+8 
           6330      3.14536e+8 
           6350      3.10306e+8 
           6370      3.07256e+8 
           6390      3.03675e+8 
           6410      2.99105e+8 
           6430      2.96728e+8 
           6450      2.92826e+8 
           6470      2.88877e+8 
           6490      2.85453e+8 
           6510      2.81302e+8 
           6530      2.78168e+8 
           6550       2.7461e+8 
           6570      2.53033e+8 
           6590        2.693e+8 
           6610      2.67061e+8 
           6630      2.64458e+8 
           6650      2.61046e+8 
           6670      2.55876e+8 
           6690      2.52463e+8 
           6710      2.51822e+8 
           6730      2.48356e+8 
           6750      2.46465e+8 
           6770      2.44254e+8 
           6790      2.41331e+8 
           6810      2.39087e+8 
           6830      2.36332e+8 
           6850      2.33725e+8 
           6870      2.30938e+8 
           6890      2.27012e+8 
           6910      2.25084e+8 
           6930      2.23975e+8 
           6950      2.21495e+8 
           6970      2.19155e+8 
           6990      2.16754e+8 
           7010      2.13978e+8 
           7030      2.11352e+8 
           7050      2.09298e+8 
           7070      2.05018e+8 
           7090      2.05414e+8 
           7110       2.0265e+8 
           7130      2.00707e+8 
           7150      1.99033e+8 
           7170      1.96166e+8 
           7190      1.94544e+8 
           7210      1.92843e+8 
           7230      1.89543e+8 
           7250      1.88349e+8 
           7270      1.86879e+8 
           7290      1.83927e+8 
           7310       1.8271e+8 
           7330      1.81097e+8 
           7350      1.79228e+8 
           7370      1.77292e+8 
           7390      1.75616e+8 
           7410      1.73688e+8 
           7430      1.72059e+8 
           7450      1.70009e+8 
           7470      1.67919e+8 
           7490      1.66009e+8 
           7510      1.65006e+8 
           7530        1.633e+8 
           7550      1.61808e+8 
           7570        1.601e+8 
           7590      1.57465e+8 
           7610      1.56463e+8 
           7630       1.5523e+8 
           7650      1.53692e+8 
           7670      1.52411e+8 
           7690      1.50307e+8 
           7710      1.49103e+8 
           7730      1.47223e+8 
           7750       1.4627e+8 
           7770      1.45106e+8 
           7790      1.43604e+8 
           7810      1.42308e+8 
           7830      1.40906e+8 
           7850      1.39076e+8 
           7870      1.37665e+8 
           7890      1.36502e+8 
           7910      1.35505e+8 
           7930      1.34217e+8 
           7950      1.33054e+8 
           7970      1.31492e+8 
           7990      1.30439e+8 
           8010      1.29213e+8 
           8030      1.27863e+8 
           8050      1.26845e+8 
           8070       1.2565e+8 
           8090      1.24408e+8 
           8110      1.22529e+8 
           8130      1.22155e+8 
           8150       1.2091e+8 
           8170      1.19771e+8 
           8190       1.1808e+8 
           8210      1.15108e+8 
           8230      1.13626e+8 
           8250       1.1312e+8 
           8270      1.11488e+8 
           8290      1.11044e+8 
           8310      1.10227e+8 
           8330      1.08829e+8 
           8350      1.07622e+8 
           8370       1.0698e+8 
           8390      1.06395e+8 
           8410      1.05341e+8 
           8430      1.04593e+8 
           8450      1.03502e+8 
           8470      1.02688e+8 
           8490      1.02085e+8 
           8510      1.00185e+8 
           8530      1.00586e+8 
           8550      9.85029e+7 
           8570      9.93157e+7 
