# Kurucz ODFNEW /NOVER (2003)
# teff = 21000 K (value for the effective temperature for the model. Temperatures are given in K)
# logg = 3.5 log(cm/s2) (value for Log(G) for the model.)
# meta = -1  (value for the Metallicity for the model.)
# lh = 1.25  (l/Hp where l is the  mixing length of the convective element and Hp is the pressure scale height)
# vtur = 2 km/s (Microturbulence velocity)
# alpha = 0  (Alpha)
#
# column 1: WAVELENGTH (ANGSTROM), Wavelength in Angstrom
# column 2: FLUX (ERG/CM2/S/A), Flux in erg/cm2/s/A
          147.2     9.90461e-19 
            151     5.94562e-18 
          155.2     3.91744e-17 
          158.8      1.8308e-16 
            162     6.83005e-16 
            166     3.30834e-15 
          170.3     1.66619e-14 
          173.4     5.09472e-14 
          176.8     1.66163e-13 
          180.2     5.18965e-13 
          181.7     8.46392e-13 
          186.1     3.39971e-12 
            191     1.48426e-11 
          193.9     3.42889e-11 
          198.4     1.19845e-10 
          201.8      2.9728e-10 
            205     6.79933e-10 
          210.5      2.65631e-9 
          216.2      1.01294e-8 
          219.8      2.27455e-8 
            223      4.56486e-8 
          226.8      1.01693e-7 
            230      9.68601e-7 
            234       2.4022e-6 
            240      6.90801e-6 
          246.5      2.04286e-5 
          252.4      5.25635e-5 
          256.8     0.000100035 
            260     0.000164557 
            264     0.000291779 
          268.5     0.000543468 
          273.5      0.00105793 
          278.5      0.00201454 
            284      0.00398463 
            290      0.00811379 
            296       0.0160158 
            301       0.0276398 
            308       0.0564673 
            318        0.155507 
            328        0.391388 
            338        0.938196 
            348         2.12517 
            357         4.28077 
            366         8.31158 
            375         15.4541 
            385         29.8664 
            395          55.549 
            405         100.089 
            414         165.899 
            422          253.94 
            430         382.027 
            441         656.639 
            451         1046.48 
            460         1558.71 
            470         2385.21 
            480         3572.55 
            490         5264.48 
            500         7620.03 
            506         59532.5 
            512          204199 
            520          259378 
            530          367435 
            540          414260 
            550          611099 
            560          744857 
            570          943621 
            580          959753 
            590      1.30367e+6 
            600      1.64631e+6 
            610      2.01182e+6 
            620      2.35123e+6 
            630      2.78603e+6 
            640       3.1254e+6 
            650      3.48508e+6 
            658       4.2353e+6 
            665      4.65075e+6 
            675      5.17677e+6 
            685      5.86164e+6 
            695      6.95767e+6 
            705      7.76312e+6 
            716      8.91162e+6 
            726       9.8686e+6 
            735      1.09004e+7 
            745      1.23874e+7 
            755      1.37943e+7 
            765      1.52771e+7 
            775      1.69659e+7 
            785      1.87483e+7 
            795      2.03783e+7 
            805       2.2239e+7 
            815      2.40242e+7 
            825      2.64503e+7 
            835      2.78874e+7 
            845      3.05193e+7 
            855      3.28501e+7 
            865      3.56713e+7 
            875      3.87813e+7 
            885      4.19844e+7 
            895      4.49352e+7 
            905       4.6977e+7 
            915      8.16613e+7 
            925      7.09495e+8 
            935      2.47461e+9 
            945      6.60418e+9 
            955       8.9446e+9 
            965     1.10965e+10 
            975      2.89233e+9 
            985     1.17019e+10 
            995      1.1146e+10 
           1005     1.21211e+10 
           1015     1.14329e+10 
           1025      4.29288e+9 
           1035      9.00303e+9 
           1045     1.31752e+10 
           1055      1.2491e+10 
           1065     1.09981e+10 
           1075     1.22245e+10 
           1085      1.1076e+10 
           1095     1.21918e+10 
           1105     1.12674e+10 
           1115     1.12417e+10 
           1125     1.01979e+10 
           1135     1.14066e+10 
           1145     1.05827e+10 
           1155      1.0949e+10 
           1165      1.1038e+10 
           1175      8.68923e+9 
           1185     1.07453e+10 
           1195       9.6183e+9 
           1205       7.0057e+9 
           1215      3.20631e+9 
           1225      8.34284e+9 
           1235      9.73202e+9 
           1245      9.82956e+9 
           1255      9.55562e+9 
           1265        9.359e+9 
           1275      9.58912e+9 
           1285      9.40007e+9 
           1295      7.76945e+9 
           1305      7.92536e+9 
           1315      9.00918e+9 
           1325      8.59217e+9 
           1335      8.13734e+9 
           1345      8.38998e+9 
           1355      8.37801e+9 
           1365      7.95929e+9 
           1375      7.83278e+9 
           1385      7.81848e+9 
           1395      7.00173e+9 
           1405      7.22056e+9 
           1415      7.31529e+9 
           1425      7.21076e+9 
           1435      7.23684e+9 
           1442      7.29756e+9 
           1447      7.16715e+9 
           1455      7.03979e+9 
           1465      6.77252e+9 
           1475      6.70697e+9 
           1485      6.57116e+9 
           1495      6.47613e+9 
           1505      6.16649e+9 
           1512         5.76e+9 
           1517      5.88924e+9 
           1525      5.92043e+9 
           1535      5.45566e+9 
           1545      5.54577e+9 
           1555      5.28756e+9 
           1565      5.45169e+9 
           1575      5.56493e+9 
           1585      5.48233e+9 
           1595      5.47822e+9 
           1605      5.33003e+9 
           1615      5.24848e+9 
           1625      5.19007e+9 
           1635      5.27475e+9 
           1645      5.18228e+9 
           1655      5.07789e+9 
           1665      5.14183e+9 
           1672      4.98149e+9 
           1677      5.11111e+9 
           1685      5.03628e+9 
           1695      4.86833e+9 
           1705      4.70655e+9 
           1715      4.53847e+9 
           1725      4.48701e+9 
           1735      4.53643e+9 
           1745      4.43597e+9 
           1755      4.47326e+9 
           1765      4.26611e+9 
           1775      4.21554e+9 
           1785      4.21243e+9 
           1795      4.25063e+9 
           1805      4.23037e+9 
           1815      3.98707e+9 
           1825      4.04314e+9 
           1835      3.95109e+9 
           1845       3.6919e+9 
           1855      3.63009e+9 
           1865      3.67271e+9 
           1875      3.76802e+9 
           1885      3.46775e+9 
           1895      3.27693e+9 
           1905      3.46165e+9 
           1915      3.31423e+9 
           1925       3.2135e+9 
           1935      3.30987e+9 
           1945      3.35081e+9 
           1955      3.11386e+9 
           1967      3.26157e+9 
           1976      3.35311e+9 
           1984      3.16227e+9 
           1995      3.08396e+9 
           2005      3.13161e+9 
           2015      3.12297e+9 
           2025      3.16818e+9 
           2035      2.98729e+9 
           2045      2.98247e+9 
           2055      2.90347e+9 
           2065      2.92356e+9 
           2074      3.00921e+9 
           2078      2.84138e+9 
           2085      2.88317e+9 
           2095      2.76782e+9 
           2105      2.81325e+9 
           2115      2.79227e+9 
           2125      2.82254e+9 
           2135       2.7669e+9 
           2145      2.66428e+9 
           2155      2.71399e+9 
           2165      2.68432e+9 
           2175      2.64544e+9 
           2185      2.60502e+9 
           2195      2.60159e+9 
           2205      2.56495e+9 
           2215      2.53179e+9 
           2225      2.47994e+9 
           2235       2.4587e+9 
           2245       2.4512e+9 
           2255       2.3972e+9 
           2265       2.3973e+9 
           2275      2.36616e+9 
           2285      2.35487e+9 
           2295       2.2781e+9 
           2305      2.29057e+9 
           2315       2.2432e+9 
           2325      2.22165e+9 
           2335      2.16811e+9 
           2345      2.14253e+9 
           2355       2.1489e+9 
           2365      2.10928e+9 
           2375      2.08921e+9 
           2385      2.05736e+9 
           2395      2.04573e+9 
           2405      2.01605e+9 
           2415      1.98854e+9 
           2425      1.99094e+9 
           2435      1.95118e+9 
           2445      1.93853e+9 
           2455      1.92971e+9 
           2465      1.89703e+9 
           2475      1.87829e+9 
           2485      1.85802e+9 
           2495      1.79619e+9 
           2505       1.8173e+9 
           2513      1.76124e+9 
           2518      1.78985e+9 
           2525      1.76806e+9 
           2535      1.74113e+9 
           2545      1.71351e+9 
           2555      1.72125e+9 
           2565      1.69439e+9 
           2575      1.69029e+9 
           2585      1.67172e+9 
           2595      1.65343e+9 
           2605      1.64509e+9 
           2615      1.62829e+9 
           2625      1.61197e+9 
           2635      1.59102e+9 
           2645      1.58855e+9 
           2655      1.57222e+9 
           2665      1.54575e+9 
           2675      1.53553e+9 
           2685      1.52871e+9 
           2695      1.49607e+9 
           2705      1.49291e+9 
           2715      1.47646e+9 
           2725      1.45017e+9 
           2735      1.44931e+9 
           2745      1.41192e+9 
           2755      1.40481e+9 
           2765      1.39014e+9 
           2775      1.39286e+9 
           2785      1.37549e+9 
           2795      1.33408e+9 
           2805      1.34033e+9 
           2815      1.33791e+9 
           2825      1.31264e+9 
           2835      1.28723e+9 
           2845      1.29439e+9 
           2855      1.28234e+9 
           2865      1.27271e+9 
           2875      1.25904e+9 
           2885      1.24739e+9 
           2895      1.23456e+9 
           2910      1.21604e+9 
           2930      1.19041e+9 
           2950      1.16095e+9 
           2970      1.14699e+9 
           2990      1.12267e+9 
           3010      1.10136e+9 
           3030      1.08375e+9 
           3050      1.06323e+9 
           3070       1.0433e+9 
           3090      1.02112e+9 
           3110      1.00433e+9 
           3130       9.8669e+8 
           3150      9.68619e+8 
           3170      9.49799e+8 
           3190      9.25784e+8 
           3210      9.16002e+8 
           3230      8.99241e+8 
           3250      8.83286e+8 
           3270      8.68321e+8 
           3290      8.51671e+8 
           3310      8.38143e+8 
           3330      8.23315e+8 
           3350      8.07404e+8 
           3370      7.94731e+8 
           3390      7.81087e+8 
           3410      7.67675e+8 
           3430      7.50807e+8 
           3450      7.35386e+8 
           3470      7.25056e+8 
           3490      7.13027e+8 
           3510      7.04527e+8 
           3530      6.93664e+8 
           3550      6.82343e+8 
           3570      6.73803e+8 
           3590       6.5895e+8 
           3610      6.48518e+8 
           3630      6.37674e+8 
           3640      6.36194e+8 
           3650      6.25304e+8 
           3670      6.17669e+8 
           3690      5.99647e+8 
           3710      5.88081e+8 
           3730      5.79707e+8 
           3750      6.40246e+8 
           3770      6.47042e+8 
           3790      6.76556e+8 
           3810      7.04974e+8 
           3830       6.1871e+8 
           3850      7.20926e+8 
           3870      7.17896e+8 
           3890      5.89937e+8 
           3910      7.07349e+8 
           3930      6.89655e+8 
           3950      6.84403e+8 
           3970      5.48402e+8 
           3990      6.58681e+8 
           4010      6.51283e+8 
           4030      6.18786e+8 
           4050      6.36047e+8 
           4070      6.21329e+8 
           4090      5.83603e+8 
           4110      5.12458e+8 
           4130      5.84876e+8 
           4150      5.79821e+8 
           4170      5.74424e+8 
           4190      5.67387e+8 
           4210      5.58991e+8 
           4230      5.49654e+8 
           4250      5.40426e+8 
           4270      5.28308e+8 
           4290       5.2323e+8 
           4310      5.12869e+8 
           4330       4.7314e+8 
           4350      4.31728e+8 
           4370      4.88407e+8 
           4390      4.73118e+8 
           4410      4.76043e+8 
           4430      4.67262e+8 
           4450      4.62482e+8 
           4470      4.39253e+8 
           4490      4.47177e+8 
           4510      4.42109e+8 
           4530      4.35111e+8 
           4550      4.28455e+8 
           4570      4.21935e+8 
           4590       4.1596e+8 
           4610      4.09575e+8 
           4630      4.03391e+8 
           4650      3.96444e+8 
           4670      3.91829e+8 
           4690       3.8661e+8 
           4710       3.7559e+8 
           4730      3.73902e+8 
           4750      3.68122e+8 
           4770      3.64859e+8 
           4790      3.59487e+8 
           4810      3.53915e+8 
           4830      3.47599e+8 
           4850      3.25807e+8 
           4870      2.91622e+8 
           4890      3.32615e+8 
           4910      3.29551e+8 
           4930      3.18605e+8 
           4950      3.20772e+8 
           4970      3.16548e+8 
           4990      3.12064e+8 
           5010      3.03334e+8 
           5030      3.03457e+8 
           5050      2.96789e+8 
           5070      2.95317e+8 
           5090        2.913e+8 
           5110      2.87278e+8 
           5130      2.83081e+8 
           5150      2.79282e+8 
           5170      2.75941e+8 
           5190      2.72252e+8 
           5210      2.68223e+8 
           5230       2.6506e+8 
           5250      2.61554e+8 
           5270      2.58067e+8 
           5290      2.54746e+8 
           5310      2.51375e+8 
           5330       2.4806e+8 
           5350      2.44695e+8 
           5370      2.41739e+8 
           5390        2.386e+8 
           5410      2.35526e+8 
           5430      2.32337e+8 
           5450      2.29443e+8 
           5470      2.26522e+8 
           5490        2.237e+8 
           5510      2.20862e+8 
           5530      2.18061e+8 
           5550      2.15354e+8 
           5570      2.12621e+8 
           5590      2.09993e+8 
           5610      2.07313e+8 
           5630      2.04809e+8 
           5650      2.01969e+8 
           5670      1.99433e+8 
           5690      1.96952e+8 
           5710      1.94823e+8 
           5730      1.92456e+8 
           5750      1.90048e+8 
           5770      1.87828e+8 
           5790      1.85544e+8 
           5810      1.83297e+8 
           5830      1.81067e+8 
           5850      1.78917e+8 
           5870      1.72058e+8 
           5890      1.74236e+8 
           5910      1.72552e+8 
           5930       1.7048e+8 
           5950      1.68399e+8 
           5970      1.66533e+8 
           5990      1.64509e+8 
           6010      1.62644e+8 
           6030      1.60728e+8 
           6050      1.58864e+8 
           6070      1.57021e+8 
           6090      1.55199e+8 
           6110      1.53418e+8 
           6130      1.51657e+8 
           6150      1.49805e+8 
           6170      1.48173e+8 
           6190      1.46499e+8 
           6210      1.44834e+8 
           6230      1.43187e+8 
           6250       1.4153e+8 
           6270      1.39957e+8 
           6290      1.38383e+8 
           6310      1.36807e+8 
           6330      1.35305e+8 
           6350      1.33613e+8 
           6370      1.32218e+8 
           6390       1.3082e+8 
           6410      1.29372e+8 
           6430      1.27967e+8 
           6450       1.2655e+8 
           6470      1.25112e+8 
           6490      1.23769e+8 
           6510      1.22423e+8 
           6530      1.20738e+8 
           6550      1.16288e+8 
           6570      1.03606e+8 
           6590      1.15991e+8 
           6610      1.15867e+8 
           6630      1.14715e+8 
           6650      1.13566e+8 
           6670      1.11404e+8 
           6690      1.10243e+8 
           6710       1.0998e+8 
           6730      1.08811e+8 
           6750      1.07671e+8 
           6770      1.06543e+8 
           6790      1.05303e+8 
           6810      1.04304e+8 
           6830      1.03217e+8 
           6850       1.0215e+8 
           6870      1.01085e+8 
           6890      1.00031e+8 
           6910      9.90029e+7 
           6930      9.79695e+7 
           6950      9.69775e+7 
           6970      9.59797e+7 
           6990       9.4984e+7 
           7010      9.40288e+7 
           7030      9.30677e+7 
           7050      9.21159e+7 
           7070      8.97942e+7 
           7090      9.02776e+7 
           7110      8.93605e+7 
           7130      8.84672e+7 
           7150       8.7575e+7 
           7170      8.66841e+7 
           7190      8.58381e+7 
           7210      8.49857e+7 
           7230      8.36586e+7 
           7250      8.33051e+7 
           7270       8.2491e+7 
           7290      8.10395e+7 
           7310      8.08575e+7 
           7330      8.00803e+7 
           7350      7.92964e+7 
           7370      7.85268e+7 
           7390      7.77643e+7 
           7410      7.70089e+7 
           7430      7.62536e+7 
           7450      7.55393e+7 
           7470      7.47978e+7 
           7490        7.409e+7 
           7510      7.33486e+7 
           7530      7.26804e+7 
           7550      7.19852e+7 
           7570      7.13029e+7 
           7590      7.06268e+7 
           7610      6.99569e+7 
           7630      6.92929e+7 
           7650      6.86414e+7 
           7670      6.79957e+7 
           7690      6.73558e+7 
           7710       6.6728e+7 
           7730      6.61057e+7 
           7750      6.54827e+7 
           7770      6.47904e+7 
           7790      6.42843e+7 
           7810      6.36343e+7 
           7830      6.31007e+7 
           7850      6.25717e+7 
           7870      6.19986e+7 
           7890       6.1364e+7 
           7910      6.08794e+7 
           7930      6.02433e+7 
           7950      5.96246e+7 
           7970      5.90506e+7 
           7990      5.85216e+7 
           8010      5.79902e+7 
           8030      5.74867e+7 
           8050      5.70066e+7 
           8070      5.65323e+7 
           8090      5.59067e+7 
           8110       5.5476e+7 
           8130      5.50552e+7 
           8150      5.44632e+7 
           8170      5.40992e+7 
           8190      5.35438e+7 
           8210      5.28982e+7 
           8230      5.25936e+7 
           8250      5.21579e+7 
           8270      5.14217e+7 
           8290      5.11811e+7 
           8310      5.07533e+7 
           8330      5.03036e+7 
           8350      4.96204e+7 
           8370      4.93007e+7 
           8390      4.89423e+7 
           8410      4.84861e+7 
           8430      4.79881e+7 
           8450      4.72995e+7 
           8470      4.69168e+7 
           8490      4.68392e+7 
           8510      4.58676e+7 
           8530      4.62648e+7 
           8550      4.43366e+7 
           8570      4.62494e+7 
           8590      4.38435e+7 
