# Kurucz ODFNEW /NOVER (2003)
# teff = 28000 K (value for the effective temperature for the model. Temperatures are given in K)
# logg = 5 log(cm/s2) (value for Log(G) for the model.)
# meta = -1.5  (value for the Metallicity for the model.)
# lh = 1.25  (l/Hp where l is the  mixing length of the convective element and Hp is the pressure scale height)
# vtur = 2 km/s (Microturbulence velocity)
# alpha = 0  (Alpha)
#
# column 1: WAVELENGTH (ANGSTROM), Wavelength in Angstrom
# column 2: FLUX (ERG/CM2/S/A), Flux in erg/cm2/s/A
          147.2     8.68894e-11 
            151      3.3306e-10 
          155.2       1.3656e-9 
          158.8      4.32058e-9 
            162       1.1535e-8 
            166      3.73517e-8 
          170.3      1.24277e-7 
          173.4      2.84944e-7 
          176.8      6.84623e-7 
          180.2      1.59117e-6 
          181.7      2.28503e-6 
          186.1      6.38901e-6 
            191      1.89723e-5 
          193.9      3.51927e-5 
          198.4      8.84902e-5 
          201.8     0.000172706 
            205      0.00031743 
          210.5     0.000864832 
          216.2      0.00231152 
          219.8       0.0041858 
            223      0.00697869 
          226.8       0.0125591 
            230        0.389683 
            234        0.902331 
            240         1.89568 
          246.5         4.07133 
          252.4         7.96087 
          256.8         11.9749 
            260         17.6907 
            264         26.2477 
          268.5         40.6086 
          273.5         64.6263 
          278.5         101.203 
            284         162.998 
            290         266.819 
            296         427.364 
            301         619.268 
            308         978.359 
            318          2057.7 
            328         3871.86 
            338          7090.8 
            348         12419.5 
            357         20115.4 
            366           31816 
            375         48186.5 
            385         75772.9 
            395          115307 
            405          171452 
            414          241781 
            422          320534 
            430          421004 
            441          605867 
            451          829504 
            460      1.07801e+6 
            470      1.43498e+6 
            480      1.87449e+6 
            490      2.42293e+6 
            500      3.09747e+6 
            506        1.512e+7 
            512      5.74053e+7 
            520      6.45372e+7 
            530      7.84158e+7 
            540      7.93147e+7 
            550      9.98638e+7 
            560      1.08706e+8 
            570      1.22712e+8 
            580        1.205e+8 
            590      1.43895e+8 
            600      1.58101e+8 
            610      1.74515e+8 
            620      1.87502e+8 
            630      2.04387e+8 
            640       2.1318e+8 
            650       2.3466e+8 
            658      2.50115e+8 
            665      2.62759e+8 
            675      2.74453e+8 
            685      2.88345e+8 
            695      3.22652e+8 
            705      3.36417e+8 
            716      3.63983e+8 
            726      3.82836e+8 
            735      4.04941e+8 
            745      4.31658e+8 
            755      4.55571e+8 
            765      4.78719e+8 
            775      5.05942e+8 
            785      5.33795e+8 
            795      5.55374e+8 
            805      5.81525e+8 
            815      6.04718e+8 
            825       6.3559e+8 
            835       6.4126e+8 
            845      6.82732e+8 
            855      7.06898e+8 
            865      7.38631e+8 
            875       7.7105e+8 
            885      8.01342e+8 
            895      8.28873e+8 
            905       8.4704e+8 
            915      9.93677e+8 
            925      4.08997e+9 
            935      9.80623e+9 
            945     2.71672e+10 
            955     3.93345e+10 
            965     5.39592e+10 
            975     2.00043e+10 
            985     6.23983e+10 
            995     5.91184e+10 
           1005     6.25878e+10 
           1015      5.4793e+10 
           1025     1.69592e+10 
           1035     4.81627e+10 
           1045     6.07376e+10 
           1055     5.91821e+10 
           1065     5.37347e+10 
           1075     5.53183e+10 
           1085     4.99543e+10 
           1095     5.35768e+10 
           1105     5.11706e+10 
           1115     5.01053e+10 
           1125      4.6236e+10 
           1135     4.78638e+10 
           1145     4.48015e+10 
           1155     4.52971e+10 
           1165     4.43035e+10 
           1175     3.70283e+10 
           1185     4.14255e+10 
           1195     3.88542e+10 
           1205     3.27194e+10 
           1215      1.1969e+10 
           1225     3.14815e+10 
           1235     3.63879e+10 
           1245      3.5796e+10 
           1255     3.54479e+10 
           1265     3.45907e+10 
           1275     3.42958e+10 
           1285     3.35155e+10 
           1295     3.07736e+10 
           1305     3.08104e+10 
           1315     3.11932e+10 
           1325     2.99881e+10 
           1335     2.88113e+10 
           1345     2.87697e+10 
           1355       2.848e+10 
           1365     2.74415e+10 
           1375     2.69641e+10 
           1385     2.63994e+10 
           1395     2.44697e+10 
           1405     2.43707e+10 
           1415     2.45016e+10 
           1425     2.38825e+10 
           1435     2.35801e+10 
           1442     2.34223e+10 
           1447     2.31042e+10 
           1455     2.26711e+10 
           1465     2.20801e+10 
           1475     2.16414e+10 
           1485     2.11955e+10 
           1495     2.07393e+10 
           1505     1.99673e+10 
           1512     1.95669e+10 
           1517     1.94873e+10 
           1525     1.91554e+10 
           1535     1.81376e+10 
           1545     1.78499e+10 
           1555     1.72923e+10 
           1565     1.74489e+10 
           1575     1.73221e+10 
           1585     1.70398e+10 
           1595     1.67601e+10 
           1605     1.61498e+10 
           1615      1.5793e+10 
           1625     1.56933e+10 
           1635     1.55048e+10 
           1645     1.49215e+10 
           1655     1.49989e+10 
           1665     1.47867e+10 
           1672     1.44852e+10 
           1677     1.46012e+10 
           1685     1.43263e+10 
           1695     1.39846e+10 
           1705       1.365e+10 
           1715     1.32863e+10 
           1725     1.30657e+10 
           1735     1.29555e+10 
           1745     1.26961e+10 
           1755     1.25384e+10 
           1765     1.21198e+10 
           1775     1.19657e+10 
           1785     1.18462e+10 
           1795     1.17028e+10 
           1805     1.15547e+10 
           1815      1.1241e+10 
           1825     1.10962e+10 
           1835     1.08967e+10 
           1845     1.04163e+10 
           1855     1.01873e+10 
           1865     1.01601e+10 
           1875     1.01354e+10 
           1885      9.65026e+9 
           1895      9.31536e+9 
           1905      9.46935e+9 
           1915      9.13998e+9 
           1925      8.92785e+9 
           1935      8.97214e+9 
           1945      8.96108e+9 
           1955      8.51746e+9 
           1967      8.61063e+9 
           1976      8.64468e+9 
           1984      8.35259e+9 
           1995      8.09509e+9 
           2005      8.14789e+9 
           2015      8.10081e+9 
           2025      8.03781e+9 
           2035      7.79781e+9 
           2045      7.67985e+9 
           2055      7.38815e+9 
           2065      7.28682e+9 
           2074       7.3571e+9 
           2078      7.16234e+9 
           2085      7.14744e+9 
           2095       6.9895e+9 
           2105      7.04491e+9 
           2115      6.99007e+9 
           2125      6.93044e+9 
           2135      6.81245e+9 
           2145      6.67825e+9 
           2155      6.61333e+9 
           2165      6.52562e+9 
           2175      6.42219e+9 
           2185        6.336e+9 
           2195      6.25744e+9 
           2205      6.16579e+9 
           2215      6.07684e+9 
           2225      5.98566e+9 
           2235      5.89429e+9 
           2245      5.82478e+9 
           2255      5.73122e+9 
           2265      5.66266e+9 
           2275      5.58395e+9 
           2285      5.50856e+9 
           2295      5.35558e+9 
           2305      5.35034e+9 
           2315      5.27462e+9 
           2325      5.20447e+9 
           2335      5.12564e+9 
           2345      5.06428e+9 
           2355      4.99949e+9 
           2365      4.93157e+9 
           2375      4.86221e+9 
           2385      4.79298e+9 
           2395      4.73208e+9 
           2405      4.67002e+9 
           2415      4.60668e+9 
           2425      4.55109e+9 
           2435      4.48589e+9 
           2445      4.42986e+9 
           2455      4.37478e+9 
           2465      4.31735e+9 
           2475      4.26082e+9 
           2485      4.20543e+9 
           2495      4.06303e+9 
           2505      4.09418e+9 
           2513      4.01327e+9 
           2518      4.02646e+9 
           2525      3.99329e+9 
           2535      3.94251e+9 
           2545       3.8768e+9 
           2555      3.83913e+9 
           2565      3.79488e+9 
           2575      3.74899e+9 
           2585      3.70295e+9 
           2595      3.65718e+9 
           2605      3.63288e+9 
           2615      3.58845e+9 
           2625      3.54504e+9 
           2635      3.50006e+9 
           2645      3.45603e+9 
           2655      3.41108e+9 
           2665      3.35959e+9 
           2675      3.31382e+9 
           2685       3.2952e+9 
           2695      3.22478e+9 
           2705      3.21339e+9 
           2715      3.17606e+9 
           2725      3.11033e+9 
           2735      3.09936e+9 
           2745      3.06092e+9 
           2755      3.02718e+9 
           2765      2.96344e+9 
           2775      2.95924e+9 
           2785      2.92375e+9 
           2795      2.86443e+9 
           2805      2.84821e+9 
           2815      2.82387e+9 
           2825      2.75661e+9 
           2835      2.72529e+9 
           2845       2.7273e+9 
           2855      2.69547e+9 
           2865      2.66531e+9 
           2875      2.63508e+9 
           2885      2.60549e+9 
           2895      2.57592e+9 
           2910      2.53186e+9 
           2930      2.47543e+9 
           2950      2.39821e+9 
           2970      2.36786e+9 
           2990      2.31526e+9 
           3010      2.26418e+9 
           3030      2.21703e+9 
           3050       2.1697e+9 
           3070      2.12354e+9 
           3090      2.07503e+9 
           3110       2.0344e+9 
           3130      1.99291e+9 
           3150      1.95174e+9 
           3170       1.9107e+9 
           3190      1.85201e+9 
           3210      1.83226e+9 
           3230      1.79444e+9 
           3250       1.7578e+9 
           3270      1.72431e+9 
           3290      1.68705e+9 
           3310      1.65621e+9 
           3330      1.62326e+9 
           3350      1.58809e+9 
           3370      1.55991e+9 
           3390      1.52959e+9 
           3410      1.49991e+9 
           3430      1.46405e+9 
           3450      1.43035e+9 
           3470      1.40731e+9 
           3490      1.38056e+9 
           3510      1.35609e+9 
           3530      1.33209e+9 
           3550       1.3081e+9 
           3570      1.29307e+9 
           3590      1.25754e+9 
           3610      1.24041e+9 
           3630      1.21225e+9 
           3640      1.21239e+9 
           3650      1.19009e+9 
           3670      1.17383e+9 
           3690      1.15345e+9 
           3710      1.11578e+9 
           3730      1.07813e+9 
           3750      1.06492e+9 
           3770      1.03435e+9 
           3790      1.07358e+9 
           3810      1.11752e+9 
           3830      9.73303e+8 
           3850      1.15178e+9 
           3870      1.17821e+9 
           3890      9.11444e+8 
           3910      1.15896e+9 
           3930      1.15834e+9 
           3950       1.1231e+9 
           3970      8.46517e+8 
           3990      1.07171e+9 
           4010      1.08185e+9 
           4030      1.00533e+9 
           4050      1.06079e+9 
           4070      1.03208e+9 
           4090      9.20919e+8 
           4110      7.99151e+8 
           4130      9.63927e+8 
           4150      9.61483e+8 
           4170      9.56464e+8 
           4190      9.43599e+8 
           4210        9.283e+8 
           4230      9.12321e+8 
           4250      8.95996e+8 
           4270      8.76981e+8 
           4290       8.6258e+8 
           4310      8.38977e+8 
           4330      7.36363e+8 
           4350       6.7002e+8 
           4370      7.93844e+8 
           4390      7.64167e+8 
           4410      7.80923e+8 
           4430      7.67323e+8 
           4450      7.57492e+8 
           4470      7.00482e+8 
           4490      7.32059e+8 
           4510      7.22802e+8 
           4530      7.11183e+8 
           4550      6.99595e+8 
           4570      6.88344e+8 
           4590       6.7753e+8 
           4610      6.66931e+8 
           4630      6.56455e+8 
           4650      6.44391e+8 
           4670      6.36085e+8 
           4690      6.25859e+8 
           4710      6.07071e+8 
           4730      6.07101e+8 
           4750      5.97457e+8 
           4770      5.89262e+8 
           4790      5.79475e+8 
           4810      5.68739e+8 
           4830      5.54269e+8 
           4850      4.97752e+8 
           4870      4.43176e+8 
           4890      5.26067e+8 
           4910      5.25588e+8 
           4930      5.03693e+8 
           4950      5.14022e+8 
           4970      5.07011e+8 
           4990      4.99565e+8 
           5010      4.84508e+8 
           5030       4.8507e+8 
           5050      4.74736e+8 
           5070      4.71276e+8 
           5090      4.64497e+8 
           5110      4.57853e+8 
           5130      4.51227e+8 
           5150      4.44803e+8 
           5170       4.3862e+8 
           5190      4.32462e+8 
           5210      4.26345e+8 
           5230      4.20432e+8 
           5250       4.1457e+8 
           5270      4.08798e+8 
           5290      4.03155e+8 
           5310      3.97585e+8 
           5330      3.92127e+8 
           5350      3.86739e+8 
           5370      3.81499e+8 
           5390        3.763e+8 
           5410       3.7118e+8 
           5430      3.66177e+8 
           5450      3.61249e+8 
           5470      3.56422e+8 
           5490      3.51655e+8 
           5510      3.46972e+8 
           5530      3.42373e+8 
           5550      3.37843e+8 
           5570      3.33381e+8 
           5590       3.2901e+8 
           5610      3.24693e+8 
           5630      3.20453e+8 
           5650      3.16253e+8 
           5670      3.12069e+8 
           5690      3.07948e+8 
           5710      3.04153e+8 
           5730      3.00244e+8 
           5750      2.96347e+8 
           5770      2.92644e+8 
           5790      2.88918e+8 
           5810      2.85258e+8 
           5830      2.81631e+8 
           5850      2.78101e+8 
           5870      2.64226e+8 
           5890      2.70145e+8 
           5910       2.6777e+8 
           5930      2.64424e+8 
           5950      2.61127e+8 
           5970      2.57954e+8 
           5990      2.54743e+8 
           6010      2.51632e+8 
           6030      2.48546e+8 
           6050      2.45526e+8 
           6070      2.42541e+8 
           6090        2.396e+8 
           6110      2.36702e+8 
           6130      2.33856e+8 
           6150      2.31013e+8 
           6170      2.28271e+8 
           6190      2.25549e+8 
           6210      2.22858e+8 
           6230      2.20216e+8 
           6250      2.17604e+8 
           6270      2.15039e+8 
           6290      2.12512e+8 
           6310      2.10013e+8 
           6330      2.07559e+8 
           6350      2.05114e+8 
           6370      2.02751e+8 
           6390      2.00405e+8 
           6410      1.98092e+8 
           6430      1.95814e+8 
           6450       1.9356e+8 
           6470      1.91304e+8 
           6490      1.89071e+8 
           6510      1.86382e+8 
           6530      1.83095e+8 
           6550        1.721e+8 
           6570      1.51879e+8 
           6590       1.7504e+8 
           6610      1.75784e+8 
           6630      1.74417e+8 
           6650      1.72833e+8 
           6670      1.68571e+8 
           6690      1.66748e+8 
           6710      1.67153e+8 
           6730      1.65296e+8 
           6750      1.63491e+8 
           6770      1.61697e+8 
           6790      1.59863e+8 
           6810       1.5817e+8 
           6830      1.56453e+8 
           6850      1.54754e+8 
           6870      1.53072e+8 
           6890      1.51415e+8 
           6910       1.4979e+8 
           6930      1.48182e+8 
           6950      1.46589e+8 
           6970      1.45028e+8 
           6990      1.43482e+8 
           7010      1.41959e+8 
           7030      1.40452e+8 
           7050      1.38966e+8 
           7070      1.35015e+8 
           7090      1.36053e+8 
           7110      1.34626e+8 
           7130      1.33219e+8 
           7150      1.31827e+8 
           7170      1.30447e+8 
           7190      1.29103e+8 
           7210      1.27772e+8 
           7230       1.2618e+8 
           7250       1.2514e+8 
           7270      1.23861e+8 
           7290      1.21467e+8 
           7310      1.21325e+8 
           7330      1.20103e+8 
           7350      1.18885e+8 
           7370      1.17679e+8 
           7390      1.16491e+8 
           7410      1.15314e+8 
           7430      1.14155e+8 
           7450      1.13021e+8 
           7470      1.11883e+8 
           7490      1.10776e+8 
           7510      1.09632e+8 
           7530      1.08579e+8 
           7550      1.07509e+8 
           7570      1.06442e+8 
           7590      1.05397e+8 
           7610      1.04356e+8 
           7630      1.03331e+8 
           7650      1.02322e+8 
           7670      1.01321e+8 
           7690      1.00336e+8 
           7710        9.936e+7 
           7730      9.83988e+7 
           7750      9.74463e+7 
           7770      9.64835e+7 
           7790       9.5579e+7 
           7810      9.46084e+7 
           7830      9.37508e+7 
           7850      9.29436e+7 
           7870      9.20582e+7 
           7890      9.11261e+7 
           7910      9.03227e+7 
           7930      8.94723e+7 
           7950      8.86114e+7 
           7970      8.76571e+7 
           7990       8.6853e+7 
           8010      8.59618e+7 
           8030      8.51427e+7 
           8050      8.43423e+7 
           8070      8.35603e+7 
           8090      8.27102e+7 
           8110      8.19992e+7 
           8130      8.13113e+7 
           8150      8.05043e+7 
           8170      7.98397e+7 
           8190      7.90178e+7 
           8210      7.81247e+7 
           8230      7.75841e+7 
           8250       7.6904e+7 
           8270       7.5877e+7 
           8290      7.54894e+7 
           8310      7.48482e+7 
           8330      7.41255e+7 
           8350      7.31278e+7 
           8370      7.27089e+7 
           8390      7.21646e+7 
           8410      7.15235e+7 
           8430        7.084e+7 
           8450      6.97347e+7 
           8470      6.96001e+7 
           8490      6.88231e+7 
           8510      6.83387e+7 
           8530      6.75733e+7 
           8550       6.6902e+7 
           8570      6.66927e+7 
           8590      6.48253e+7 
