# Kurucz ODFNEW /NOVER (2003)
# teff = 20000 K (value for the effective temperature for the model. Temperatures are given in K)
# logg = 4.5 log(cm/s2) (value for Log(G) for the model.)
# meta = -1.5  (value for the Metallicity for the model.)
# lh = 1.25  (l/Hp where l is the  mixing length of the convective element and Hp is the pressure scale height)
# vtur = 2 km/s (Microturbulence velocity)
# alpha = 0.4  (Alpha)
#
# column 1: WAVELENGTH (ANGSTROM), Wavelength in Angstrom
# column 2: FLUX (ERG/CM2/S/A), Flux in erg/cm2/s/A
          147.2     2.39483e-20 
            151     1.53715e-19 
          155.2     1.08217e-18 
          158.8     5.31419e-18 
            162     2.06538e-17 
            166     1.04943e-16 
          170.3     5.54571e-16 
          173.4     1.75212e-15 
          176.8     5.91436e-15 
          180.2      1.9094e-14 
          181.7     3.15865e-14 
          186.1     1.32273e-13 
            191     6.04021e-13 
          193.9     1.43078e-12 
          198.4     5.19778e-12 
          201.8     1.32862e-11 
            205     3.12768e-11 
          210.5     1.28067e-10 
          216.2     5.12733e-10 
          219.8       1.1873e-9 
            223      2.44625e-9 
          226.8      5.62477e-9 
            230      1.77568e-8 
            234      4.37715e-8 
            240      1.41208e-7 
          246.5      4.67348e-7 
          252.4      1.31483e-6 
          256.8      2.72666e-6 
            260      4.63561e-6 
            264        8.735e-6 
          268.5      1.73873e-5 
          273.5      3.63478e-5 
          278.5      7.40614e-5 
            284     0.000157192 
            290     0.000345274 
            296     0.000733026 
            301      0.00134224 
            308      0.00300513 
            318      0.00904234 
            328       0.0252065 
            338       0.0659649 
            348        0.162884 
            357        0.350957 
            366        0.727186 
            375         1.45012 
            385         3.00011 
            395          5.9632 
            405         11.4331 
            414         19.9588 
            422         32.0407 
            430         50.4418 
            441         91.5862 
            451         153.156 
            460         238.198 
            470         380.788 
            480         595.703 
            490         913.596 
            500         1374.52 
            506         11890.9 
            512         34045.1 
            520         44083.2 
            530         64454.4 
            540         75604.3 
            550          110822 
            560          140829 
            570          180271 
            580          194211 
            590          267011 
            600          343964 
            610          424709 
            620          511074 
            630          619862 
            640          730042 
            650          876393 
            658      1.00951e+6 
            665      1.12425e+6 
            675      1.30302e+6 
            685       1.5176e+6 
            695      1.78762e+6 
            705      2.05372e+6 
            716      2.38748e+6 
            726      2.72157e+6 
            735      3.07402e+6 
            745      3.49854e+6 
            755       3.9609e+6 
            765      4.44009e+6 
            775      5.00453e+6 
            785      5.59569e+6 
            795      6.21341e+6 
            805      6.90702e+6 
            815      7.62789e+6 
            825      8.43708e+6 
            835        9.158e+6 
            845       1.0145e+7 
            855      1.10629e+7 
            865      1.21378e+7 
            875      1.32018e+7 
            885      1.44107e+7 
            895       1.5618e+7 
            905      1.66391e+7 
            915      2.66488e+7 
            925      9.89877e+7 
            935      2.97117e+8 
            945      1.69359e+9 
            955      4.54252e+9 
            965      6.58531e+9 
            975      1.71949e+9 
            985     1.09304e+10 
            995     1.17156e+10 
           1005     1.21349e+10 
           1015      8.79965e+9 
           1025      9.54566e+8 
           1035      6.78111e+9 
           1045     1.23793e+10 
           1055     1.25408e+10 
           1065     1.13186e+10 
           1075     1.21864e+10 
           1085      1.1333e+10 
           1095     1.19888e+10 
           1105     1.10372e+10 
           1115     1.09204e+10 
           1125     1.03325e+10 
           1135     1.08104e+10 
           1145      9.98357e+9 
           1155     1.03441e+10 
           1165     1.03016e+10 
           1175      8.95555e+9 
           1185      9.79822e+9 
           1195      8.06419e+9 
           1205      5.05826e+9 
           1215      7.79119e+8 
           1225       4.6577e+9 
           1235      7.99512e+9 
           1245      8.54481e+9 
           1255      8.34747e+9 
           1265      8.15104e+9 
           1275      8.35786e+9 
           1285      8.23193e+9 
           1295      7.13574e+9 
           1305      6.87394e+9 
           1315      7.77173e+9 
           1325      7.48448e+9 
           1335      7.15421e+9 
           1345      7.24939e+9 
           1355      7.18403e+9 
           1365      6.92953e+9 
           1375      6.84524e+9 
           1385       6.7984e+9 
           1395       6.3989e+9 
           1405      6.42665e+9 
           1415      6.39766e+9 
           1425      6.31152e+9 
           1435       6.2396e+9 
           1442      6.23334e+9 
           1447      6.16298e+9 
           1455      6.04735e+9 
           1465      5.91119e+9 
           1475      5.80741e+9 
           1485      5.65891e+9 
           1495      5.58683e+9 
           1505      5.39291e+9 
           1512      5.28838e+9 
           1517      5.32184e+9 
           1525      5.22485e+9 
           1535      5.01629e+9 
           1545      5.05683e+9 
           1555      4.87702e+9 
           1565      4.84735e+9 
           1575      4.85843e+9 
           1585      4.77903e+9 
           1595      4.74417e+9 
           1605      4.59442e+9 
           1615      4.52513e+9 
           1625      4.47232e+9 
           1635      4.43596e+9 
           1645      4.35824e+9 
           1655      4.24632e+9 
           1665      4.27605e+9 
           1672      4.13278e+9 
           1677      4.19243e+9 
           1685      4.15033e+9 
           1695      4.05613e+9 
           1705      3.95388e+9 
           1715      3.84937e+9 
           1725      3.79803e+9 
           1735      3.78841e+9 
           1745      3.71542e+9 
           1755      3.70427e+9 
           1765      3.51972e+9 
           1775      3.55706e+9 
           1785      3.50643e+9 
           1795      3.50033e+9 
           1805      3.44257e+9 
           1815      3.36312e+9 
           1825      3.34853e+9 
           1835      3.28886e+9 
           1845      3.16621e+9 
           1855       3.0887e+9 
           1865      3.07094e+9 
           1875       3.0927e+9 
           1885      2.96816e+9 
           1895      2.87596e+9 
           1905      2.93378e+9 
           1915      2.84014e+9 
           1925      2.79343e+9 
           1935      2.79562e+9 
           1945      2.79593e+9 
           1955      2.68598e+9 
           1967      2.71728e+9 
           1976      2.72172e+9 
           1984      2.64239e+9 
           1995      2.56846e+9 
           2005      2.58545e+9 
           2015      2.56412e+9 
           2025      2.55769e+9 
           2035      2.49559e+9 
           2045      2.46512e+9 
           2055      2.38347e+9 
           2065      2.38765e+9 
           2074      2.39185e+9 
           2078      2.35037e+9 
           2085      2.35004e+9 
           2095      2.29392e+9 
           2105      2.29412e+9 
           2115      2.27231e+9 
           2125       2.2614e+9 
           2135      2.22605e+9 
           2145       2.1888e+9 
           2155      2.17413e+9 
           2165      2.14059e+9 
           2175      2.11387e+9 
           2185      2.09133e+9 
           2195       2.0738e+9 
           2205      2.04201e+9 
           2215       2.0131e+9 
           2225      1.98188e+9 
           2235      1.96992e+9 
           2245      1.94725e+9 
           2255      1.91764e+9 
           2265      1.90266e+9 
           2275      1.87781e+9 
           2285      1.86185e+9 
           2295      1.82477e+9 
           2305      1.81259e+9 
           2315      1.78761e+9 
           2325      1.77088e+9 
           2335      1.73425e+9 
           2345      1.69921e+9 
           2355      1.70322e+9 
           2365      1.66884e+9 
           2375      1.65983e+9 
           2385      1.62793e+9 
           2395      1.61961e+9 
           2405      1.59953e+9 
           2415      1.57933e+9 
           2425      1.57684e+9 
           2435      1.55146e+9 
           2445      1.53596e+9 
           2455       1.5261e+9 
           2465      1.50178e+9 
           2475      1.48887e+9 
           2485       1.4741e+9 
           2495      1.44113e+9 
           2505      1.44273e+9 
           2513      1.41787e+9 
           2518      1.42074e+9 
           2525       1.4039e+9 
           2535      1.38182e+9 
           2545      1.36842e+9 
           2555      1.36772e+9 
           2565      1.34654e+9 
           2575      1.34064e+9 
           2585      1.32578e+9 
           2595      1.31072e+9 
           2605      1.30106e+9 
           2615      1.28904e+9 
           2625      1.27705e+9 
           2635      1.26178e+9 
           2645      1.25948e+9 
           2655      1.24477e+9 
           2665      1.22558e+9 
           2675      1.21564e+9 
           2685      1.20995e+9 
           2695      1.18802e+9 
           2705      1.18461e+9 
           2715      1.17053e+9 
           2725      1.14927e+9 
           2735      1.14834e+9 
           2745      1.12198e+9 
           2755        1.114e+9 
           2765       1.1031e+9 
           2775      1.10427e+9 
           2785      1.09164e+9 
           2795      1.05423e+9 
           2805      1.06176e+9 
           2815      1.06165e+9 
           2825      1.04046e+9 
           2835      1.02915e+9 
           2845      1.02844e+9 
           2855      1.01963e+9 
           2865      1.01078e+9 
           2875       1.0003e+9 
           2885      9.91066e+8 
           2895      9.81714e+8 
           2910      9.67616e+8 
           2930      9.46464e+8 
           2950      9.24497e+8 
           2970      9.13839e+8 
           2990      8.95965e+8 
           3010       8.8019e+8 
           3030      8.64218e+8 
           3050      8.48264e+8 
           3070      8.32771e+8 
           3090       8.1733e+8 
           3110      8.02684e+8 
           3130      7.89075e+8 
           3150       7.7491e+8 
           3170      7.61002e+8 
           3190      7.41716e+8 
           3210      7.34038e+8 
           3230      7.21184e+8 
           3250      7.08697e+8 
           3270       6.9706e+8 
           3290      6.84365e+8 
           3310      6.73368e+8 
           3330      6.61873e+8 
           3350      6.49797e+8 
           3370      6.39653e+8 
           3390      6.28981e+8 
           3410      6.18481e+8 
           3430      6.06743e+8 
           3450      5.95329e+8 
           3470      5.86672e+8 
           3490      5.77059e+8 
           3510        5.683e+8 
           3530      5.59793e+8 
           3550      5.50723e+8 
           3570      5.43949e+8 
           3590       5.3276e+8 
           3610      5.25399e+8 
           3630      5.15995e+8 
           3640      5.14415e+8 
           3650      5.08461e+8 
           3670      5.02515e+8 
           3690      4.92987e+8 
           3710      4.76574e+8 
           3730      4.55528e+8 
           3750      4.82401e+8 
           3770       4.8721e+8 
           3790      5.30942e+8 
           3810      5.66621e+8 
           3830      4.80385e+8 
           3850      5.96464e+8 
           3870      6.19418e+8 
           3890      4.47681e+8 
           3910      6.12847e+8 
           3930      6.14016e+8 
           3950      5.95668e+8 
           3970      4.19231e+8 
           3990      5.68262e+8 
           4010      5.78281e+8 
           4030      5.38897e+8 
           4050      5.68407e+8 
           4070      5.53806e+8 
           4090      4.83205e+8 
           4110      4.07415e+8 
           4130      5.16076e+8 
           4150      5.17698e+8 
           4170      5.15192e+8 
           4190      5.09406e+8 
           4210      5.01453e+8 
           4230      4.93332e+8 
           4250      4.85259e+8 
           4270      4.75434e+8 
           4290      4.67777e+8 
           4310      4.54989e+8 
           4330      3.88406e+8 
           4350      3.48668e+8 
           4370      4.31435e+8 
           4390      4.17016e+8 
           4410      4.26395e+8 
           4430      4.18676e+8 
           4450      4.14179e+8 
           4470      3.84952e+8 
           4490      3.99619e+8 
           4510      3.96046e+8 
           4530      3.89913e+8 
           4550      3.83999e+8 
           4570      3.78264e+8 
           4590      3.72686e+8 
           4610      3.67155e+8 
           4630       3.6167e+8 
           4650      3.56074e+8 
           4670      3.51096e+8 
           4690      3.46053e+8 
           4710      3.35937e+8 
           4730      3.35678e+8 
           4750      3.30587e+8 
           4770      3.26397e+8 
           4790      3.21049e+8 
           4810       3.1521e+8 
           4830      3.07034e+8 
           4850      2.69448e+8 
           4870      2.35646e+8 
           4890      2.91668e+8 
           4910      2.92656e+8 
           4930      2.81777e+8 
           4950      2.86839e+8 
           4970      2.83055e+8 
           4990      2.79096e+8 
           5010      2.71244e+8 
           5030       2.7137e+8 
           5050      2.65221e+8 
           5070        2.641e+8 
           5090      2.60487e+8 
           5110      2.56923e+8 
           5130      2.53449e+8 
           5150      2.50021e+8 
           5170      2.46709e+8 
           5190      2.43399e+8 
           5210      2.39841e+8 
           5230      2.36977e+8 
           5250      2.33835e+8 
           5270      2.30735e+8 
           5290      2.27728e+8 
           5310      2.24733e+8 
           5330      2.21763e+8 
           5350      2.18792e+8 
           5370      2.16081e+8 
           5390      2.13274e+8 
           5410      2.10516e+8 
           5430      2.07691e+8 
           5450      2.05104e+8 
           5470      2.02486e+8 
           5490      1.99976e+8 
           5510       1.9741e+8 
           5530      1.94925e+8 
           5550      1.92483e+8 
           5570      1.90059e+8 
           5590      1.87689e+8 
           5610        1.853e+8 
           5630      1.83058e+8 
           5650      1.80596e+8 
           5670      1.78434e+8 
           5690      1.76309e+8 
           5710      1.74187e+8 
           5730      1.72055e+8 
           5750      1.69948e+8 
           5770      1.67901e+8 
           5790      1.65867e+8 
           5810      1.63845e+8 
           5830       1.6188e+8 
           5850      1.59939e+8 
           5870      1.52925e+8 
           5890      1.55786e+8 
           5910      1.54281e+8 
           5930       1.5246e+8 
           5950      1.50596e+8 
           5970       1.4888e+8 
           5990       1.4709e+8 
           6010      1.45414e+8 
           6030      1.43705e+8 
           6050      1.42036e+8 
           6070      1.40386e+8 
           6090      1.38754e+8 
           6110      1.37171e+8 
           6130      1.35596e+8 
           6150      1.33998e+8 
           6170      1.32507e+8 
           6190      1.30994e+8 
           6210      1.29507e+8 
           6230      1.28036e+8 
           6250      1.26571e+8 
           6270      1.25171e+8 
           6290      1.23757e+8 
           6310      1.22359e+8 
           6330      1.21014e+8 
           6350      1.19449e+8 
           6370      1.18217e+8 
           6390      1.17017e+8 
           6410       1.1572e+8 
           6430      1.14463e+8 
           6450      1.13202e+8 
           6470      1.11954e+8 
           6490      1.10622e+8 
           6510      1.09098e+8 
           6530      1.07079e+8 
           6550      9.94982e+7 
           6570      8.68116e+7 
           6590      1.02328e+8 
           6610      1.03132e+8 
           6630      1.02382e+8 
           6650       1.0158e+8 
           6670      9.94644e+7 
           6690      9.84413e+7 
           6710      9.83993e+7 
           6730      9.73661e+7 
           6750      9.63352e+7 
           6770      9.53313e+7 
           6790      9.43211e+7 
           6810      9.33454e+7 
           6830      9.23635e+7 
           6850      9.14154e+7 
           6870      9.04689e+7 
           6890      8.95318e+7 
           6910       8.8604e+7 
           6930      8.76854e+7 
           6950      8.67993e+7 
           6970      8.59141e+7 
           6990      8.50377e+7 
           7010      8.41698e+7 
           7030       8.3318e+7 
           7050       8.2467e+7 
           7070       8.0456e+7 
           7090      8.08196e+7 
           7110      8.00079e+7 
           7130      7.92114e+7 
           7150      7.84151e+7 
           7170      7.76339e+7 
           7190      7.68673e+7 
           7210      7.61081e+7 
           7230      7.52696e+7 
           7250      7.46112e+7 
           7270      7.38805e+7 
           7290      7.26605e+7 
           7310      7.24326e+7 
           7330      7.17294e+7 
           7350      7.10327e+7 
           7370      7.03426e+7 
           7390      6.96657e+7 
           7410      6.89883e+7 
           7430      6.83171e+7 
           7450      6.76738e+7 
           7470      6.70223e+7 
           7490      6.63835e+7 
           7510      6.57358e+7 
           7530      6.51247e+7 
           7550      6.45071e+7 
           7570      6.38959e+7 
           7590      6.32915e+7 
           7610      6.26958e+7 
           7630      6.21061e+7 
           7650      6.15236e+7 
           7670      6.09477e+7 
           7690      6.03788e+7 
           7710      5.98162e+7 
           7730      5.92606e+7 
           7750      5.87111e+7 
           7770      5.80736e+7 
           7790      5.76324e+7 
           7810      5.70825e+7 
           7830       5.6578e+7 
           7850      5.60767e+7 
           7870      5.55652e+7 
           7890      5.50345e+7 
           7910      5.45759e+7 
           7930      5.40811e+7 
           7950      5.35745e+7 
           7970       5.3086e+7 
           7990      5.25951e+7 
           8010      5.21549e+7 
           8030      5.16868e+7 
           8050      5.12158e+7 
           8070      5.07632e+7 
           8090      5.02639e+7 
           8110      4.98307e+7 
           8130      4.94063e+7 
           8150      4.89321e+7 
           8170      4.85461e+7 
           8190      4.80835e+7 
           8210      4.75695e+7 
           8230      4.72324e+7 
           8250      4.68537e+7 
           8270      4.63144e+7 
           8290      4.60403e+7 
           8310      4.56618e+7 
           8330      4.52593e+7 
           8350      4.47326e+7 
           8370      4.44432e+7 
           8390      4.41128e+7 
           8410      4.37157e+7 
           8430      4.33029e+7 
           8450      4.27262e+7 
           8470      4.24774e+7 
           8490      4.21003e+7 
           8510      4.15988e+7 
           8530      4.14107e+7 
           8550       4.0404e+7 
           8570      4.10948e+7 
