# Kurucz ODFNEW /NOVER (2003)
# teff = 20000 K (value for the effective temperature for the model. Temperatures are given in K)
# logg = 3.5 log(cm/s2) (value for Log(G) for the model.)
# meta = -1  (value for the Metallicity for the model.)
# lh = 1.25  (l/Hp where l is the  mixing length of the convective element and Hp is the pressure scale height)
# vtur = 2 km/s (Microturbulence velocity)
# alpha = 0.4  (Alpha)
#
# column 1: WAVELENGTH (ANGSTROM), Wavelength in Angstrom
# column 2: FLUX (ERG/CM2/S/A), Flux in erg/cm2/s/A
          147.2     3.65605e-20 
            151     2.27597e-19 
          155.2     1.55578e-18 
          158.8     7.49352e-18 
            162     2.87141e-17 
            166     1.43823e-16 
          170.3     7.51014e-16 
          173.4     2.35829e-15 
          176.8     7.91936e-15 
          180.2     2.54714e-14 
          181.7     4.20845e-14 
          186.1     1.75773e-13 
            191     8.02098e-13 
          193.9     1.90202e-12 
          198.4     6.92234e-12 
          201.8     1.77082e-11 
            205      4.1698e-11 
          210.5     1.71198e-10 
          216.2     6.86863e-10 
          219.8       1.5924e-9 
            223      3.28685e-9 
          226.8      7.56927e-9 
            230       6.6204e-8 
            234      1.69864e-7 
            240      5.20514e-7 
          246.5      1.63948e-6 
          252.4      4.44684e-6 
          256.8      8.85522e-6 
            260      1.48914e-5 
            264      2.73315e-5 
          268.5      5.28628e-5 
          273.5     0.000107108 
          278.5      0.00021213 
            284      0.00043767 
            290     0.000931073 
            296       0.0019165 
            301      0.00342479 
            308      0.00735993 
            318       0.0214618 
            328       0.0572147 
            338        0.145107 
            348        0.346387 
            357        0.732064 
            366         1.48444 
            375         2.87533 
            385         5.79994 
            395         11.2288 
            405         21.0335 
            414         36.0671 
            422         56.7832 
            430         87.7684 
            441          156.45 
            451         257.486 
            460         394.124 
            470         620.521 
            480         955.722 
            490         1445.94 
            500         2147.66 
            506         20834.9 
            512         70241.6 
            520         90706.2 
            530          133239 
            540          151066 
            550          229462 
            560          286007 
            570          367639 
            580          376528 
            590          522811 
            600          677558 
            610          842068 
            620          997588 
            630      1.19986e+6 
            640      1.37043e+6 
            650      1.58057e+6 
            658      1.90634e+6 
            665      2.09592e+6 
            675      2.36774e+6 
            685      2.72263e+6 
            695      3.25328e+6 
            705      3.67554e+6 
            716      4.27379e+6 
            726      4.77827e+6 
            735      5.34845e+6 
            745      6.12677e+6 
            755      6.89451e+6 
            765      7.69713e+6 
            775      8.64133e+6 
            785      9.62571e+6 
            795      1.05456e+7 
            805      1.16369e+7 
            815      1.26899e+7 
            825      1.40574e+7 
            835      1.49098e+7 
            845      1.65032e+7 
            855      1.79128e+7 
            865       1.9581e+7 
            875      2.13542e+7 
            885      2.33043e+7 
            895      2.51211e+7 
            905      2.63606e+7 
            915      4.62393e+7 
            925      3.58437e+8 
            935      1.40556e+9 
            945      4.34471e+9 
            955      6.34061e+9 
            965      8.12786e+9 
            975      2.00899e+9 
            985      9.03941e+9 
            995       8.5679e+9 
           1005      9.30984e+9 
           1015      8.70311e+9 
           1025      2.72497e+9 
           1035       6.6742e+9 
           1045     1.03388e+10 
           1055      9.82352e+9 
           1065      8.51293e+9 
           1075      9.61298e+9 
           1085      8.78697e+9 
           1095      9.67537e+9 
           1105      8.63498e+9 
           1115      8.44988e+9 
           1125        7.883e+9 
           1135      9.06449e+9 
           1145      8.27237e+9 
           1155      8.66574e+9 
           1165      8.79963e+9 
           1175      7.07712e+9 
           1185      8.64595e+9 
           1195      7.16829e+9 
           1205      4.44647e+9 
           1215      1.99131e+9 
           1225      6.15169e+9 
           1235      7.72194e+9 
           1245       7.9423e+9 
           1255      7.69042e+9 
           1265      7.43159e+9 
           1275      7.71755e+9 
           1285      7.57805e+9 
           1295      5.70971e+9 
           1305      5.71368e+9 
           1315      7.27697e+9 
           1325       6.9521e+9 
           1335      6.55557e+9 
           1345      6.78499e+9 
           1355      6.77016e+9 
           1365      6.39433e+9 
           1375       6.3166e+9 
           1385      6.34336e+9 
           1395       5.5413e+9 
           1405      5.77377e+9 
           1415      5.93894e+9 
           1425       5.8787e+9 
           1435      5.91724e+9 
           1442      5.99563e+9 
           1447      5.89544e+9 
           1455      5.77598e+9 
           1465      5.57891e+9 
           1475      5.50421e+9 
           1485      5.37344e+9 
           1495      5.30786e+9 
           1505      5.04063e+9 
           1512      4.76287e+9 
           1517      4.88213e+9 
           1525      4.89746e+9 
           1535      4.54127e+9 
           1545      4.63418e+9 
           1555      4.41367e+9 
           1565       4.5088e+9 
           1575      4.61575e+9 
           1585      4.54299e+9 
           1595      4.55788e+9 
           1605      4.43179e+9 
           1615      4.37275e+9 
           1625      4.30811e+9 
           1635         4.37e+9 
           1645      4.30562e+9 
           1655       4.1858e+9 
           1665      4.26817e+9 
           1672      4.13049e+9 
           1677      4.22793e+9 
           1685      4.18403e+9 
           1695      4.04722e+9 
           1705      3.90644e+9 
           1715      3.75932e+9 
           1725      3.72612e+9 
           1735      3.76701e+9 
           1745      3.68957e+9 
           1755       3.7203e+9 
           1765      3.53205e+9 
           1775      3.51676e+9 
           1785      3.49497e+9 
           1795      3.54476e+9 
           1805      3.51403e+9 
           1815      3.32641e+9 
           1825       3.3802e+9 
           1835      3.29848e+9 
           1845      3.09095e+9 
           1855      3.03461e+9 
           1865      3.06054e+9 
           1875      3.14114e+9 
           1885      2.91313e+9 
           1895      2.75836e+9 
           1905      2.91063e+9 
           1915      2.79052e+9 
           1925       2.7124e+9 
           1935      2.78475e+9 
           1945      2.80668e+9 
           1955      2.62861e+9 
           1967      2.74834e+9 
           1976      2.81907e+9 
           1984      2.66574e+9 
           1995        2.598e+9 
           2005      2.63681e+9 
           2015      2.61998e+9 
           2025      2.66463e+9 
           2035      2.52325e+9 
           2045      2.51746e+9 
           2055      2.43771e+9 
           2065      2.46584e+9 
           2074      2.51569e+9 
           2078      2.40333e+9 
           2085      2.43523e+9 
           2095      2.34079e+9 
           2105      2.37412e+9 
           2115      2.35678e+9 
           2125       2.3817e+9 
           2135      2.33357e+9 
           2145      2.25512e+9 
           2155      2.29273e+9 
           2165      2.26316e+9 
           2175      2.23236e+9 
           2185      2.20014e+9 
           2195      2.19812e+9 
           2205      2.16452e+9 
           2215       2.1345e+9 
           2225      2.08918e+9 
           2235      2.08048e+9 
           2245       2.0711e+9 
           2255      2.02455e+9 
           2265      2.02698e+9 
           2275      2.00097e+9 
           2285      1.99266e+9 
           2295      1.93142e+9 
           2305      1.93618e+9 
           2315      1.89889e+9 
           2325      1.88169e+9 
           2335      1.82822e+9 
           2345      1.80348e+9 
           2355      1.81537e+9 
           2365      1.77735e+9 
           2375      1.76502e+9 
           2385      1.73628e+9 
           2395      1.73304e+9 
           2405      1.70609e+9 
           2415      1.68152e+9 
           2425      1.68799e+9 
           2435       1.6516e+9 
           2445      1.64284e+9 
           2455      1.63693e+9 
           2465      1.60681e+9 
           2475      1.59262e+9 
           2485      1.57873e+9 
           2495       1.5247e+9 
           2505      1.54582e+9 
           2513      1.50061e+9 
           2518      1.51932e+9 
           2525      1.49909e+9 
           2535      1.47626e+9 
           2545      1.44834e+9 
           2555      1.46375e+9 
           2565      1.43707e+9 
           2575      1.44024e+9 
           2585      1.42625e+9 
           2595       1.4117e+9 
           2605       1.4046e+9 
           2615      1.39068e+9 
           2625      1.37606e+9 
           2635      1.35869e+9 
           2645      1.36152e+9 
           2655      1.34727e+9 
           2665      1.32297e+9 
           2675       1.3172e+9 
           2685      1.31101e+9 
           2695      1.28424e+9 
           2705      1.28145e+9 
           2715       1.2662e+9 
           2725      1.24364e+9 
           2735      1.24398e+9 
           2745      1.20948e+9 
           2755      1.20389e+9 
           2765      1.19382e+9 
           2775      1.19766e+9 
           2785      1.18242e+9 
           2795      1.14099e+9 
           2805      1.15221e+9 
           2815      1.15169e+9 
           2825      1.13057e+9 
           2835      1.10897e+9 
           2845      1.11366e+9 
           2855      1.10481e+9 
           2865      1.09734e+9 
           2875       1.0853e+9 
           2885      1.07589e+9 
           2895      1.06546e+9 
           2910      1.04965e+9 
           2930      1.02594e+9 
           2950      1.00328e+9 
           2970      9.91782e+8 
           2990      9.70721e+8 
           3010      9.53996e+8 
           3030      9.38695e+8 
           3050      9.21241e+8 
           3070       9.0452e+8 
           3090      8.85273e+8 
           3110      8.71314e+8 
           3130      8.56677e+8 
           3150      8.41201e+8 
           3170      8.25671e+8 
           3190      8.04577e+8 
           3210       7.9663e+8 
           3230      7.82534e+8 
           3250      7.69117e+8 
           3270      7.56566e+8 
           3290      7.42488e+8 
           3310      7.30964e+8 
           3330      7.18337e+8 
           3350      7.04817e+8 
           3370      6.93988e+8 
           3390      6.82382e+8 
           3410      6.70999e+8 
           3430      6.56985e+8 
           3450      6.43945e+8 
           3470      6.34979e+8 
           3490      6.24691e+8 
           3510      6.17379e+8 
           3530      6.07924e+8 
           3550      5.98223e+8 
           3570        5.908e+8 
           3590      5.78214e+8 
           3610      5.69426e+8 
           3630      5.59995e+8 
           3640        5.586e+8 
           3650      5.50001e+8 
           3670      5.43379e+8 
           3690      5.27102e+8 
           3710      5.18533e+8 
           3730      5.12987e+8 
           3750      5.72388e+8 
           3770      5.80193e+8 
           3790      6.09912e+8 
           3810      6.37524e+8 
           3830      5.56764e+8 
           3850       6.5365e+8 
           3870        6.532e+8 
           3890      5.30336e+8 
           3910      6.44832e+8 
           3930      6.28041e+8 
           3950       6.2416e+8 
           3970       4.9333e+8 
           3990      6.00468e+8 
           4010      5.94868e+8 
           4030      5.64413e+8 
           4050      5.81499e+8 
           4070      5.67247e+8 
           4090      5.30634e+8 
           4110      4.63349e+8 
           4130      5.33083e+8 
           4150      5.29466e+8 
           4170       5.2505e+8 
           4190      5.18998e+8 
           4210      5.11634e+8 
           4230      5.03165e+8 
           4250       4.9454e+8 
           4270      4.83327e+8 
           4290      4.78708e+8 
           4310      4.69246e+8 
           4330      4.30441e+8 
           4350      3.91512e+8 
           4370      4.47059e+8 
           4390      4.32986e+8 
           4410        4.361e+8 
           4430      4.28159e+8 
           4450        4.239e+8 
           4470      4.02185e+8 
           4490      4.08981e+8 
           4510      4.05473e+8 
           4530       3.9889e+8 
           4550       3.9277e+8 
           4570      3.86941e+8 
           4590       3.8152e+8 
           4610      3.75859e+8 
           4630      3.70299e+8 
           4650      3.63636e+8 
           4670      3.59543e+8 
           4690      3.54959e+8 
           4710      3.44258e+8 
           4730      3.43374e+8 
           4750      3.38101e+8 
           4770      3.35139e+8 
           4790      3.30228e+8 
           4810      3.24719e+8 
           4830      3.18935e+8 
           4850      2.97748e+8 
           4870      2.65445e+8 
           4890      3.05406e+8 
           4910      3.02657e+8 
           4930      2.92519e+8 
           4950      2.94849e+8 
           4970      2.91093e+8 
           4990      2.86964e+8 
           5010      2.78779e+8 
           5030      2.78993e+8 
           5050      2.72312e+8 
           5070      2.71721e+8 
           5090       2.6799e+8 
           5110      2.64266e+8 
           5130      2.60578e+8 
           5150      2.57109e+8 
           5170      2.53982e+8 
           5190      2.50602e+8 
           5210      2.46392e+8 
           5230      2.44084e+8 
           5250      2.40874e+8 
           5270      2.37666e+8 
           5290      2.34661e+8 
           5310      2.31587e+8 
           5330       2.2846e+8 
           5350      2.25255e+8 
           5370      2.22757e+8 
           5390      2.19888e+8 
           5410      2.17042e+8 
           5430        2.139e+8 
           5450      2.11382e+8 
           5470      2.08706e+8 
           5490      2.06263e+8 
           5510      2.03614e+8 
           5530      2.01036e+8 
           5550      1.98586e+8 
           5570      1.96058e+8 
           5590      1.93693e+8 
           5610      1.91129e+8 
           5630      1.88966e+8 
           5650      1.86013e+8 
           5670      1.83895e+8 
           5690      1.81813e+8 
           5710      1.79814e+8 
           5730      1.77654e+8 
           5750      1.75429e+8 
           5770      1.73412e+8 
           5790      1.71317e+8 
           5810      1.69246e+8 
           5830      1.67201e+8 
           5850      1.65234e+8 
           5870      1.58916e+8 
           5890      1.60966e+8 
           5910      1.59393e+8 
           5930      1.57517e+8 
           5950      1.55523e+8 
           5970       1.5387e+8 
           5990      1.51972e+8 
           6010      1.50316e+8 
           6030      1.48554e+8 
           6050      1.46853e+8 
           6070       1.4515e+8 
           6090      1.43457e+8 
           6110      1.41843e+8 
           6130      1.40227e+8 
           6150       1.3848e+8 
           6170       1.3703e+8 
           6190      1.35497e+8 
           6210      1.33961e+8 
           6230      1.32452e+8 
           6250      1.30902e+8 
           6270      1.29483e+8 
           6290      1.28023e+8 
           6310      1.26541e+8 
           6330      1.25207e+8 
           6350      1.23457e+8 
           6370      1.22238e+8 
           6390      1.21077e+8 
           6410      1.19726e+8 
           6430      1.18473e+8 
           6450      1.17159e+8 
           6470      1.15851e+8 
           6490      1.14611e+8 
           6510      1.13347e+8 
           6530      1.11744e+8 
           6550      1.07348e+8 
           6570      9.53324e+7 
           6590      1.07385e+8 
           6610      1.07305e+8 
           6630      1.06273e+8 
           6650      1.05218e+8 
           6670      1.03233e+8 
           6690       1.0217e+8 
           6710      1.01914e+8 
           6730      1.00843e+8 
           6750      9.97997e+7 
           6770      9.87506e+7 
           6790      9.76304e+7 
           6810      9.66923e+7 
           6830      9.56826e+7 
           6850      9.47072e+7 
           6870      9.37336e+7 
           6890      9.27616e+7 
           6910      9.18073e+7 
           6930      9.08467e+7 
           6950      8.99424e+7 
           6970      8.90315e+7 
           6990      8.81064e+7 
           7010       8.7221e+7 
           7030      8.63367e+7 
           7050       8.5461e+7 
           7070      8.33502e+7 
           7090      8.37724e+7 
           7110      8.29292e+7 
           7130      8.21015e+7 
           7150      8.12744e+7 
           7170      8.04552e+7 
           7190      7.96803e+7 
           7210       7.8891e+7 
           7230      7.77128e+7 
           7250      7.73276e+7 
           7270      7.65891e+7 
           7290      7.52692e+7 
           7310      7.50905e+7 
           7330      7.43658e+7 
           7350      7.36478e+7 
           7370      7.29365e+7 
           7390      7.22319e+7 
           7410      7.15337e+7 
           7430      7.08284e+7 
           7450      7.01703e+7 
           7470      6.94845e+7 
           7490      6.88319e+7 
           7510      6.81585e+7 
           7530      6.75378e+7 
           7550      6.68963e+7 
           7570      6.62672e+7 
           7590      6.56372e+7 
           7610       6.5022e+7 
           7630      6.44143e+7 
           7650      6.38108e+7 
           7670      6.32153e+7 
           7690       6.2625e+7 
           7710      6.20426e+7 
           7730       6.1466e+7 
           7750      6.08945e+7 
           7770       6.0139e+7 
           7790      5.97822e+7 
           7810      5.91886e+7 
           7830        5.869e+7 
           7850      5.81731e+7 
           7870      5.76411e+7 
           7890      5.70437e+7 
           7910      5.66376e+7 
           7930      5.61078e+7 
           7950      5.54778e+7 
           7970      5.49577e+7 
           7990      5.44339e+7 
           8010      5.39798e+7 
           8030      5.35208e+7 
           8050      5.30709e+7 
           8070      5.26213e+7 
           8090      5.20615e+7 
           8110      5.16464e+7 
           8130      5.12576e+7 
           8150      5.07136e+7 
           8170      5.03742e+7 
           8190      4.98645e+7 
           8210      4.92692e+7 
           8230      4.89638e+7 
           8250      4.85867e+7 
           8270       4.7924e+7 
           8290      4.76908e+7 
           8310      4.72891e+7 
           8330      4.68799e+7 
           8350      4.62606e+7 
           8370      4.59484e+7 
           8390       4.5614e+7 
           8410      4.51816e+7 
           8430      4.47225e+7 
           8450      4.40679e+7 
           8470      4.36867e+7 
           8490       4.3685e+7 
           8510      4.26965e+7 
           8530      4.31861e+7 
           8550      4.12219e+7 
           8570      4.31917e+7 
