# Kurucz ODFNEW /NOVER (2003)
# teff = 18000 K (value for the effective temperature for the model. Temperatures are given in K)
# logg = 4.5 log(cm/s2) (value for Log(G) for the model.)
# meta = -0.5  (value for the Metallicity for the model.)
# lh = 1.25  (l/Hp where l is the  mixing length of the convective element and Hp is the pressure scale height)
# vtur = 2 km/s (Microturbulence velocity)
# alpha = 0  (Alpha)
#
# column 1: WAVELENGTH (ANGSTROM), Wavelength in Angstrom
# column 2: FLUX (ERG/CM2/S/A), Flux in erg/cm2/s/A
          147.2     1.24253e-22 
            151     1.03941e-21 
          155.2     8.45126e-21 
          158.8     4.62429e-20 
            162     1.96561e-19 
            166     1.10994e-18 
          170.3      6.5202e-18 
          173.4     2.21307e-17 
          176.8        8.05e-17 
          180.2     2.79031e-16 
          181.7     4.75697e-16 
          186.1      2.1676e-15 
            191     1.08069e-14 
          193.9     2.68359e-14 
          198.4      1.0457e-13 
          201.8     2.81636e-13 
            205     6.96069e-13 
          210.5     3.07444e-12 
          216.2     1.32509e-11 
          219.8     3.20834e-11 
            223     6.85846e-11 
          226.8     1.64722e-10 
            230     4.10692e-10 
            234      1.06518e-9 
            240      3.72982e-9 
          246.5      1.34206e-8 
          252.4      4.05642e-8 
          256.8      8.87236e-8 
            260      1.56449e-7 
            264      3.08498e-7 
          268.5      6.45055e-7 
          273.5      1.42171e-6 
          278.5      3.05115e-6 
            284      6.84368e-6 
            290      1.59252e-5 
            296      3.57269e-5 
            301      6.84176e-5 
            308     0.000162901 
            318     0.000531804 
            328      0.00160123 
            338      0.00451341 
            348       0.0119504 
            357       0.0273497 
            366       0.0600434 
            375        0.126369 
            385        0.276984 
            395        0.581616 
            405         1.17549 
            414          2.1475 
            422         3.58232 
            430         5.84735 
            441         11.1651 
            451         19.4902 
            460         31.4541 
            470         52.3243 
            480         85.0323 
            490         135.309 
            500         210.878 
            506         1929.44 
            512          5374.5 
            520         7077.75 
            530         10324.3 
            540         12881.7 
            550         19206.4 
            560         25198.6 
            570         33517.2 
            580         38087.3 
            590         53683.7 
            600         70044.5 
            610         89563.6 
            620          110392 
            630          137527 
            640          164736 
            650          200812 
            658          240013 
            665          270213 
            675          319450 
            685          381655 
            695          460335 
            705          539924 
            716          641200 
            726          743987 
            735          850147 
            745          990788 
            755      1.14428e+6 
            765      1.30665e+6 
            775      1.49958e+6 
            785      1.70732e+6 
            795       1.9219e+6 
            805      2.16809e+6 
            815      2.42137e+6 
            825      2.72933e+6 
            835      2.99941e+6 
            845      3.35879e+6 
            855       3.7181e+6 
            865      4.13739e+6 
            875      4.57813e+6 
            885      5.07741e+6 
            895      5.56987e+6 
            905      5.96677e+6 
            915      1.00083e+7 
            925      3.34089e+7 
            935      7.65245e+7 
            945      3.83625e+8 
            955      1.42063e+9 
            965      2.10909e+9 
            975      4.48489e+8 
            985      4.20985e+9 
            995       4.6386e+9 
           1005      5.19277e+9 
           1015      3.45678e+9 
           1025      2.71776e+8 
           1035      2.18577e+9 
           1045      5.81847e+9 
           1055      6.07188e+9 
           1065      5.18847e+9 
           1075      6.05049e+9 
           1085      5.51706e+9 
           1095      6.00587e+9 
           1105       5.4293e+9 
           1115      5.31053e+9 
           1125      5.07366e+9 
           1135      5.72043e+9 
           1145      5.11808e+9 
           1155      5.34132e+9 
           1165       5.5931e+9 
           1175      4.70589e+9 
           1185      5.39087e+9 
           1195      3.56831e+9 
           1205      2.04354e+9 
           1215      2.85337e+8 
           1225      1.80674e+9 
           1235      4.36596e+9 
           1245      5.00921e+9 
           1255       4.9639e+9 
           1265      4.48504e+9 
           1275      4.91113e+9 
           1285      5.03553e+9 
           1295      3.98716e+9 
           1305      3.57855e+9 
           1315      4.75066e+9 
           1325       4.5627e+9 
           1335      4.15407e+9 
           1345       4.5613e+9 
           1355      4.40517e+9 
           1365      4.12169e+9 
           1375      4.14405e+9 
           1385      4.19539e+9 
           1395      3.94477e+9 
           1405      4.05046e+9 
           1415      3.91344e+9 
           1425      3.93236e+9 
           1435      3.88891e+9 
           1442      3.98241e+9 
           1447      3.94199e+9 
           1455      3.85587e+9 
           1465      3.70301e+9 
           1475      3.63461e+9 
           1485      3.53731e+9 
           1495      3.53886e+9 
           1505      3.39452e+9 
           1512      3.19162e+9 
           1517      3.30403e+9 
           1525      3.27658e+9 
           1535      3.06983e+9 
           1545      3.16863e+9 
           1555      2.98997e+9 
           1565      2.94896e+9 
           1575      3.04649e+9 
           1585      3.04866e+9 
           1595      3.08015e+9 
           1605      2.95282e+9 
           1615       2.9337e+9 
           1625      2.82323e+9 
           1635      2.86786e+9 
           1645      2.83728e+9 
           1655      2.66445e+9 
           1665      2.83176e+9 
           1672      2.70313e+9 
           1677      2.74195e+9 
           1685      2.76998e+9 
           1695      2.66895e+9 
           1705      2.55894e+9 
           1715      2.46155e+9 
           1725       2.4255e+9 
           1735      2.49136e+9 
           1745      2.40845e+9 
           1755      2.46976e+9 
           1765       2.2792e+9 
           1775      2.35666e+9 
           1785      2.34133e+9 
           1795      2.37728e+9 
           1805      2.34697e+9 
           1815      2.24284e+9 
           1825      2.26267e+9 
           1835      2.18896e+9 
           1845      2.07023e+9 
           1855      2.01479e+9 
           1865      2.02693e+9 
           1875      2.11274e+9 
           1885      1.97566e+9 
           1895      1.89517e+9 
           1905       1.9835e+9 
           1915      1.89925e+9 
           1925      1.86391e+9 
           1935      1.88716e+9 
           1945      1.91391e+9 
           1955      1.80508e+9 
           1967      1.88175e+9 
           1976      1.91473e+9 
           1984      1.82237e+9 
           1995      1.76437e+9 
           2005      1.78899e+9 
           2015       1.7477e+9 
           2025       1.7993e+9 
           2035      1.72144e+9 
           2045       1.7168e+9 
           2055      1.64955e+9 
           2065      1.67054e+9 
           2074      1.69496e+9 
           2078      1.64508e+9 
           2085      1.66248e+9 
           2095      1.59781e+9 
           2105      1.61404e+9 
           2115      1.59906e+9 
           2125      1.61375e+9 
           2135      1.56627e+9 
           2145      1.54425e+9 
           2155      1.55534e+9 
           2165      1.51545e+9 
           2175      1.49788e+9 
           2185      1.47528e+9 
           2195       1.4883e+9 
           2205      1.44934e+9 
           2215      1.41701e+9 
           2225      1.37516e+9 
           2235      1.40979e+9 
           2245      1.37887e+9 
           2255      1.34259e+9 
           2265      1.35066e+9 
           2275      1.34645e+9 
           2285      1.34653e+9 
           2295      1.30657e+9 
           2305      1.28823e+9 
           2315      1.26356e+9 
           2325      1.25481e+9 
           2335       1.2152e+9 
           2345        1.178e+9 
           2355      1.19594e+9 
           2365      1.15809e+9 
           2375      1.16626e+9 
           2385      1.12451e+9 
           2395      1.15146e+9 
           2405      1.11729e+9 
           2415      1.11587e+9 
           2425      1.12187e+9 
           2435      1.08256e+9 
           2445      1.09451e+9 
           2455      1.08643e+9 
           2465      1.06418e+9 
           2475      1.04809e+9 
           2485      1.06395e+9 
           2495      1.03402e+9 
           2505      1.04955e+9 
           2513      1.01699e+9 
           2518      1.03066e+9 
           2525      9.96241e+8 
           2535      9.84058e+8 
           2545      9.71338e+8 
           2555      9.88969e+8 
           2565         9.74e+8 
           2575      9.84404e+8 
           2585      9.80918e+8 
           2595      9.71806e+8 
           2605      9.53978e+8 
           2615      9.46145e+8 
           2625      9.37692e+8 
           2635      9.32216e+8 
           2645      9.48228e+8 
           2655      9.37732e+8 
           2665      9.15378e+8 
           2675      9.18339e+8 
           2685      9.09682e+8 
           2695      8.93867e+8 
           2705      8.89639e+8 
           2715       8.7354e+8 
           2725       8.6156e+8 
           2735       8.6761e+8 
           2745      8.33002e+8 
           2755      8.27561e+8 
           2765      8.29667e+8 
           2775      8.36125e+8 
           2785      8.27022e+8 
           2795      7.94592e+8 
           2805      8.08185e+8 
           2815      8.10915e+8 
           2825      7.97537e+8 
           2835      7.77905e+8 
           2845      7.72353e+8 
           2855       7.7199e+8 
           2865      7.74092e+8 
           2875      7.62244e+8 
           2885      7.58327e+8 
           2895      7.53322e+8 
           2910      7.46688e+8 
           2930      7.28147e+8 
           2950      7.13156e+8 
           2970      7.05762e+8 
           2990      6.91758e+8 
           3010      6.83968e+8 
           3030      6.73615e+8 
           3050      6.61124e+8 
           3070       6.4958e+8 
           3090      6.39305e+8 
           3110      6.27447e+8 
           3130      6.17686e+8 
           3150      6.07171e+8 
           3170      5.97022e+8 
           3190      5.82044e+8 
           3210      5.76861e+8 
           3230      5.67898e+8 
           3250      5.58826e+8 
           3270      5.50425e+8 
           3290      5.41387e+8 
           3310      5.33317e+8 
           3330      5.24586e+8 
           3350      5.15521e+8 
           3370      5.07795e+8 
           3390      4.99854e+8 
           3410      4.92193e+8 
           3430      4.83812e+8 
           3450      4.75687e+8 
           3470      4.68749e+8 
           3490      4.61598e+8 
           3510      4.55129e+8 
           3530      4.48324e+8 
           3550      4.41493e+8 
           3570      4.35614e+8 
           3590      4.27676e+8 
           3610      4.21909e+8 
           3630        4.151e+8 
           3640      4.13278e+8 
           3650      4.09489e+8 
           3670      4.04786e+8 
           3690       3.9698e+8 
           3710      3.84801e+8 
           3730      3.68176e+8 
           3750      3.94638e+8 
           3770      4.00561e+8 
           3790      4.40485e+8 
           3810      4.74101e+8 
           3830      4.01258e+8 
           3850      4.98409e+8 
           3870      5.22902e+8 
           3890      3.70553e+8 
           3910      5.17679e+8 
           3930      5.19595e+8 
           3950      5.03964e+8 
           3970      3.48311e+8 
           3990      4.80161e+8 
           4010      4.93025e+8 
           4030      4.63208e+8 
           4050      4.84575e+8 
           4070      4.70932e+8 
           4090       4.0713e+8 
           4110      3.41133e+8 
           4130      4.38574e+8 
           4150       4.4221e+8 
           4170      4.39863e+8 
           4190      4.35459e+8 
           4210      4.29079e+8 
           4230      4.22083e+8 
           4250      4.15221e+8 
           4270      4.05245e+8 
           4290      4.00493e+8 
           4310      3.88936e+8 
           4330      3.28326e+8 
           4350      2.93798e+8 
           4370      3.68781e+8 
           4390      3.59564e+8 
           4410       3.6586e+8 
           4430       3.5957e+8 
           4450      3.56002e+8 
           4470        3.338e+8 
           4490      3.42493e+8 
           4510      3.40703e+8 
           4530      3.35205e+8 
           4550      3.30263e+8 
           4570      3.25755e+8 
           4590      3.20973e+8 
           4610      3.16297e+8 
           4630      3.11321e+8 
           4650      3.06907e+8 
           4670      3.02712e+8 
           4690      2.98525e+8 
           4710      2.89984e+8 
           4730      2.89069e+8 
           4750      2.84653e+8 
           4770      2.81989e+8 
           4790      2.77177e+8 
           4810      2.71897e+8 
           4830      2.64563e+8 
           4850      2.30146e+8 
           4870      2.00541e+8 
           4890      2.51414e+8 
           4910      2.53027e+8 
           4930      2.44825e+8 
           4950      2.48247e+8 
           4970      2.45216e+8 
           4990      2.41741e+8 
           5010      2.34772e+8 
           5030      2.34844e+8 
           5050      2.29147e+8 
           5070      2.28955e+8 
           5090      2.25851e+8 
           5110      2.22629e+8 
           5130      2.19751e+8 
           5150      2.16656e+8 
           5170      2.14038e+8 
           5190      2.11287e+8 
           5210       2.0767e+8 
           5230      2.05754e+8 
           5250      2.03164e+8 
           5270       2.0039e+8 
           5290       1.9807e+8 
           5310      1.95419e+8 
           5330      1.92894e+8 
           5350      1.90217e+8 
           5370      1.88137e+8 
           5390      1.85732e+8 
           5410      1.83305e+8 
           5430      1.80731e+8 
           5450      1.78621e+8 
           5470      1.76335e+8 
           5490      1.74315e+8 
           5510      1.72059e+8 
           5530      1.70004e+8 
           5550      1.67937e+8 
           5570      1.65834e+8 
           5590      1.63818e+8 
           5610      1.61742e+8 
           5630      1.59918e+8 
           5650      1.57454e+8 
           5670      1.55689e+8 
           5690      1.54026e+8 
           5710      1.52267e+8 
           5730       1.5046e+8 
           5750      1.48652e+8 
           5770      1.46899e+8 
           5790      1.45122e+8 
           5810      1.43388e+8 
           5830      1.41697e+8 
           5850      1.40025e+8 
           5870      1.34688e+8 
           5890      1.36392e+8 
           5910      1.35147e+8 
           5930      1.33615e+8 
           5950      1.31835e+8 
           5970      1.30499e+8 
           5990      1.28873e+8 
           6010      1.27547e+8 
           6030      1.26071e+8 
           6050      1.24631e+8 
           6070      1.23198e+8 
           6090      1.21781e+8 
           6110       1.2044e+8 
           6130      1.19074e+8 
           6150      1.17573e+8 
           6170      1.16397e+8 
           6190      1.15105e+8 
           6210      1.13818e+8 
           6230      1.12515e+8 
           6250       1.1116e+8 
           6270      1.10059e+8 
           6290      1.08827e+8 
           6310      1.07589e+8 
           6330      1.06459e+8 
           6350      1.04799e+8 
           6370      1.03827e+8 
           6390      1.02984e+8 
           6410      1.01829e+8 
           6430      1.00796e+8 
           6450      9.96643e+7 
           6470      9.85991e+7 
           6490      9.73752e+7 
           6510      9.60311e+7 
           6530      9.41804e+7 
           6550      8.70423e+7 
           6570      7.56541e+7 
           6590      8.98187e+7 
           6610      9.08625e+7 
           6630      9.02809e+7 
           6650      8.95683e+7 
           6670      8.79311e+7 
           6690       8.7061e+7 
           6710      8.68273e+7 
           6730      8.59294e+7 
           6750      8.50489e+7 
           6770      8.41772e+7 
           6790      8.32572e+7 
           6810      8.24358e+7 
           6830      8.15741e+7 
           6850      8.07613e+7 
           6870      7.99405e+7 
           6890      7.91287e+7 
           6910      7.83226e+7 
           6930      7.74899e+7 
           6950      7.67506e+7 
           6970      7.59858e+7 
           6990      7.52162e+7 
           7010      7.44549e+7 
           7030       7.3714e+7 
           7050       7.2928e+7 
           7070      7.14382e+7 
           7090      7.15498e+7 
           7110      7.08282e+7 
           7130      7.01379e+7 
           7150      6.94425e+7 
           7170      6.87698e+7 
           7190      6.81021e+7 
           7210      6.74378e+7 
           7230      6.65586e+7 
           7250      6.61173e+7 
           7270      6.54924e+7 
           7290      6.45537e+7 
           7310      6.42306e+7 
           7330      6.36162e+7 
           7350      6.30076e+7 
           7370      6.24039e+7 
           7390      6.18086e+7 
           7410      6.12201e+7 
           7430      6.06153e+7 
           7450      6.00581e+7 
           7470      5.94723e+7 
           7490      5.89208e+7 
           7510      5.83669e+7 
           7530      5.78307e+7 
           7550      5.72908e+7 
           7570       5.6759e+7 
           7590      5.62262e+7 
           7610      5.57085e+7 
           7630      5.51917e+7 
           7650      5.46794e+7 
           7670       5.4175e+7 
           7690      5.36757e+7 
           7710      5.31834e+7 
           7730      5.26948e+7 
           7750      5.22137e+7 
           7770      5.14766e+7 
           7790      5.12679e+7 
           7810      5.07981e+7 
           7830      5.03454e+7 
           7850      4.98428e+7 
           7870      4.93927e+7 
           7890      4.88975e+7 
           7910      4.85687e+7 
           7930      4.81377e+7 
           7950      4.76574e+7 
           7970      4.72779e+7 
           7990      4.67789e+7 
           8010      4.64464e+7 
           8030      4.60354e+7 
           8050      4.56255e+7 
           8070      4.52267e+7 
           8090      4.48186e+7 
           8110      4.44265e+7 
           8130      4.40384e+7 
           8150      4.36461e+7 
           8170      4.32831e+7 
           8190      4.28844e+7 
           8210      4.24398e+7 
           8230      4.20909e+7 
           8250      4.18007e+7 
           8270      4.13889e+7 
           8290      4.10897e+7 
           8310      4.07628e+7 
           8330       4.0418e+7 
           8350      4.00117e+7 
           8370       3.9717e+7 
           8390       3.9416e+7 
           8410      3.90604e+7 
           8430      3.86972e+7 
           8450      3.81908e+7 
           8470      3.79382e+7 
           8490      3.76509e+7 
           8510      3.71236e+7 
           8530      3.70739e+7 
           8550      3.59942e+7 
           8570      3.67774e+7 
