# Kurucz ODFNEW /NOVER (2003)
# teff = 7750 K (value for the effective temperature for the model. Temperatures are given in K)
# logg = 5 log(cm/s2) (value for Log(G) for the model.)
# meta = -1.5  (value for the Metallicity for the model.)
# lh = 1.25  (l/Hp where l is the  mixing length of the convective element and Hp is the pressure scale height)
# vtur = 2 km/s (Microturbulence velocity)
# alpha = 0  (Alpha)
#
# column 1: WAVELENGTH (ANGSTROM), Wavelength in Angstrom
# column 2: FLUX (ERG/CM2/S/A), Flux in erg/cm2/s/A
            318     3.57786e-23 
            328     4.93743e-22 
            338     5.06179e-21 
            348     5.21587e-21 
            357     3.03958e-20 
            366      1.6185e-19 
            375      7.9067e-19 
            385     4.20102e-18 
            395     2.03853e-17 
            405     9.10352e-17 
            414     3.27811e-16 
            422     9.74211e-16 
            430     2.77239e-15 
            441     1.09278e-14 
            451     3.57021e-14 
            460     9.88398e-14 
            470     2.91748e-13 
            480     8.19763e-13 
            490     2.20169e-12 
            500     5.65968e-12 
            506     1.29366e-11 
            512     2.48764e-11 
            520     4.94485e-11 
            530     1.13907e-10 
            540     2.49409e-10 
            550     5.36114e-10 
            560      1.11136e-9 
            570      2.23951e-9 
            580      4.34292e-9 
            590      8.40255e-9 
            600      1.56866e-8 
            610      2.86268e-8 
            620      5.11152e-8 
            630      8.94061e-8 
            640      1.53423e-7 
            650      2.58414e-7 
            658      3.87124e-7 
            665      5.46423e-7 
            675      8.81578e-7 
            685      1.39981e-6 
            695       2.1896e-6 
            705      3.37501e-6 
            716      5.34786e-6 
            726      8.01382e-6 
            735      1.14115e-5 
            745      1.67097e-5 
            755       2.4185e-5 
            765       3.4613e-5 
            775      4.90148e-5 
            785      6.86974e-5 
            795      9.52694e-5 
            805     0.000131019 
            815     0.000178483 
            825     0.000241018 
            835      0.00032278 
            845     0.000428776 
            855     0.000565126 
            865     0.000739235 
            875     0.000959802 
            885      0.00123794 
            895      0.00158574 
            905      0.00201767 
            915        0.974419 
            925         7.41417 
            935          12.977 
            945         22.1083 
            955         30.9624 
            965         41.3695 
            975         37.2249 
            985         64.2582 
            995         76.7633 
           1005         96.4926 
           1015          107.63 
           1025         85.5743 
           1035         154.873 
           1045         201.684 
           1055         235.875 
           1065          280.89 
           1075         338.319 
           1085         405.587 
           1095         465.828 
           1105         705.188 
           1115         1075.71 
           1125         1246.73 
           1135         1576.64 
           1145         1806.14 
           1155         1909.85 
           1165         2209.54 
           1175         2370.87 
           1185         2549.55 
           1195         1851.67 
           1205         1320.35 
           1215         383.384 
           1225         1493.96 
           1235         3169.49 
           1245         4428.81 
           1255         5973.28 
           1265         7142.73 
           1275         8691.11 
           1285         11513.4 
           1295         13714.8 
           1305         16202.2 
           1315         18941.2 
           1325         22046.4 
           1335         25050.8 
           1345         29246.6 
           1355         32323.2 
           1365         37431.8 
           1375         41061.9 
           1385         44214.4 
           1395         49506.6 
           1405         53928.5 
           1415         62505.2 
           1425         66321.1 
           1435         70796.9 
           1442         81182.8 
           1447           79115 
           1455           87912 
           1465           89707 
           1475         98470.4 
           1485          106664 
           1495          116805 
           1505          128043 
           1512          134424 
           1517          133641 
           1525          141611 
           1535          152788 
           1545          157770 
           1555          161830 
           1565          155738 
           1575          172705 
           1585          182350 
           1595          194390 
           1605          202812 
           1615          229644 
           1625          268271 
           1635          390213 
           1645          945532 
           1655      1.40045e+6 
           1665      4.19682e+6 
           1672      4.55741e+6 
           1677      6.78677e+6 
           1685      9.27631e+6 
           1695      9.60304e+6 
           1705      1.18614e+7 
           1715      1.44788e+7 
           1725      1.52268e+7 
           1735      1.74446e+7 
           1745       1.7197e+7 
           1755      1.91519e+7 
           1765      1.60331e+7 
           1775       1.8932e+7 
           1785      1.96167e+7 
           1795      2.14051e+7 
           1805      2.00956e+7 
           1815      2.04602e+7 
           1825      1.93442e+7 
           1835       2.0481e+7 
           1845      1.83671e+7 
           1855      1.97538e+7 
           1865      2.11477e+7 
           1875      2.11724e+7 
           1885      2.14414e+7 
           1895      2.21861e+7 
           1905      2.13776e+7 
           1915      2.28356e+7 
           1925      2.35048e+7 
           1935      2.15751e+7 
           1945      2.41711e+7 
           1955      2.42103e+7 
           1967      2.53568e+7 
           1976      2.45475e+7 
           1984      2.43825e+7 
           1995      2.43415e+7 
           2005      2.32962e+7 
           2015      2.39655e+7 
           2025      2.22062e+7 
           2035      2.47058e+7 
           2045      2.58259e+7 
           2055      2.52594e+7 
           2065      2.50471e+7 
           2074      2.68122e+7 
           2078      2.67998e+7 
           2085       2.6569e+7 
           2095       2.5928e+7 
           2105      2.54136e+7 
           2115      2.60489e+7 
           2125      2.63741e+7 
           2135      2.41184e+7 
           2145      2.63161e+7 
           2155      2.58988e+7 
           2165      2.46828e+7 
           2175      2.46586e+7 
           2185      2.57843e+7 
           2195      2.72412e+7 
           2205      2.63918e+7 
           2215      2.48096e+7 
           2225      2.57042e+7 
           2235      2.80291e+7 
           2245      2.62491e+7 
           2255      2.51655e+7 
           2265      2.43791e+7 
           2275      2.60745e+7 
           2285      2.66946e+7 
           2295      2.52308e+7 
           2305       2.6076e+7 
           2315      2.63186e+7 
           2325      2.61248e+7 
           2335      2.58545e+7 
           2345      2.32476e+7 
           2355      2.67622e+7 
           2365      2.42672e+7 
           2375      2.57437e+7 
           2385      2.25896e+7 
           2395      2.47769e+7 
           2405      2.43186e+7 
           2415      2.43515e+7 
           2425      2.61844e+7 
           2435      2.52715e+7 
           2445      2.62121e+7 
           2455      2.59434e+7 
           2465      2.59224e+7 
           2475       2.4778e+7 
           2485      2.50054e+7 
           2495      2.43999e+7 
           2505      2.70001e+7 
           2513      2.49726e+7 
           2518      2.44428e+7 
           2525      2.33384e+7 
           2535      2.31998e+7 
           2545      2.27322e+7 
           2555      2.46472e+7 
           2565       2.4839e+7 
           2575      2.65737e+7 
           2585      2.69368e+7 
           2595      2.68275e+7 
           2605      2.59718e+7 
           2615      2.53069e+7 
           2625      2.68345e+7 
           2635      2.69926e+7 
           2645      2.95088e+7 
           2655      2.95637e+7 
           2665      2.79096e+7 
           2675      2.87148e+7 
           2685      2.94523e+7 
           2695      2.78352e+7 
           2705      2.80675e+7 
           2715      2.67531e+7 
           2725      2.68559e+7 
           2735      2.79482e+7 
           2745      2.49666e+7 
           2755       2.5825e+7 
           2765      2.71774e+7 
           2775      2.81022e+7 
           2785      2.74311e+7 
           2795      2.05426e+7 
           2805      2.31778e+7 
           2815       2.9297e+7 
           2825      2.89828e+7 
           2835      2.83985e+7 
           2845      2.76472e+7 
           2855      2.57179e+7 
           2865      2.79193e+7 
           2875      2.76393e+7 
           2885      2.82519e+7 
           2895      2.81573e+7 
           2910      2.94289e+7 
           2930      2.85861e+7 
           2950      2.82756e+7 
           2970      2.84406e+7 
           2990      2.84145e+7 
           3010      2.83983e+7 
           3030      2.84583e+7 
           3050      2.84901e+7 
           3070      2.85262e+7 
           3090       2.8445e+7 
           3110      2.82782e+7 
           3130      2.83029e+7 
           3150      2.85293e+7 
           3170      2.83853e+7 
           3190      2.74788e+7 
           3210      2.76859e+7 
           3230      2.71235e+7 
           3250      2.76128e+7 
           3270      2.80075e+7 
           3290        2.807e+7 
           3310      2.80715e+7 
           3330      2.76558e+7 
           3350      2.73048e+7 
           3370      2.71969e+7 
           3390      2.70029e+7 
           3410       2.7137e+7 
           3430      2.71078e+7 
           3450      2.68511e+7 
           3470      2.67414e+7 
           3490      2.67658e+7 
           3510      2.68577e+7 
           3530      2.66648e+7 
           3550      2.67945e+7 
           3570      2.62291e+7 
           3590      2.60917e+7 
           3610       2.6041e+7 
           3630      2.61311e+7 
           3640      2.60787e+7 
           3650      2.63195e+7 
           3670      2.63948e+7 
           3690      2.55834e+7 
           3710      2.52897e+7 
           3730      2.39681e+7 
           3750       2.7095e+7 
           3770      2.77493e+7 
           3790      3.17926e+7 
           3810      3.58223e+7 
           3830      2.94498e+7 
           3850      3.87391e+7 
           3870      4.21204e+7 
           3890      2.75948e+7 
           3910      4.22955e+7 
           3930      4.24076e+7 
           3950      4.24501e+7 
           3970      2.67448e+7 
           3990      4.14187e+7 
           4010      4.53314e+7 
           4030      4.56666e+7 
           4050       4.5118e+7 
           4070      4.31564e+7 
           4090      3.59634e+7 
           4110      2.89526e+7 
           4130       4.1863e+7 
           4150      4.35057e+7 
           4170      4.39127e+7 
           4190      4.34494e+7 
           4210      4.31459e+7 
           4230      4.25178e+7 
           4250      4.24315e+7 
           4270      4.18613e+7 
           4290      4.13287e+7 
           4310      3.91877e+7 
           4330      3.17597e+7 
           4350       2.7811e+7 
           4370      3.85313e+7 
           4390      3.96842e+7 
           4410      3.98055e+7 
           4430      3.99153e+7 
           4450      3.96734e+7 
           4470      3.94285e+7 
           4490      3.91845e+7 
           4510      3.90619e+7 
           4530      3.86057e+7 
           4550      3.82471e+7 
           4570      3.82016e+7 
           4590      3.78301e+7 
           4610      3.76515e+7 
           4630      3.72988e+7 
           4650      3.70623e+7 
           4670      3.68111e+7 
           4690      3.64208e+7 
           4710       3.5798e+7 
           4730      3.58596e+7 
           4750      3.55516e+7 
           4770      3.51978e+7 
           4790      3.47501e+7 
           4810      3.40937e+7 
           4830      3.26428e+7 
           4850      2.70922e+7 
           4870      2.27179e+7 
           4890      3.11929e+7 
           4910      3.26113e+7 
           4930      3.26077e+7 
           4950      3.26814e+7 
           4970      3.26568e+7 
           4990      3.23577e+7 
           5010      3.19798e+7 
           5030      3.19926e+7 
           5050      3.17101e+7 
           5070      3.15381e+7 
           5090      3.12806e+7 
           5110      3.10679e+7 
           5130      3.07961e+7 
           5150      3.05077e+7 
           5170      2.98563e+7 
           5190      2.97539e+7 
           5210      2.97438e+7 
           5230      2.94768e+7 
           5250      2.94618e+7 
           5270      2.89619e+7 
           5290       2.8991e+7 
           5310      2.87623e+7 
           5330      2.83944e+7 
           5350      2.83404e+7 
           5370        2.805e+7 
           5390      2.78643e+7 
           5410      2.75724e+7 
           5430      2.74323e+7 
           5450      2.72288e+7 
           5470       2.7059e+7 
           5490      2.68884e+7 
           5510      2.66961e+7 
           5530      2.64688e+7 
           5550      2.63053e+7 
           5570       2.6067e+7 
           5590      2.58458e+7 
           5610      2.56786e+7 
           5630       2.5525e+7 
           5650      2.53328e+7 
           5670      2.51298e+7 
           5690      2.49546e+7 
           5710      2.47628e+7 
           5730      2.46017e+7 
           5750      2.44092e+7 
           5770      2.42324e+7 
           5790      2.40518e+7 
           5810      2.38764e+7 
           5830      2.37029e+7 
           5850      2.35191e+7 
           5870       2.3346e+7 
           5890      2.29944e+7 
           5910      2.30062e+7 
           5930      2.28363e+7 
           5950      2.26724e+7 
           5970      2.25059e+7 
           5990      2.23381e+7 
           6010      2.21709e+7 
           6030      2.20064e+7 
           6050       2.1855e+7 
           6070      2.16969e+7 
           6090      2.15363e+7 
           6110      2.13764e+7 
           6130       2.1191e+7 
           6150      2.10474e+7 
           6170      2.08746e+7 
           6190      2.07665e+7 
           6210      2.06183e+7 
           6230       2.0458e+7 
           6250      2.02906e+7 
           6270      2.01767e+7 
           6290      2.00324e+7 
           6310      1.98772e+7 
           6330      1.97386e+7 
           6350       1.9593e+7 
           6370      1.94516e+7 
           6390      1.93162e+7 
           6410      1.91335e+7 
           6430      1.89891e+7 
           6450      1.88055e+7 
           6470       1.8648e+7 
           6490       1.8425e+7 
           6510       1.8144e+7 
           6530      1.75435e+7 
           6550      1.55592e+7 
           6570      1.28672e+7 
           6590      1.66755e+7 
           6610      1.73784e+7 
           6630      1.75094e+7 
           6650      1.74894e+7 
           6670      1.74126e+7 
           6690      1.73221e+7 
           6710       1.7214e+7 
           6730      1.71277e+7 
           6750      1.70065e+7 
           6770      1.68963e+7 
           6790      1.67781e+7 
           6810       1.6661e+7 
           6830      1.65442e+7 
           6850      1.64284e+7 
           6870      1.63178e+7 
           6890      1.62057e+7 
           6910      1.60939e+7 
           6930      1.59831e+7 
           6950      1.58725e+7 
           6970      1.57637e+7 
           6990      1.56559e+7 
           7010      1.55445e+7 
           7030      1.54394e+7 
           7050      1.53367e+7 
           7070       1.5232e+7 
           7090      1.51282e+7 
           7110      1.50104e+7 
           7130      1.49189e+7 
           7150      1.48172e+7 
           7170       1.4717e+7 
           7190      1.46149e+7 
           7210      1.45179e+7 
           7230      1.44226e+7 
           7250      1.43259e+7 
           7270      1.42308e+7 
           7290      1.41295e+7 
           7310      1.40388e+7 
           7330       1.3942e+7 
           7350      1.38537e+7 
           7370      1.37613e+7 
           7390      1.36648e+7 
           7410      1.35664e+7 
           7430      1.34812e+7 
           7450       1.3394e+7 
           7470      1.33041e+7 
           7490       1.3213e+7 
           7510      1.31294e+7 
           7530      1.30445e+7 
           7550      1.29609e+7 
           7570      1.28741e+7 
           7590      1.27893e+7 
           7610      1.27053e+7 
           7630      1.26219e+7 
           7650      1.25387e+7 
           7670      1.24503e+7 
           7690      1.23729e+7 
           7710      1.22904e+7 
           7730      1.22143e+7 
           7750      1.21312e+7 
           7770      1.20115e+7 
           7790      1.19778e+7 
           7810      1.18999e+7 
           7830      1.18189e+7 
           7850      1.17422e+7 
           7870      1.16668e+7 
           7890      1.15914e+7 
           7910      1.15178e+7 
           7930      1.14376e+7 
           7950      1.13652e+7 
           7970      1.12994e+7 
           7990       1.1224e+7 
           8010      1.11527e+7 
           8030       1.1082e+7 
           8050      1.10114e+7 
           8070      1.09424e+7 
           8090      1.08705e+7 
           8110      1.08038e+7 
           8130      1.07353e+7 
           8150      1.06674e+7 
           8170      1.05994e+7 
           8190      1.05129e+7 
           8210      1.04656e+7 
           8230      1.03959e+7 
           8250      1.03362e+7 
           8270      1.02824e+7 
           8290      1.02197e+7 
           8310      1.01558e+7 
           8330      1.00718e+7 
           8350      1.00333e+7 
           8370      9.97199e+6 
           8390       9.9031e+6 
           8410      9.84487e+6 
           8430      9.78284e+6 
           8450      9.70809e+6 
           8470      9.63394e+6 
           8490      9.60795e+6 
           8510      9.41094e+6 
           8530      9.49889e+6 
           8550      9.13293e+6 
           8570      9.41607e+6 
           8590      9.20124e+6 
           8610       9.1001e+6 
           8630      9.28812e+6 
           8650      9.12237e+6 
           8670      8.49395e+6 
           8690      9.07849e+6 
           8710      9.13368e+6 
           8730      8.95545e+6 
           8750       8.0884e+6 
           8770      8.71622e+6 
           8790      8.94868e+6 
           8810      8.91974e+6 
           8830      8.80932e+6 
           8850      8.31693e+6 
           8870      7.56074e+6 
           8890      8.51921e+6 
           8910      8.68126e+6 
           8930      8.68824e+6 
           8950      8.65134e+6 
           8970      8.53836e+6 
           8990      8.27247e+6 
           9010      7.18607e+6 
           9030      7.63245e+6 
           9050      8.21282e+6 
           9070      8.28884e+6 
           9090      8.26152e+6 
           9110      8.29111e+6 
           9130      8.26612e+6 
           9150      8.20392e+6 
           9170      8.11218e+6 
           9190      7.95558e+6 
           9210      7.57109e+6 
           9230      6.40317e+6 
           9250      7.38203e+6 
           9270      7.73644e+6 
           9290        7.828e+6 
           9310      7.83439e+6 
           9330      7.81253e+6 
           9350      7.77957e+6 
