# Kurucz ODFNEW /NOVER (2003)
# teff = 26000 K (value for the effective temperature for the model. Temperatures are given in K)
# logg = 3.5 log(cm/s2) (value for Log(G) for the model.)
# meta = -1  (value for the Metallicity for the model.)
# lh = 1.25  (l/Hp where l is the  mixing length of the convective element and Hp is the pressure scale height)
# vtur = 2 km/s (Microturbulence velocity)
# alpha = 0.4  (Alpha)
#
# column 1: WAVELENGTH (ANGSTROM), Wavelength in Angstrom
# column 2: FLUX (ERG/CM2/S/A), Flux in erg/cm2/s/A
          147.2     5.11791e-13 
            151     2.20344e-12 
          155.2     1.02013e-11 
          158.8     3.56137e-11 
            162     1.03372e-10 
            166     3.69648e-10 
          170.3      1.35964e-9 
          173.4       3.3406e-9 
          176.8      8.62597e-9 
          180.2      2.14747e-8 
          181.7      3.17554e-8 
          186.1      9.64492e-8 
            191      3.12425e-7 
          193.9      6.08513e-7 
          198.4      1.64483e-6 
          201.8       3.3816e-6 
            205      6.51408e-6 
          210.5      1.91543e-5 
          216.2      5.51403e-5 
          219.8     0.000104382 
            223     0.000180778 
          226.8     0.000340342 
            230       0.0641437 
            234        0.150145 
            240        0.323948 
          246.5        0.724477 
          252.4         1.46338 
          256.8         2.16539 
            260         3.45649 
            264         5.08954 
          268.5         8.22205 
          273.5         13.4299 
          278.5         21.3393 
            284         37.8957 
            290         63.1571 
            296         103.294 
            301         150.066 
            308         251.051 
            318         578.707 
            328         1102.24 
            338         2154.41 
            348         3909.96 
            357         10142.7 
            366           17765 
            375         26431.2 
            385         42775.2 
            395         69278.1 
            405          102464 
            414          147675 
            422          191155 
            430          255785 
            441          368379 
            451          507526 
            460          653027 
            470          877836 
            480      1.14521e+6 
            490      1.49661e+6 
            500      1.93518e+6 
            506      1.24621e+7 
            512       4.5621e+7 
            520      4.92841e+7 
            530       5.6606e+7 
            540      5.66967e+7 
            550      7.52388e+7 
            560       8.6488e+7 
            570      9.89654e+7 
            580      9.54646e+7 
            590      1.18592e+8 
            600      1.28266e+8 
            610       1.4566e+8 
            620        1.601e+8 
            630      1.73406e+8 
            640      1.76196e+8 
            650      1.84664e+8 
            658      2.09002e+8 
            665      2.25113e+8 
            675      2.31391e+8 
            685      2.39546e+8 
            695      2.82712e+8 
            705      2.85231e+8 
            716      3.20677e+8 
            726       3.3166e+8 
            735      3.48615e+8 
            745      3.81864e+8 
            755      4.01543e+8 
            765      4.26165e+8 
            775      4.52809e+8 
            785      4.81762e+8 
            795      4.99028e+8 
            805      5.20494e+8 
            815       5.3423e+8 
            825      5.71273e+8 
            835       5.3755e+8 
            845      6.03168e+8 
            855       6.2403e+8 
            865      6.55201e+8 
            875      6.88286e+8 
            885      7.25537e+8 
            895      7.53953e+8 
            905      7.65349e+8 
            915      1.21358e+9 
            925       1.003e+10 
            935      1.9191e+10 
            945     2.99401e+10 
            955     3.27956e+10 
            965     3.69433e+10 
            975     1.50712e+10 
            985     3.36042e+10 
            995     3.15162e+10 
           1005     3.31644e+10 
           1015     3.31691e+10 
           1025     2.22744e+10 
           1035     2.97276e+10 
           1045     3.58437e+10 
           1055     3.40877e+10 
           1065     2.99145e+10 
           1075      3.2092e+10 
           1085     2.97963e+10 
           1095     3.21329e+10 
           1105     2.99872e+10 
           1115     2.94923e+10 
           1125     2.56945e+10 
           1135     2.95687e+10 
           1145     2.72573e+10 
           1155     2.78422e+10 
           1165     2.77823e+10 
           1175      2.0994e+10 
           1185     2.61922e+10 
           1195     2.48339e+10 
           1205      2.0411e+10 
           1215     1.57615e+10 
           1225     2.35313e+10 
           1235     2.46093e+10 
           1245     2.39698e+10 
           1255      2.3692e+10 
           1265     2.35173e+10 
           1275     2.36495e+10 
           1285     2.31848e+10 
           1295     1.95849e+10 
           1305     2.04183e+10 
           1315     2.21172e+10 
           1325     2.12144e+10 
           1335     2.05712e+10 
           1345     2.03989e+10 
           1355     2.05056e+10 
           1365     1.94859e+10 
           1375     1.91564e+10 
           1385     1.88981e+10 
           1395     1.50456e+10 
           1405     1.58398e+10 
           1415     1.76334e+10 
           1425      1.6945e+10 
           1435      1.7191e+10 
           1442     1.73597e+10 
           1447     1.70773e+10 
           1455     1.66551e+10 
           1465     1.61445e+10 
           1475     1.60075e+10 
           1485     1.57788e+10 
           1495     1.54041e+10 
           1505     1.46587e+10 
           1512     1.40642e+10 
           1517     1.42237e+10 
           1525     1.41105e+10 
           1535      1.2817e+10 
           1545     1.26289e+10 
           1555     1.21408e+10 
           1565     1.26303e+10 
           1575     1.29321e+10 
           1585     1.27645e+10 
           1595      1.2692e+10 
           1605     1.21689e+10 
           1615     1.18683e+10 
           1625      1.1852e+10 
           1635     1.20026e+10 
           1645     1.17031e+10 
           1655     1.17348e+10 
           1665     1.15669e+10 
           1672     1.12742e+10 
           1677     1.18219e+10 
           1685     1.14984e+10 
           1695     1.11347e+10 
           1705     1.08328e+10 
           1715     1.04563e+10 
           1725     1.02797e+10 
           1735     1.03693e+10 
           1745     1.01973e+10 
           1755     1.01414e+10 
           1765      9.89862e+9 
           1775      9.59573e+9 
           1785      9.57672e+9 
           1795       9.5808e+9 
           1805      9.55507e+9 
           1815      9.08274e+9 
           1825       9.1182e+9 
           1835      8.95666e+9 
           1845      8.32451e+9 
           1855      8.32028e+9 
           1865      8.39896e+9 
           1875      8.42084e+9 
           1885      7.80299e+9 
           1895       7.3735e+9 
           1905      7.74185e+9 
           1915      7.44167e+9 
           1925      7.16234e+9 
           1935      7.41631e+9 
           1945      7.49431e+9 
           1955       6.9248e+9 
           1967      7.20541e+9 
           1976      7.42725e+9 
           1984      7.00637e+9 
           1995      6.83173e+9 
           2005      6.91088e+9 
           2015      6.91845e+9 
           2025      6.96485e+9 
           2035      6.58263e+9 
           2045      6.54588e+9 
           2055      6.16047e+9 
           2065      6.13089e+9 
           2074      6.34895e+9 
           2078      6.07083e+9 
           2085      6.19193e+9 
           2095      6.01828e+9 
           2105      6.12456e+9 
           2115      6.09424e+9 
           2125       6.1086e+9 
           2135      6.00026e+9 
           2145      5.80624e+9 
           2155      5.86191e+9 
           2165      5.79157e+9 
           2175       5.7061e+9 
           2185      5.62219e+9 
           2195      5.59719e+9 
           2205      5.52337e+9 
           2215      5.44889e+9 
           2225       5.3533e+9 
           2235      5.26379e+9 
           2245      5.24077e+9 
           2255      5.13957e+9 
           2265      5.10604e+9 
           2275      5.04254e+9 
           2285      4.97888e+9 
           2295      4.74532e+9 
           2305      4.83563e+9 
           2315      4.75886e+9 
           2325      4.70122e+9 
           2335      4.61426e+9 
           2345       4.5976e+9 
           2355      4.54566e+9 
           2365      4.49094e+9 
           2375      4.41853e+9 
           2385      4.36063e+9 
           2395      4.30485e+9 
           2405      4.25838e+9 
           2415      4.19031e+9 
           2425      4.15857e+9 
           2435      4.08217e+9 
           2445      4.04639e+9 
           2455      4.00662e+9 
           2465      3.95843e+9 
           2475      3.90141e+9 
           2485      3.84567e+9 
           2495      3.41004e+9 
           2505      3.73192e+9 
           2513      3.64407e+9 
           2518      3.67174e+9 
           2525      3.66659e+9 
           2535      3.62899e+9 
           2545      3.52805e+9 
           2555      3.51913e+9 
           2565      3.48144e+9 
           2575      3.45604e+9 
           2585      3.41486e+9 
           2595      3.37567e+9 
           2605      3.35202e+9 
           2615      3.30985e+9 
           2625      3.27266e+9 
           2635       3.2299e+9 
           2645       3.1912e+9 
           2655      3.15251e+9 
           2665      3.09994e+9 
           2675      3.06896e+9 
           2685      3.05257e+9 
           2695      2.98374e+9 
           2705      2.96718e+9 
           2715      2.93867e+9 
           2725      2.88989e+9 
           2735      2.86789e+9 
           2745      2.83694e+9 
           2755      2.80789e+9 
           2765      2.75904e+9 
           2775      2.75259e+9 
           2785      2.71562e+9 
           2795      2.63801e+9 
           2805      2.64165e+9 
           2815      2.63052e+9 
           2825      2.58304e+9 
           2835      2.54155e+9 
           2845      2.54392e+9 
           2855      2.50866e+9 
           2865      2.48415e+9 
           2875      2.45733e+9 
           2885      2.43295e+9 
           2895      2.40372e+9 
           2910      2.35991e+9 
           2930      2.31236e+9 
           2950      2.24934e+9 
           2970      2.21466e+9 
           2990      2.16596e+9 
           3010      2.11141e+9 
           3030      2.07509e+9 
           3050      2.03505e+9 
           3070      1.99547e+9 
           3090      1.93405e+9 
           3110      1.91187e+9 
           3130      1.86978e+9 
           3150      1.83336e+9 
           3170      1.79605e+9 
           3190      1.74976e+9 
           3210      1.72547e+9 
           3230      1.68842e+9 
           3250      1.65772e+9 
           3270       1.6251e+9 
           3290      1.59148e+9 
           3310      1.56309e+9 
           3330      1.53139e+9 
           3350      1.50084e+9 
           3370        1.473e+9 
           3390      1.44675e+9 
           3410      1.41969e+9 
           3430       1.3873e+9 
           3450      1.35664e+9 
           3470      1.33379e+9 
           3490      1.30855e+9 
           3510      1.29007e+9 
           3530      1.26836e+9 
           3550       1.2449e+9 
           3570      1.22671e+9 
           3590      1.19656e+9 
           3610       1.1773e+9 
           3630      1.15467e+9 
           3640       1.1516e+9 
           3650      1.12718e+9 
           3670       1.1126e+9 
           3690      1.08417e+9 
           3710      1.05321e+9 
           3730       1.0247e+9 
           3750       1.0852e+9 
           3770      1.07885e+9 
           3790      1.10526e+9 
           3810      1.13493e+9 
           3830      1.02171e+9 
           3850      1.13744e+9 
           3870      1.12001e+9 
           3890      9.74556e+8 
           3910      1.09859e+9 
           3930      1.07022e+9 
           3950      1.05796e+9 
           3970      9.03191e+8 
           3990      1.02218e+9 
           4010      1.00746e+9 
           4030      9.67241e+8 
           4050      9.79049e+8 
           4070      9.48572e+8 
           4090      9.06213e+8 
           4110      8.22836e+8 
           4130      8.99831e+8 
           4150      8.90282e+8 
           4170      8.82023e+8 
           4190      8.67593e+8 
           4210      8.56138e+8 
           4230      8.41366e+8 
           4250      8.23809e+8 
           4270      8.05593e+8 
           4290      7.95336e+8 
           4310      7.79191e+8 
           4330      7.37368e+8 
           4350      6.80612e+8 
           4370       7.4283e+8 
           4390      7.25404e+8 
           4410      7.21725e+8 
           4430      7.12267e+8 
           4450      7.01579e+8 
           4470      6.73746e+8 
           4490      6.79455e+8 
           4510      6.70942e+8 
           4530      6.60606e+8 
           4550      6.48824e+8 
           4570      6.38251e+8 
           4590      6.28285e+8 
           4610      6.18874e+8 
           4630      6.10147e+8 
           4650      5.92888e+8 
           4670      5.90066e+8 
           4690       5.8239e+8 
           4710      5.65448e+8 
           4730      5.66014e+8 
           4750      5.56633e+8 
           4770      5.50667e+8 
           4790      5.42351e+8 
           4810      5.33502e+8 
           4830      5.23942e+8 
           4850       5.0158e+8 
           4870      4.57535e+8 
           4890      5.01947e+8 
           4910       4.9585e+8 
           4930      4.80876e+8 
           4950      4.80504e+8 
           4970       4.7544e+8 
           4990      4.68519e+8 
           5010      4.55901e+8 
           5030      4.55112e+8 
           5050      4.46329e+8 
           5070      4.42565e+8 
           5090      4.36128e+8 
           5110      4.30008e+8 
           5130      4.23756e+8 
           5150      4.17914e+8 
           5170      4.12207e+8 
           5190      4.06742e+8 
           5210      4.00974e+8 
           5230       3.9571e+8 
           5250      3.90336e+8 
           5270      3.84883e+8 
           5290      3.79784e+8 
           5310       3.7459e+8 
           5330      3.69583e+8 
           5350      3.64535e+8 
           5370      3.59787e+8 
           5390      3.54826e+8 
           5410      3.50122e+8 
           5430      3.45542e+8 
           5450      3.40918e+8 
           5470      3.36453e+8 
           5490      3.32093e+8 
           5510      3.27813e+8 
           5530      3.23475e+8 
           5550      3.19338e+8 
           5570      3.15167e+8 
           5590      3.11119e+8 
           5610      3.07085e+8 
           5630      3.03196e+8 
           5650      2.99129e+8 
           5670      2.95089e+8 
           5690      2.90971e+8 
           5710      2.87838e+8 
           5730      2.84318e+8 
           5750      2.80258e+8 
           5770      2.77289e+8 
           5790      2.73792e+8 
           5810      2.70381e+8 
           5830      2.66933e+8 
           5850      2.63702e+8 
           5870      2.54518e+8 
           5890      2.56799e+8 
           5910      2.53964e+8 
           5930      2.50807e+8 
           5950      2.47709e+8 
           5970      2.44942e+8 
           5990      2.41808e+8 
           6010      2.39001e+8 
           6030      2.36061e+8 
           6050      2.33268e+8 
           6070      2.30527e+8 
           6090      2.27766e+8 
           6110      2.25066e+8 
           6130      2.22397e+8 
           6150      2.19618e+8 
           6170      2.17078e+8 
           6190      2.14596e+8 
           6210      2.12103e+8 
           6230      2.09617e+8 
           6250       2.0714e+8 
           6270      2.04747e+8 
           6290      2.02381e+8 
           6310      2.00002e+8 
           6330      1.97734e+8 
           6350       1.9536e+8 
           6370      1.93207e+8 
           6390      1.90994e+8 
           6410      1.88814e+8 
           6430      1.86702e+8 
           6450      1.84577e+8 
           6470      1.82385e+8 
           6490      1.80341e+8 
           6510      1.78382e+8 
           6530      1.76142e+8 
           6550      1.71398e+8 
           6570       1.5537e+8 
           6590       1.6954e+8 
           6610      1.68619e+8 
           6630      1.66806e+8 
           6650       1.6497e+8 
           6670      1.62017e+8 
           6690      1.60267e+8 
           6710      1.59673e+8 
           6730      1.57794e+8 
           6750       1.5624e+8 
           6770      1.54545e+8 
           6790      1.52713e+8 
           6810        1.512e+8 
           6830      1.49532e+8 
           6850      1.47978e+8 
           6870      1.46391e+8 
           6890      1.44773e+8 
           6910      1.43194e+8 
           6930      1.41765e+8 
           6950       1.4028e+8 
           6970      1.38801e+8 
           6990      1.37329e+8 
           7010      1.35895e+8 
           7030       1.3446e+8 
           7050      1.33069e+8 
           7070       1.2983e+8 
           7090      1.30313e+8 
           7110       1.2894e+8 
           7130      1.27617e+8 
           7150      1.26307e+8 
           7170      1.24988e+8 
           7190      1.23733e+8 
           7210      1.22467e+8 
           7230      1.20652e+8 
           7250      1.19894e+8 
           7270      1.18765e+8 
           7290       1.1671e+8 
           7310      1.16355e+8 
           7330      1.15202e+8 
           7350      1.14039e+8 
           7370        1.129e+8 
           7390      1.11773e+8 
           7410      1.10656e+8 
           7430      1.09549e+8 
           7450       1.0848e+8 
           7470      1.07258e+8 
           7490      1.06337e+8 
           7510      1.05264e+8 
           7530      1.04253e+8 
           7550      1.03239e+8 
           7570      1.02234e+8 
           7590      1.01232e+8 
           7610      1.00206e+8 
           7630      9.92737e+7 
           7650      9.83111e+7 
           7670      9.73636e+7 
           7690      9.64246e+7 
           7710      9.54941e+7 
           7730      9.45718e+7 
           7750      9.36704e+7 
           7770      9.27145e+7 
           7790      9.18976e+7 
           7810      9.09644e+7 
           7830      9.01623e+7 
           7850      8.93794e+7 
           7870         8.85e+7 
           7890      8.75919e+7 
           7910      8.68786e+7 
           7930      8.60395e+7 
           7950      8.51482e+7 
           7970      8.42647e+7 
           7990      8.35129e+7 
           8010      8.27265e+7 
           8030      8.19936e+7 
           8050      8.12669e+7 
           8070      8.05465e+7 
           8090      7.96825e+7 
           8110      7.88718e+7 
           8130      7.83759e+7 
           8150      7.75267e+7 
           8170      7.69726e+7 
           8190      7.61253e+7 
           8210      7.52239e+7 
           8230      7.47142e+7 
           8250      7.41088e+7 
           8270      7.30017e+7 
           8290      7.26882e+7 
           8310       7.2066e+7 
           8330      7.14054e+7 
           8350       7.0464e+7 
           8370      6.99825e+7 
           8390      6.94512e+7 
           8410      6.88017e+7 
           8430      6.81205e+7 
           8450        6.716e+7 
           8470      6.66961e+7 
           8490      6.63666e+7 
           8510      6.52591e+7 
           8530      6.53935e+7 
           8550      6.33306e+7 
           8570       6.5041e+7 
