# Kurucz ODFNEW /NOVER (2003)
# teff = 27000 K (value for the effective temperature for the model. Temperatures are given in K)
# logg = 3.5 log(cm/s2) (value for Log(G) for the model.)
# meta = -4  (value for the Metallicity for the model.)
# lh = 1.25  (l/Hp where l is the  mixing length of the convective element and Hp is the pressure scale height)
# vtur = 2 km/s (Microturbulence velocity)
# alpha = 0.4  (Alpha)
#
# column 1: WAVELENGTH (ANGSTROM), Wavelength in Angstrom
# column 2: FLUX (ERG/CM2/S/A), Flux in erg/cm2/s/A
          147.2     1.93652e-10 
            151     7.89197e-10 
          155.2      3.42977e-9 
          158.8      1.13266e-8 
            162      3.12621e-8 
            166      1.04975e-7 
          170.3      3.61141e-7 
          173.4      8.45624e-7 
          176.8       2.0737e-6 
          180.2      4.90727e-6 
          181.7      7.09872e-6 
          186.1      2.02195e-5 
            191      6.10929e-5 
          193.9      0.00011432 
          198.4     0.000290846 
          201.8     0.000571941 
            205      0.00105762 
          210.5      0.00290397 
          216.2      0.00780822 
          219.8        0.014178 
            223       0.0236792 
          226.8        0.042675 
            230        0.229677 
            234        0.527205 
            240         1.13444 
          246.5         2.53049 
          252.4         5.04068 
          256.8         7.29337 
            260         11.3994 
            264         17.1846 
          268.5         26.8155 
          273.5         43.1418 
          278.5         68.2814 
            284          110.89 
            290         183.966 
            296         297.227 
            301         426.082 
            308         678.569 
            318         1492.74 
            328         2873.97 
            338         5306.81 
            348         9432.86 
            357         15349.5 
            366         24365.2 
            375           37685 
            385         59651.5 
            395         91941.1 
            405          138409 
            414          196330 
            422          263967 
            430          350446 
            441          508237 
            451          699669 
            460          920067 
            470      1.23025e+6 
            480       1.6216e+6 
            490      2.11038e+6 
            500      2.71215e+6 
            506      2.31288e+7 
            512      6.44859e+7 
            520      6.89719e+7 
            530      8.19846e+7 
            540       8.1232e+7 
            550      9.71775e+7 
            560      1.05156e+8 
            570       1.1453e+8 
            580      1.12157e+8 
            590      1.31785e+8 
            600      1.45229e+8 
            610      1.57465e+8 
            620      1.69656e+8 
            630      1.83192e+8 
            640      1.96422e+8 
            650      2.11824e+8 
            658      2.24038e+8 
            665      2.35055e+8 
            675      2.50293e+8 
            685      2.65094e+8 
            695      2.86237e+8 
            705      3.01603e+8 
            716      3.23911e+8 
            726      3.43189e+8 
            735      3.62862e+8 
            745      3.83534e+8 
            755      4.04563e+8 
            765      4.25965e+8 
            775      4.48469e+8 
            785      4.71082e+8 
            795       4.9377e+8 
            805      5.17198e+8 
            815      5.40662e+8 
            825      5.64741e+8 
            835      5.80689e+8 
            845      6.13404e+8 
            855      6.37996e+8 
            865      6.63056e+8 
            875      6.88237e+8 
            885      7.13464e+8 
            895      7.38762e+8 
            905      7.63325e+8 
            915      1.44604e+9 
            925     1.37677e+10 
            935      2.3995e+10 
            945     3.72589e+10 
            955     4.03403e+10 
            965     4.58763e+10 
            975     3.16431e+10 
            985     4.46418e+10 
            995     4.27368e+10 
           1005     4.36622e+10 
           1015     4.23381e+10 
           1025     2.84319e+10 
           1035      4.0482e+10 
           1045      4.0601e+10 
           1055     3.98654e+10 
           1065     3.86686e+10 
           1075     3.80112e+10 
           1085     3.64625e+10 
           1095     3.69464e+10 
           1105     3.58765e+10 
           1115     3.53752e+10 
           1125     3.43235e+10 
           1135     3.42302e+10 
           1145     3.35487e+10 
           1155     3.29336e+10 
           1165     3.23373e+10 
           1175     3.01384e+10 
           1185     3.11289e+10 
           1195     3.03726e+10 
           1205     2.90922e+10 
           1215     1.91595e+10 
           1225     2.83459e+10 
           1235     2.83012e+10 
           1245     2.77536e+10 
           1255      2.7337e+10 
           1265     2.68288e+10 
           1275     2.63308e+10 
           1285     2.58404e+10 
           1295     2.49779e+10 
           1305     2.47182e+10 
           1315      2.4433e+10 
           1325     2.39776e+10 
           1335     2.33069e+10 
           1345     2.31199e+10 
           1355     2.27061e+10 
           1365     2.22957e+10 
           1375     2.19009e+10 
           1385     2.15131e+10 
           1395     2.08457e+10 
           1405     2.05099e+10 
           1415     2.03848e+10 
           1425     2.00236e+10 
           1435     1.96705e+10 
           1442     1.94256e+10 
           1447      1.9252e+10 
           1455     1.89804e+10 
           1465     1.86467e+10 
           1475     1.83202e+10 
           1485     1.80009e+10 
           1495      1.7685e+10 
           1505     1.73726e+10 
           1512     1.71643e+10 
           1517     1.70137e+10 
           1525     1.67757e+10 
           1535     1.64779e+10 
           1545     1.60728e+10 
           1555     1.58106e+10 
           1565     1.56492e+10 
           1575     1.53904e+10 
           1585     1.51323e+10 
           1595      1.4878e+10 
           1605     1.46206e+10 
           1615     1.43772e+10 
           1625     1.41377e+10 
           1635     1.38117e+10 
           1645     1.32201e+10 
           1655     1.34572e+10 
           1665     1.32356e+10 
           1672     1.30828e+10 
           1677     1.29778e+10 
           1685     1.28058e+10 
           1695     1.25951e+10 
           1705     1.23878e+10 
           1715     1.21789e+10 
           1725     1.19836e+10 
           1735     1.17961e+10 
           1745      1.1606e+10 
           1755     1.14206e+10 
           1765     1.12366e+10 
           1775     1.10595e+10 
           1785     1.08861e+10 
           1795     1.07155e+10 
           1805     1.05482e+10 
           1815     1.03834e+10 
           1825     1.02219e+10 
           1835     1.00645e+10 
           1845        9.907e+9 
           1855      9.74223e+9 
           1865      9.59742e+9 
           1875      9.45857e+9 
           1885      9.30939e+9 
           1895      9.15831e+9 
           1905      9.02961e+9 
           1915      8.88111e+9 
           1925        8.748e+9 
           1935      8.62079e+9 
           1945      8.49493e+9 
           1955      8.36133e+9 
           1967      8.21853e+9 
           1976      8.11045e+9 
           1984      8.01254e+9 
           1995      7.87946e+9 
           2005      7.77107e+9 
           2015      7.65962e+9 
           2025      7.54943e+9 
           2035      7.43975e+9 
           2045      7.33258e+9 
           2055      6.88448e+9 
           2065       6.7646e+9 
           2074      6.74657e+9 
           2078      6.74924e+9 
           2085      6.81076e+9 
           2095      6.81886e+9 
           2105      6.73093e+9 
           2115      6.64174e+9 
           2125      6.54926e+9 
           2135      6.45442e+9 
           2145      6.36326e+9 
           2155      6.28585e+9 
           2165      6.18298e+9 
           2175      6.11392e+9 
           2185      6.01121e+9 
           2195      5.94593e+9 
           2205       5.8643e+9 
           2215      5.76724e+9 
           2225      5.70494e+9 
           2235      5.62701e+9 
           2245      5.55068e+9 
           2255      5.45992e+9 
           2265      5.40205e+9 
           2275       5.3297e+9 
           2285      5.25854e+9 
           2295      5.16704e+9 
           2305       5.1055e+9 
           2315      5.05242e+9 
           2325      4.98591e+9 
           2335      4.92015e+9 
           2345      4.85553e+9 
           2355      4.79197e+9 
           2365       4.7293e+9 
           2375      4.66765e+9 
           2385      4.59422e+9 
           2395      4.54714e+9 
           2405      4.48836e+9 
           2415      4.43053e+9 
           2425       4.3737e+9 
           2435      4.31771e+9 
           2445      4.26273e+9 
           2455       4.2087e+9 
           2465      4.15546e+9 
           2475      4.10313e+9 
           2485      4.05175e+9 
           2495      3.95634e+9 
           2505      3.95147e+9 
           2513      3.88722e+9 
           2518      3.88808e+9 
           2525      3.85455e+9 
           2535      3.80714e+9 
           2545      3.76001e+9 
           2555      3.71413e+9 
           2565      3.66879e+9 
           2575      3.62416e+9 
           2585      3.58016e+9 
           2595       3.5369e+9 
           2605      3.51213e+9 
           2615      3.46979e+9 
           2625      3.42623e+9 
           2635       3.3796e+9 
           2645      3.33983e+9 
           2655      3.29676e+9 
           2665      3.25472e+9 
           2675        3.214e+9 
           2685      3.18985e+9 
           2695      3.13582e+9 
           2705       3.1151e+9 
           2715      3.07855e+9 
           2725      3.02424e+9 
           2735      3.00025e+9 
           2745      2.97223e+9 
           2755      2.93783e+9 
           2765      2.88395e+9 
           2775       2.8703e+9 
           2785      2.83734e+9 
           2795      2.80448e+9 
           2805      2.77274e+9 
           2815      2.74124e+9 
           2825      2.68864e+9 
           2835      2.67355e+9 
           2845      2.64939e+9 
           2855      2.61963e+9 
           2865      2.59031e+9 
           2875      2.56143e+9 
           2885      2.53293e+9 
           2895      2.50485e+9 
           2910      2.46348e+9 
           2930      2.40947e+9 
           2950      2.34367e+9 
           2970      2.30572e+9 
           2990      2.25588e+9 
           3010      2.20742e+9 
           3030      2.16032e+9 
           3050      2.11446e+9 
           3070       2.0699e+9 
           3090      2.02646e+9 
           3110      1.98431e+9 
           3130        1.945e+9 
           3150      1.90481e+9 
           3170      1.86488e+9 
           3190      1.81347e+9 
           3210      1.78766e+9 
           3230      1.75288e+9 
           3250      1.71728e+9 
           3270      1.68457e+9 
           3290      1.64898e+9 
           3310      1.61838e+9 
           3330       1.5865e+9 
           3350      1.55287e+9 
           3370      1.52508e+9 
           3390      1.49553e+9 
           3410      1.46667e+9 
           3430      1.43258e+9 
           3450      1.40057e+9 
           3470      1.37784e+9 
           3490      1.35176e+9 
           3510      1.33178e+9 
           3530      1.30763e+9 
           3550      1.28359e+9 
           3570      1.26511e+9 
           3590      1.23559e+9 
           3610      1.21459e+9 
           3630      1.19038e+9 
           3640      1.18635e+9 
           3650      1.17146e+9 
           3670       1.1542e+9 
           3690      1.12324e+9 
           3710      1.09246e+9 
           3730      1.06248e+9 
           3750       1.1275e+9 
           3770      1.12346e+9 
           3790      1.14964e+9 
           3810      1.18414e+9 
           3830      1.06124e+9 
           3850       1.1854e+9 
           3870      1.17135e+9 
           3890      1.01205e+9 
           3910      1.14329e+9 
           3930      1.12015e+9 
           3950      1.10429e+9 
           3970      9.37443e+8 
           3990       1.0635e+9 
           4010      1.04563e+9 
           4030      1.00289e+9 
           4050      1.01614e+9 
           4070      9.97969e+8 
           4090      9.54069e+8 
           4110      8.55553e+8 
           4130      9.40073e+8 
           4150      9.25697e+8 
           4170      9.14845e+8 
           4190      9.01197e+8 
           4210      8.85577e+8 
           4230      8.71411e+8 
           4250      8.56972e+8 
           4270      8.42826e+8 
           4290      8.28968e+8 
           4310        8.146e+8 
           4330      7.69739e+8 
           4350      7.10256e+8 
           4370      7.75005e+8 
           4390      7.51598e+8 
           4410      7.51634e+8 
           4430       7.3728e+8 
           4450      7.27795e+8 
           4470      6.97088e+8 
           4490      7.04888e+8 
           4510      6.93797e+8 
           4530      6.82893e+8 
           4550      6.71735e+8 
           4570      6.61737e+8 
           4590      6.51459e+8 
           4610      6.41405e+8 
           4630      6.31535e+8 
           4650      6.21828e+8 
           4670      6.12367e+8 
           4690      6.01041e+8 
           4710      5.88204e+8 
           4730      5.84992e+8 
           4750      5.76202e+8 
           4770      5.67572e+8 
           4790      5.59099e+8 
           4810      5.50779e+8 
           4830      5.41883e+8 
           4850      5.17483e+8 
           4870      4.70116e+8 
           4890      5.17528e+8 
           4910      5.11336e+8 
           4930      4.95927e+8 
           4950      4.96617e+8 
           4970      4.89441e+8 
           4990      4.82393e+8 
           5010      4.70985e+8 
           5030      4.68676e+8 
           5050      4.59919e+8 
           5070      4.55448e+8 
           5090      4.48997e+8 
           5110      4.42661e+8 
           5130      4.36439e+8 
           5150      4.30329e+8 
           5170      4.24314e+8 
           5190       4.1842e+8 
           5210      4.12633e+8 
           5230      4.06935e+8 
           5250      4.01339e+8 
           5270       3.9583e+8 
           5290      3.90419e+8 
           5310      3.85092e+8 
           5330       3.7986e+8 
           5350      3.74722e+8 
           5370      3.69663e+8 
           5390      3.64694e+8 
           5410      3.59622e+8 
           5430      3.54997e+8 
           5450      3.50278e+8 
           5470      3.45631e+8 
           5490      3.41055e+8 
           5510      3.36561e+8 
           5530      3.32148e+8 
           5550      3.27801e+8 
           5570      3.23521e+8 
           5590      3.19329e+8 
           5610      3.15189e+8 
           5630      3.11123e+8 
           5650      3.07119e+8 
           5670      3.03175e+8 
           5690      2.99302e+8 
           5710      2.95476e+8 
           5730      2.91719e+8 
           5750      2.88018e+8 
           5770      2.84373e+8 
           5790      2.80793e+8 
           5810      2.77256e+8 
           5830      2.73783e+8 
           5850      2.70362e+8 
           5870      2.60596e+8 
           5890      2.63586e+8 
           5910      2.60424e+8 
           5930      2.57214e+8 
           5950      2.54051e+8 
           5970      2.50946e+8 
           5990      2.47876e+8 
           6010      2.44863e+8 
           6030      2.41895e+8 
           6050       2.3896e+8 
           6070      2.36079e+8 
           6090      2.33241e+8 
           6110      2.30445e+8 
           6130       2.2769e+8 
           6150      2.24977e+8 
           6170      2.22294e+8 
           6190       2.1966e+8 
           6210      2.17065e+8 
           6230      2.14499e+8 
           6250      2.11981e+8 
           6270      2.09491e+8 
           6290      2.07046e+8 
           6310      2.04638e+8 
           6330      2.02257e+8 
           6350       1.9992e+8 
           6370      1.97608e+8 
           6390       1.9533e+8 
           6410      1.93095e+8 
           6430      1.90885e+8 
           6450      1.88707e+8 
           6470      1.86561e+8 
           6490      1.84438e+8 
           6510      1.82355e+8 
           6530      1.80127e+8 
           6550        1.752e+8 
           6570      1.58626e+8 
           6590      1.73739e+8 
           6610      1.72353e+8 
           6630      1.70432e+8 
           6650      1.68633e+8 
           6670      1.65455e+8 
           6690      1.63651e+8 
           6710      1.63112e+8 
           6730       1.6132e+8 
           6750      1.59556e+8 
           6770      1.57817e+8 
           6790      1.56096e+8 
           6810      1.54401e+8 
           6830       1.5273e+8 
           6850      1.51077e+8 
           6870      1.49448e+8 
           6890      1.47844e+8 
           6910      1.46264e+8 
           6930      1.44699e+8 
           6950      1.43158e+8 
           6970      1.41639e+8 
           6990      1.40128e+8 
           7010      1.38655e+8 
           7030      1.37189e+8 
           7050      1.35752e+8 
           7070       1.3231e+8 
           7090      1.32921e+8 
           7110      1.31533e+8 
           7130      1.30166e+8 
           7150      1.28813e+8 
           7170       1.2745e+8 
           7190      1.26159e+8 
           7210      1.24859e+8 
           7230      1.23578e+8 
           7250      1.22317e+8 
           7270      1.21067e+8 
           7290      1.18901e+8 
           7310      1.18597e+8 
           7330       1.1741e+8 
           7350      1.16221e+8 
           7370      1.15051e+8 
           7390      1.13891e+8 
           7410      1.12748e+8 
           7430      1.11617e+8 
           7450      1.10516e+8 
           7470      1.09412e+8 
           7490      1.08325e+8 
           7510      1.07214e+8 
           7530      1.06187e+8 
           7550      1.05143e+8 
           7570      1.04101e+8 
           7590      1.03082e+8 
           7610      1.02073e+8 
           7630      1.01073e+8 
           7650      1.00088e+8 
           7670      9.91183e+7 
           7690       9.8151e+7 
           7710      9.71989e+7 
           7730      9.62678e+7 
           7750      9.53325e+7 
           7770      9.44181e+7 
           7790      9.35179e+7 
           7810      9.25578e+7 
           7830      9.17415e+7 
           7850      9.09567e+7 
           7870      9.00875e+7 
           7890      8.91896e+7 
           7910      8.83899e+7 
           7930      8.75552e+7 
           7950      8.66086e+7 
           7970      8.56941e+7 
           7990       8.4941e+7 
           8010      8.41298e+7 
           8030      8.33666e+7 
           8050      8.26331e+7 
           8070      8.19001e+7 
           8090      8.10064e+7 
           8110      8.03209e+7 
           8130      7.96812e+7 
           8150      7.88085e+7 
           8170      7.82481e+7 
           8190      7.74508e+7 
           8210      7.65877e+7 
           8230      7.61102e+7 
           8250      7.54427e+7 
           8270      7.43898e+7 
           8290      7.39874e+7 
           8310      7.33425e+7 
           8330      7.26596e+7 
           8350      7.16798e+7 
           8370      7.12086e+7 
           8390      7.06554e+7 
           8410      6.99948e+7 
           8430      6.92814e+7 
           8450      6.83049e+7 
           8470      6.77989e+7 
           8490      6.75007e+7 
           8510      6.63151e+7 
           8530      6.65223e+7 
           8550      6.42737e+7 
           8570      6.62259e+7 
