# Kurucz ODFNEW /NOVER (2003)
# teff = 29000 K (value for the effective temperature for the model. Temperatures are given in K)
# logg = 4.5 log(cm/s2) (value for Log(G) for the model.)
# meta = -2  (value for the Metallicity for the model.)
# lh = 1.25  (l/Hp where l is the  mixing length of the convective element and Hp is the pressure scale height)
# vtur = 2 km/s (Microturbulence velocity)
# alpha = 0  (Alpha)
#
# column 1: WAVELENGTH (ANGSTROM), Wavelength in Angstrom
# column 2: FLUX (ERG/CM2/S/A), Flux in erg/cm2/s/A
          147.2       1.1299e-9 
            151      4.12104e-9 
          155.2      1.59735e-8 
          158.8      4.82523e-8 
            162      1.23657e-7 
            166      3.80489e-7 
          170.3      1.20164e-6 
          173.4      2.65185e-6 
          176.8      6.12358e-6 
          180.2      1.36888e-5 
          181.7       1.9338e-5 
          186.1      5.15896e-5 
            191     0.000145607 
          193.9     0.000262297 
          198.4     0.000631545 
          201.8       0.0011943 
            205      0.00213245 
          210.5      0.00554667 
          216.2       0.0141552 
          219.8       0.0249164 
            223       0.0405502 
          226.8       0.0709959 
            230         3.80162 
            234         9.66661 
            240         19.1295 
          246.5         38.9444 
          252.4         72.4296 
          256.8         99.6576 
            260          150.38 
            264         214.072 
          268.5         320.944 
          273.5         492.186 
          278.5          741.78 
            284         1151.26 
            290          1807.9 
            296         2778.22 
            301         3842.22 
            308         5670.96 
            318         11767.1 
            328         21020.1 
            338           36656 
            348         61313.7 
            357         95044.7 
            366          144799 
            375          211469 
            385          320979 
            395          471343 
            405          677688 
            414          928240 
            422      1.20156e+6 
            430      1.54074e+6 
            441      2.14786e+6 
            451      2.86102e+6 
            460      3.62931e+6 
            470      4.71483e+6 
            480      6.01394e+6 
            490      7.59076e+6 
            500      9.49132e+6 
            506      5.44165e+7 
            512      1.93895e+8 
            520      2.06686e+8 
            530      2.36539e+8 
            540       2.3034e+8 
            550      2.76862e+8 
            560       2.9587e+8 
            570      3.22429e+8 
            580      3.11798e+8 
            590      3.60939e+8 
            600      3.85562e+8 
            610      4.15172e+8 
            620      4.39149e+8 
            630      4.69986e+8 
            640      4.86244e+8 
            650       5.2463e+8 
            658      5.49383e+8 
            665       5.7031e+8 
            675        5.901e+8 
            685      6.10836e+8 
            695      6.70606e+8 
            705      6.88508e+8 
            716      7.37136e+8 
            726       7.6786e+8 
            735      8.05865e+8 
            745       8.4594e+8 
            755      8.82169e+8 
            765       9.1803e+8 
            775       9.6035e+8 
            785      1.00433e+9 
            795       1.0371e+9 
            805      1.07753e+9 
            815      1.11154e+9 
            825      1.15732e+9 
            835      1.15592e+9 
            845      1.22797e+9 
            855      1.26368e+9 
            865      1.30809e+9 
            875       1.3535e+9 
            885      1.39494e+9 
            895      1.43364e+9 
            905      1.46083e+9 
            915       1.8057e+9 
            925       9.6315e+9 
            935      2.1216e+10 
            945     4.58222e+10 
            955     5.57519e+10 
            965     7.15047e+10 
            975     3.45475e+10 
            985     7.31889e+10 
            995     6.81254e+10 
           1005     7.14724e+10 
           1015     6.65056e+10 
           1025     3.11449e+10 
           1035     6.15547e+10 
           1045     6.77614e+10 
           1055     6.61039e+10 
           1065     6.14472e+10 
           1075     6.17893e+10 
           1085     5.65786e+10 
           1095     5.98167e+10 
           1105     5.74678e+10 
           1115     5.61659e+10 
           1125     5.27726e+10 
           1135     5.38997e+10 
           1145     5.15974e+10 
           1155     5.12275e+10 
           1165     5.01658e+10 
           1175     4.35744e+10 
           1185     4.71588e+10 
           1195     4.53729e+10 
           1205     4.14369e+10 
           1215     2.04023e+10 
           1225     4.01527e+10 
           1235     4.21529e+10 
           1245     4.09924e+10 
           1255     4.06526e+10 
           1265     3.97841e+10 
           1275     3.90466e+10 
           1285      3.8188e+10 
           1295     3.59449e+10 
           1305     3.57523e+10 
           1315     3.56528e+10 
           1325     3.44772e+10 
           1335     3.33497e+10 
           1345      3.3193e+10 
           1355     3.26146e+10 
           1365     3.17502e+10 
           1375     3.11187e+10 
           1385     3.04687e+10 
           1395     2.88041e+10 
           1405     2.84452e+10 
           1415     2.84265e+10 
           1425      2.7721e+10 
           1435     2.73177e+10 
           1442     2.70114e+10 
           1447     2.66937e+10 
           1455     2.62159e+10 
           1465     2.56521e+10 
           1475     2.51202e+10 
           1485     2.46429e+10 
           1495      2.4107e+10 
           1505     2.34701e+10 
           1512     2.31511e+10 
           1517     2.29431e+10 
           1525      2.2528e+10 
           1535     2.16343e+10 
           1545     2.10758e+10 
           1555      2.0589e+10 
           1565     2.05652e+10 
           1575     2.03322e+10 
           1585      2.0006e+10 
           1595     1.96345e+10 
           1605     1.89723e+10 
           1615     1.85763e+10 
           1625     1.83541e+10 
           1635      1.7995e+10 
           1645     1.72116e+10 
           1655     1.74994e+10 
           1665     1.72029e+10 
           1672     1.69082e+10 
           1677     1.69495e+10 
           1685     1.66523e+10 
           1695     1.63108e+10 
           1705     1.59619e+10 
           1715     1.55663e+10 
           1725     1.53053e+10 
           1735     1.51607e+10 
           1745     1.48649e+10 
           1755     1.46177e+10 
           1765     1.42627e+10 
           1775      1.4063e+10 
           1785     1.38739e+10 
           1795     1.36496e+10 
           1805     1.34468e+10 
           1815     1.31629e+10 
           1825     1.29455e+10 
           1835     1.27332e+10 
           1845     1.23532e+10 
           1855     1.20364e+10 
           1865     1.19207e+10 
           1875     1.18432e+10 
           1885     1.14602e+10 
           1895     1.11497e+10 
           1905     1.11814e+10 
           1915     1.08461e+10 
           1925      1.0631e+10 
           1935     1.05818e+10 
           1945     1.05051e+10 
           1955      1.0119e+10 
           1967     1.01196e+10 
           1976     1.00565e+10 
           1984      9.81864e+9 
           1995      9.53176e+9 
           2005      9.55406e+9 
           2015      9.44926e+9 
           2025       9.3286e+9 
           2035      9.12798e+9 
           2045      8.98317e+9 
           2055      8.43894e+9 
           2065      8.25236e+9 
           2074      8.27872e+9 
           2078      8.14053e+9 
           2085      8.18813e+9 
           2095      8.15676e+9 
           2105      8.19567e+9 
           2115      8.11667e+9 
           2125      8.01009e+9 
           2135      7.88241e+9 
           2145       7.7512e+9 
           2155      7.65477e+9 
           2165      7.52892e+9 
           2175      7.43349e+9 
           2185      7.30903e+9 
           2195      7.22499e+9 
           2205      7.11931e+9 
           2215      6.99482e+9 
           2225      6.91154e+9 
           2235      6.80895e+9 
           2245      6.71629e+9 
           2255      6.59581e+9 
           2265      6.52565e+9 
           2275       6.4334e+9 
           2285        6.342e+9 
           2295       6.1742e+9 
           2305      6.14357e+9 
           2315      6.07494e+9 
           2325      5.99094e+9 
           2335      5.90478e+9 
           2345      5.82719e+9 
           2355      5.74703e+9 
           2365      5.66836e+9 
           2375      5.58914e+9 
           2385      5.49534e+9 
           2395      5.43694e+9 
           2405      5.36459e+9 
           2415      5.29151e+9 
           2425      5.22176e+9 
           2435      5.14999e+9 
           2445      5.08204e+9 
           2455      5.01529e+9 
           2465      4.94882e+9 
           2475      4.88296e+9 
           2485      4.81873e+9 
           2495      4.65424e+9 
           2505      4.69136e+9 
           2513      4.60009e+9 
           2518      4.61012e+9 
           2525      4.57189e+9 
           2535      4.51309e+9 
           2545       4.4471e+9 
           2555      4.39499e+9 
           2565      4.34137e+9 
           2575      4.28647e+9 
           2585      4.23245e+9 
           2595      4.17903e+9 
           2605      4.14873e+9 
           2615      4.09629e+9 
           2625      4.04474e+9 
           2635      3.99083e+9 
           2645      3.93917e+9 
           2655      3.88598e+9 
           2665      3.83019e+9 
           2675       3.7786e+9 
           2685      3.75317e+9 
           2695      3.67998e+9 
           2705      3.66091e+9 
           2715      3.61641e+9 
           2725      3.54542e+9 
           2735        3.521e+9 
           2745      3.48625e+9 
           2755        3.445e+9 
           2765      3.37524e+9 
           2775      3.36348e+9 
           2785       3.3231e+9 
           2795      3.27284e+9 
           2805      3.24227e+9 
           2815      3.20677e+9 
           2825      3.13591e+9 
           2835      3.11078e+9 
           2845      3.09537e+9 
           2855      3.05894e+9 
           2865      3.02353e+9 
           2875      2.98863e+9 
           2885      2.95437e+9 
           2895      2.92024e+9 
           2910      2.87001e+9 
           2930      2.80503e+9 
           2950      2.72124e+9 
           2970      2.68053e+9 
           2990      2.62068e+9 
           3010      2.56223e+9 
           3030      2.50661e+9 
           3050      2.45197e+9 
           3070      2.39874e+9 
           3090      2.34503e+9 
           3110      2.29634e+9 
           3130      2.24894e+9 
           3150       2.2013e+9 
           3170      2.15419e+9 
           3190      2.09054e+9 
           3210      2.06263e+9 
           3230      2.02092e+9 
           3250      1.97897e+9 
           3270      1.94042e+9 
           3290      1.89811e+9 
           3310      1.86228e+9 
           3330      1.82458e+9 
           3350      1.78467e+9 
           3370       1.7522e+9 
           3390      1.71746e+9 
           3410      1.68354e+9 
           3430      1.64296e+9 
           3450      1.60497e+9 
           3470      1.57836e+9 
           3490       1.5477e+9 
           3510      1.52064e+9 
           3530      1.49441e+9 
           3550      1.46608e+9 
           3570      1.44707e+9 
           3590      1.40936e+9 
           3610      1.38766e+9 
           3630      1.35717e+9 
           3640       1.3551e+9 
           3650      1.32891e+9 
           3670      1.30979e+9 
           3690      1.28471e+9 
           3710      1.24133e+9 
           3730      1.19261e+9 
           3750      1.20101e+9 
           3770      1.18138e+9 
           3790      1.22987e+9 
           3810      1.27598e+9 
           3830      1.11987e+9 
           3850      1.30133e+9 
           3870      1.31387e+9 
           3890      1.05497e+9 
           3910      1.28661e+9 
           3930      1.27233e+9 
           3950      1.24388e+9 
           3970      9.78317e+8 
           3990      1.19147e+9 
           4010      1.18575e+9 
           4030      1.11683e+9 
           4050      1.15682e+9 
           4070      1.13067e+9 
           4090      1.03877e+9 
           4110      9.11443e+8 
           4130      1.05958e+9 
           4150      1.04986e+9 
           4170      1.04074e+9 
           4190      1.02493e+9 
           4210      1.00733e+9 
           4230      9.90434e+8 
           4250      9.73229e+8 
           4270      9.55331e+8 
           4290      9.38994e+8 
           4310      9.17766e+8 
           4330      8.30521e+8 
           4350      7.59531e+8 
           4370      8.70268e+8 
           4390      8.39094e+8 
           4410      8.49535e+8 
           4430      8.33243e+8 
           4450      8.22707e+8 
           4470      7.72902e+8 
           4490      7.95631e+8 
           4510      7.83645e+8 
           4530      7.71031e+8 
           4550      7.58154e+8 
           4570      7.46373e+8 
           4590      7.34483e+8 
           4610      7.22965e+8 
           4630      7.11584e+8 
           4650      6.99029e+8 
           4670      6.89324e+8 
           4690      6.76812e+8 
           4710        6.598e+8 
           4730      6.57886e+8 
           4750      6.47632e+8 
           4770      6.37991e+8 
           4790      6.28241e+8 
           4810       6.1754e+8 
           4830      6.04572e+8 
           4850      5.57122e+8 
           4870      4.99565e+8 
           4890      5.75443e+8 
           4910      5.71155e+8 
           4930      5.50364e+8 
           4950      5.56503e+8 
           4970       5.4848e+8 
           4990        5.404e+8 
           5010      5.25918e+8 
           5030      5.24722e+8 
           5050      5.14193e+8 
           5070      5.09616e+8 
           5090       5.0226e+8 
           5110      4.95047e+8 
           5130      4.87945e+8 
           5150      4.80952e+8 
           5170      4.74138e+8 
           5190      4.67428e+8 
           5210      4.60834e+8 
           5230      4.54355e+8 
           5250      4.47975e+8 
           5270      4.41719e+8 
           5290      4.35572e+8 
           5310      4.29531e+8 
           5330      4.23595e+8 
           5350      4.17762e+8 
           5370       4.1203e+8 
           5390      4.06385e+8 
           5410      4.00695e+8 
           5430      3.95398e+8 
           5450      3.90053e+8 
           5470      3.84789e+8 
           5490      3.79616e+8 
           5510      3.74532e+8 
           5530      3.69524e+8 
           5550      3.64603e+8 
           5570      3.59767e+8 
           5590      3.55015e+8 
           5610      3.50334e+8 
           5630      3.45734e+8 
           5650      3.41213e+8 
           5670      3.36724e+8 
           5690       3.3229e+8 
           5710      3.28072e+8 
           5730      3.23835e+8 
           5750      3.19626e+8 
           5770       3.1557e+8 
           5790      3.11528e+8 
           5810      3.07557e+8 
           5830      3.03643e+8 
           5850      2.99798e+8 
           5870      2.86935e+8 
           5890      2.91777e+8 
           5910      2.88619e+8 
           5930      2.84993e+8 
           5950      2.81442e+8 
           5970      2.77963e+8 
           5990      2.74514e+8 
           6010      2.71126e+8 
           6030      2.67786e+8 
           6050      2.64506e+8 
           6070      2.61273e+8 
           6090      2.58087e+8 
           6110      2.54947e+8 
           6130      2.51862e+8 
           6150      2.48812e+8 
           6170      2.45816e+8 
           6190      2.42864e+8 
           6210      2.39954e+8 
           6230      2.37086e+8 
           6250      2.34269e+8 
           6270      2.31483e+8 
           6290      2.28747e+8 
           6310      2.26041e+8 
           6330      2.23383e+8 
           6350      2.20764e+8 
           6370      2.18182e+8 
           6390      2.15637e+8 
           6410      2.13129e+8 
           6430      2.10666e+8 
           6450       2.0823e+8 
           6470      2.05811e+8 
           6490      2.03444e+8 
           6510       2.0096e+8 
           6530      1.97805e+8 
           6550      1.88819e+8 
           6570      1.68235e+8 
           6590      1.89995e+8 
           6610      1.89528e+8 
           6630      1.87821e+8 
           6650      1.85807e+8 
           6670       1.8179e+8 
           6690      1.79795e+8 
           6710      1.79662e+8 
           6730      1.77656e+8 
           6750      1.75704e+8 
           6770      1.73763e+8 
           6790      1.71834e+8 
           6810      1.69957e+8 
           6830      1.68099e+8 
           6850       1.6626e+8 
           6870      1.64455e+8 
           6890       1.6266e+8 
           6910      1.60899e+8 
           6930      1.59164e+8 
           6950      1.57454e+8 
           6970      1.55761e+8 
           6990      1.54092e+8 
           7010      1.52447e+8 
           7030      1.50819e+8 
           7050      1.49221e+8 
           7070       1.4525e+8 
           7090      1.46073e+8 
           7110      1.44537e+8 
           7130      1.43016e+8 
           7150      1.41517e+8 
           7170      1.40011e+8 
           7190      1.38577e+8 
           7210      1.37135e+8 
           7230      1.35621e+8 
           7250        1.343e+8 
           7270      1.32921e+8 
           7290      1.30449e+8 
           7310       1.3018e+8 
           7330      1.28861e+8 
           7350      1.27547e+8 
           7370      1.26245e+8 
           7390      1.24962e+8 
           7410      1.23699e+8 
           7430      1.22447e+8 
           7450      1.21227e+8 
           7470      1.19998e+8 
           7490      1.18801e+8 
           7510      1.17567e+8 
           7530      1.16432e+8 
           7550      1.15274e+8 
           7570      1.14127e+8 
           7590      1.12996e+8 
           7610      1.11876e+8 
           7630      1.10773e+8 
           7650      1.09686e+8 
           7670      1.08609e+8 
           7690      1.07548e+8 
           7710      1.06496e+8 
           7730       1.0546e+8 
           7750      1.04434e+8 
           7770      1.03416e+8 
           7790       1.0242e+8 
           7810      1.01378e+8 
           7830      1.00455e+8 
           7850      9.95829e+7 
           7870      9.86273e+7 
           7890      9.76377e+7 
           7910      9.67592e+7 
           7930      9.58345e+7 
           7950      9.49237e+7 
           7970      9.38845e+7 
           7990       9.3002e+7 
           8010      9.20508e+7 
           8030      9.11722e+7 
           8050      9.03418e+7 
           8070      8.95591e+7 
           8090      8.85642e+7 
           8110       8.7853e+7 
           8130      8.70964e+7 
           8150      8.62044e+7 
           8170      8.55176e+7 
           8190       8.4623e+7 
           8210      8.36244e+7 
           8230      8.30627e+7 
           8250      8.23339e+7 
           8270       8.1209e+7 
           8290      8.07848e+7 
           8310      8.00854e+7 
           8330      7.93159e+7 
           8350      7.82339e+7 
           8370      7.77852e+7 
           8390        7.719e+7 
           8410      7.64984e+7 
           8430      7.57595e+7 
           8450      7.45782e+7 
           8470      7.43787e+7 
           8490      7.35479e+7 
           8510      7.29477e+7 
           8530       7.2228e+7 
           8550      7.12051e+7 
           8570      7.14938e+7 
           8590      6.91395e+7 
