# Kurucz ODFNEW /NOVER (2003)
# teff = 25000 K (value for the effective temperature for the model. Temperatures are given in K)
# logg = 3.5 log(cm/s2) (value for Log(G) for the model.)
# meta = -2.5  (value for the Metallicity for the model.)
# lh = 1.25  (l/Hp where l is the  mixing length of the convective element and Hp is the pressure scale height)
# vtur = 2 km/s (Microturbulence velocity)
# alpha = 0.4  (Alpha)
#
# column 1: WAVELENGTH (ANGSTROM), Wavelength in Angstrom
# column 2: FLUX (ERG/CM2/S/A), Flux in erg/cm2/s/A
          147.2     8.26471e-14 
            151     3.93136e-13 
          155.2     2.01354e-12 
          158.8     7.60422e-12 
            162     2.35535e-11 
            166     9.09655e-11 
          170.3     3.60777e-10 
          173.4     9.33706e-10 
          176.8      2.54566e-9 
          180.2      6.66921e-9 
          181.7      1.00787e-8 
          186.1      3.25733e-8 
            191      1.12727e-7 
          193.9      2.27447e-7 
          198.4      6.49002e-7 
          201.8      1.38959e-6 
            205      2.77735e-6 
          210.5      8.65597e-6 
          216.2      2.64527e-5 
          219.8      5.19063e-5 
            223      9.26426e-5 
          226.8     0.000180234 
            230      0.00359047 
            234      0.00844813 
            240       0.0201086 
          246.5       0.0491962 
          252.4        0.107213 
          256.8        0.171912 
            260        0.271212 
            264        0.430988 
          268.5         0.71534 
          273.5         1.22811 
          278.5         2.06967 
            284         3.59503 
            290         6.38827 
            296         11.0534 
            301         16.9917 
            308          29.076 
            318         69.0209 
            328         144.901 
            338         292.084 
            348         562.151 
            357         981.573 
            366         1668.11 
            375         2733.35 
            385         4626.48 
            395         7573.22 
            405         12083.8 
            414         18050.9 
            422         25271.3 
            430         34861.2 
            441         53522.1 
            451         77384.7 
            460          105876 
            470          147961 
            480          203261 
            490          275369 
            500          367989 
            506      2.67955e+6 
            512      7.50875e+6 
            520      8.67759e+6 
            530      1.10314e+7 
            540      1.15995e+7 
            550      1.52161e+7 
            560      1.73372e+7 
            570      2.01073e+7 
            580      2.00986e+7 
            590      2.51048e+7 
            600      2.90877e+7 
            610      3.30522e+7 
            620      3.66645e+7 
            630      4.12466e+7 
            640      4.49564e+7 
            650       5.0496e+7 
            658      5.49679e+7 
            665      5.86487e+7 
            675      6.31516e+7 
            685      6.83858e+7 
            695      7.71897e+7 
            705      8.26413e+7 
            716      9.12106e+7 
            726      9.83286e+7 
            735      1.06249e+8 
            745      1.15043e+8 
            755      1.23648e+8 
            765       1.3232e+8 
            775      1.42394e+8 
            785      1.52349e+8 
            795      1.61665e+8 
            805      1.72394e+8 
            815      1.82442e+8 
            825       1.9402e+8 
            835      2.00083e+8 
            845       2.1591e+8 
            855      2.27097e+8 
            865      2.39912e+8 
            875       2.5298e+8 
            885      2.65929e+8 
            895      2.78682e+8 
            905      2.89337e+8 
            915      5.31734e+8 
            925      6.03604e+9 
            935     1.31834e+10 
            945      2.4329e+10 
            955     2.72948e+10 
            965     3.20996e+10 
            975     1.78258e+10 
            985     3.14896e+10 
            995     2.98883e+10 
           1005     3.07333e+10 
           1015      2.9366e+10 
           1025     1.71181e+10 
           1035     2.77715e+10 
           1045     2.99096e+10 
           1055     2.92001e+10 
           1065     2.73314e+10 
           1075     2.77032e+10 
           1085     2.60876e+10 
           1095     2.71683e+10 
           1105     2.61407e+10 
           1115     2.57218e+10 
           1125     2.43503e+10 
           1135     2.49929e+10 
           1145     2.40068e+10 
           1155      2.4097e+10 
           1165     2.37761e+10 
           1175     2.11531e+10 
           1185     2.27684e+10 
           1195     2.17473e+10 
           1205     1.99912e+10 
           1215     1.16327e+10 
           1225     2.03397e+10 
           1235     2.07773e+10 
           1245     2.02816e+10 
           1255     2.00941e+10 
           1265     1.96321e+10 
           1275     1.94573e+10 
           1285     1.90876e+10 
           1295     1.78103e+10 
           1305     1.79219e+10 
           1315     1.80482e+10 
           1325     1.75515e+10 
           1335     1.70238e+10 
           1345     1.69961e+10 
           1355     1.68094e+10 
           1365     1.64006e+10 
           1375     1.61386e+10 
           1385     1.58956e+10 
           1395     1.50293e+10 
           1405     1.49171e+10 
           1415     1.49775e+10 
           1425     1.47401e+10 
           1435     1.45311e+10 
           1442     1.43951e+10 
           1447     1.42582e+10 
           1455     1.40463e+10 
           1465     1.37934e+10 
           1475     1.35554e+10 
           1485     1.33241e+10 
           1495     1.30824e+10 
           1505     1.27571e+10 
           1512     1.26529e+10 
           1517     1.25621e+10 
           1525     1.23727e+10 
           1535     1.19901e+10 
           1545     1.17765e+10 
           1555     1.15369e+10 
           1565     1.15088e+10 
           1575     1.13727e+10 
           1585     1.11911e+10 
           1595     1.10188e+10 
           1605     1.07184e+10 
           1615     1.05361e+10 
           1625     1.04188e+10 
           1635     1.02648e+10 
           1645      9.90374e+9 
           1655      9.97258e+9 
           1665      9.81048e+9 
           1672      9.69414e+9 
           1677      9.67674e+9 
           1685      9.53823e+9 
           1695      9.36492e+9 
           1705      9.19694e+9 
           1715      9.00636e+9 
           1725      8.87464e+9 
           1735      8.77852e+9 
           1745      8.63204e+9 
           1755      8.51585e+9 
           1765      8.31732e+9 
           1775      8.21215e+9 
           1785      8.11105e+9 
           1795      8.00702e+9 
           1805      7.89993e+9 
           1815      7.75456e+9 
           1825      7.64368e+9 
           1835      7.53084e+9 
           1845      7.33167e+9 
           1855      7.14894e+9 
           1865      7.08949e+9 
           1875      7.06379e+9 
           1885       6.8564e+9 
           1895      6.67733e+9 
           1905      6.71215e+9 
           1915      6.52235e+9 
           1925      6.41857e+9 
           1935      6.38812e+9 
           1945      6.34481e+9 
           1955      6.13734e+9 
           1967      6.14116e+9 
           1976      6.10214e+9 
           1984      5.97273e+9 
           1995      5.81144e+9 
           2005      5.82971e+9 
           2015       5.7744e+9 
           2025      5.70796e+9 
           2035      5.59869e+9 
           2045      5.51876e+9 
           2055      5.31459e+9 
           2065      5.22614e+9 
           2074      5.25489e+9 
           2078      5.16575e+9 
           2085      5.18797e+9 
           2095      5.10723e+9 
           2105       5.0851e+9 
           2115      5.03258e+9 
           2125      4.97381e+9 
           2135      4.90311e+9 
           2145      4.82769e+9 
           2155      4.77293e+9 
           2165      4.70845e+9 
           2175      4.64574e+9 
           2185      4.58304e+9 
           2195      4.52792e+9 
           2205      4.46742e+9 
           2215      4.40567e+9 
           2225      4.34881e+9 
           2235      4.29037e+9 
           2245      4.23759e+9 
           2255      4.17742e+9 
           2265      4.12798e+9 
           2275      4.07466e+9 
           2285      4.02248e+9 
           2295      3.93236e+9 
           2305      3.91625e+9 
           2315      3.86808e+9 
           2325      3.81913e+9 
           2335      3.76831e+9 
           2345      3.72316e+9 
           2355      3.67707e+9 
           2365      3.63075e+9 
           2375      3.58461e+9 
           2385      3.53706e+9 
           2395       3.4955e+9 
           2405      3.45269e+9 
           2415      3.40865e+9 
           2425      3.36849e+9 
           2435      3.32582e+9 
           2445      3.28569e+9 
           2455       3.2461e+9 
           2465      3.20667e+9 
           2475      3.16753e+9 
           2485      3.12915e+9 
           2495      3.02986e+9 
           2505      3.05375e+9 
           2513      3.01381e+9 
           2518      3.00447e+9 
           2525      2.98128e+9 
           2535      2.94608e+9 
           2545      2.90186e+9 
           2555      2.87492e+9 
           2565      2.84184e+9 
           2575      2.80969e+9 
           2585      2.77678e+9 
           2595      2.74445e+9 
           2605      2.72986e+9 
           2615      2.69795e+9 
           2625      2.66486e+9 
           2635      2.62866e+9 
           2645       2.5994e+9 
           2655      2.56676e+9 
           2665      2.53454e+9 
           2675       2.5042e+9 
           2685      2.48851e+9 
           2695      2.44476e+9 
           2705      2.43208e+9 
           2715      2.40464e+9 
           2725       2.3615e+9 
           2735       2.3492e+9 
           2745      2.32397e+9 
           2755      2.29824e+9 
           2765      2.25597e+9 
           2775      2.24786e+9 
           2785      2.22277e+9 
           2795      2.18716e+9 
           2805      2.17093e+9 
           2815      2.15035e+9 
           2825      2.10848e+9 
           2835       2.0956e+9 
           2845      2.08076e+9 
           2855      2.05802e+9 
           2865      2.03579e+9 
           2875       2.0139e+9 
           2885      1.99236e+9 
           2895      1.97089e+9 
           2910      1.93932e+9 
           2930      1.89824e+9 
           2950      1.84726e+9 
           2970      1.81956e+9 
           2990      1.78165e+9 
           3010      1.74462e+9 
           3030      1.70907e+9 
           3050      1.67409e+9 
           3070      1.64004e+9 
           3090       1.6055e+9 
           3110      1.57444e+9 
           3130      1.54427e+9 
           3150      1.51341e+9 
           3170      1.48294e+9 
           3190      1.44286e+9 
           3210      1.42471e+9 
           3230      1.39691e+9 
           3250       1.3696e+9 
           3270      1.34462e+9 
           3290      1.31697e+9 
           3310      1.29365e+9 
           3330      1.26901e+9 
           3350       1.2428e+9 
           3370      1.22155e+9 
           3390      1.19872e+9 
           3410      1.17641e+9 
           3430      1.14938e+9 
           3450      1.12425e+9 
           3470      1.10689e+9 
           3490      1.08682e+9 
           3510      1.07208e+9 
           3530       1.0535e+9 
           3550       1.0349e+9 
           3570      1.02074e+9 
           3590      9.97384e+8 
           3610      9.81044e+8 
           3630      9.62173e+8 
           3640      9.59395e+8 
           3650      9.48688e+8 
           3670      9.35635e+8 
           3690      9.09832e+8 
           3710      8.86282e+8 
           3730      8.65024e+8 
           3750       9.2952e+8 
           3770      9.30154e+8 
           3790      9.58419e+8 
           3810      9.90764e+8 
           3830      8.81695e+8 
           3850      9.99207e+8 
           3870       9.8956e+8 
           3890      8.41038e+8 
           3910      9.68308e+8 
           3930      9.48989e+8 
           3950      9.35709e+8 
           3970      7.79876e+8 
           3990      9.01353e+8 
           4010      8.87464e+8 
           4030      8.48452e+8 
           4050      8.63865e+8 
           4070      8.47163e+8 
           4090      8.05072e+8 
           4110      7.17057e+8 
           4130      7.97924e+8 
           4150      7.87123e+8 
           4170       7.7853e+8 
           4190      7.67295e+8 
           4210      7.54772e+8 
           4230       7.4243e+8 
           4250      7.30099e+8 
           4270      7.17738e+8 
           4290      7.06497e+8 
           4310      6.93668e+8 
           4330      6.50645e+8 
           4350      5.98108e+8 
           4370      6.60291e+8 
           4390      6.39764e+8 
           4410      6.41064e+8 
           4430       6.2905e+8 
           4450      6.21449e+8 
           4470      5.93407e+8 
           4490      6.02035e+8 
           4510      5.92874e+8 
           4530      5.83685e+8 
           4550      5.74488e+8 
           4570      5.65647e+8 
           4590      5.57063e+8 
           4610      5.48677e+8 
           4630      5.40379e+8 
           4650      5.31385e+8 
           4670      5.24045e+8 
           4690      5.15697e+8 
           4710      5.02972e+8 
           4730         5.01e+8 
           4750      4.93501e+8 
           4770      4.86325e+8 
           4790      4.79152e+8 
           4810      4.72066e+8 
           4830      4.64143e+8 
           4850      4.40736e+8 
           4870      3.98604e+8 
           4890      4.43528e+8 
           4910      4.38625e+8 
           4930      4.24921e+8 
           4950      4.26245e+8 
           4970      4.20244e+8 
           4990      4.14265e+8 
           5010      4.04225e+8 
           5030      4.02625e+8 
           5050      3.94921e+8 
           5070      3.91401e+8 
           5090      3.85947e+8 
           5110      3.80566e+8 
           5130      3.75285e+8 
           5150      3.70103e+8 
           5170      3.65004e+8 
           5190      3.60001e+8 
           5210      3.55063e+8 
           5230      3.50232e+8 
           5250      3.45477e+8 
           5270      3.40798e+8 
           5290      3.36207e+8 
           5310      3.31688e+8 
           5330      3.27241e+8 
           5350      3.22864e+8 
           5370      3.18569e+8 
           5390      3.14342e+8 
           5410      3.10156e+8 
           5430      3.06099e+8 
           5450      3.02081e+8 
           5470      2.98126e+8 
           5490      2.94245e+8 
           5510      2.90413e+8 
           5530      2.86653e+8 
           5550      2.82952e+8 
           5570      2.79309e+8 
           5590      2.75722e+8 
           5610      2.72192e+8 
           5630      2.68716e+8 
           5650      2.65295e+8 
           5670      2.61927e+8 
           5690      2.58599e+8 
           5710       2.5537e+8 
           5730      2.52167e+8 
           5750      2.48992e+8 
           5770      2.45899e+8 
           5790      2.42844e+8 
           5810      2.39836e+8 
           5830      2.36863e+8 
           5850      2.33947e+8 
           5870      2.25293e+8 
           5890      2.28142e+8 
           5910      2.25457e+8 
           5930      2.22717e+8 
           5950      2.20009e+8 
           5970      2.17354e+8 
           5990      2.14729e+8 
           6010      2.12144e+8 
           6030       2.0961e+8 
           6050      2.07105e+8 
           6070      2.04638e+8 
           6090      2.02209e+8 
           6110      1.99808e+8 
           6130      1.97453e+8 
           6150      1.95125e+8 
           6170      1.92833e+8 
           6190      1.90576e+8 
           6210      1.88354e+8 
           6230      1.86167e+8 
           6250      1.84003e+8 
           6270      1.81873e+8 
           6290      1.79775e+8 
           6310       1.7771e+8 
           6330      1.75677e+8 
           6350      1.73657e+8 
           6370      1.71686e+8 
           6390      1.69736e+8 
           6410      1.67808e+8 
           6430      1.65918e+8 
           6450      1.64049e+8 
           6470      1.62199e+8 
           6490      1.60387e+8 
           6510      1.58594e+8 
           6530      1.56617e+8 
           6550      1.51904e+8 
           6570      1.36955e+8 
           6590      1.50967e+8 
           6610      1.49995e+8 
           6630      1.48354e+8 
           6650      1.46816e+8 
           6670      1.44023e+8 
           6690      1.42481e+8 
           6710      1.42068e+8 
           6730      1.40526e+8 
           6750      1.39009e+8 
           6770      1.37514e+8 
           6790      1.36035e+8 
           6810      1.34571e+8 
           6830      1.33138e+8 
           6850      1.31712e+8 
           6870      1.30315e+8 
           6890      1.28933e+8 
           6910      1.27564e+8 
           6930      1.26217e+8 
           6950      1.24891e+8 
           6970      1.23586e+8 
           6990      1.22279e+8 
           7010      1.21015e+8 
           7030      1.19755e+8 
           7050      1.18508e+8 
           7070      1.15487e+8 
           7090      1.16066e+8 
           7110       1.1487e+8 
           7130      1.13693e+8 
           7150      1.12527e+8 
           7170       1.1135e+8 
           7190      1.10236e+8 
           7210      1.09118e+8 
           7230      1.07968e+8 
           7250      1.06914e+8 
           7270      1.05835e+8 
           7290      1.03943e+8 
           7310        1.037e+8 
           7330      1.02679e+8 
           7350      1.01654e+8 
           7370      1.00638e+8 
           7390      9.96387e+7 
           7410      9.86488e+7 
           7430      9.76748e+7 
           7450      9.67235e+7 
           7470      9.57674e+7 
           7490      9.48269e+7 
           7510      9.38682e+7 
           7530      9.29849e+7 
           7550      9.20766e+7 
           7570      9.11765e+7 
           7590      9.02977e+7 
           7610      8.94204e+7 
           7630      8.85575e+7 
           7650      8.77024e+7 
           7670      8.68614e+7 
           7690      8.60279e+7 
           7710      8.52019e+7 
           7730      8.43959e+7 
           7750      8.35845e+7 
           7770      8.27929e+7 
           7790      8.20144e+7 
           7810      8.11749e+7 
           7830       8.0472e+7 
           7850      7.97996e+7 
           7870      7.90478e+7 
           7890      7.82663e+7 
           7910       7.7576e+7 
           7930      7.67778e+7 
           7950      7.59688e+7 
           7970      7.52143e+7 
           7990      7.45491e+7 
           8010      7.38309e+7 
           8030       7.3189e+7 
           8050      7.25583e+7 
           8070      7.19272e+7 
           8090      7.11346e+7 
           8110      7.05608e+7 
           8130      7.00145e+7 
           8150      6.92403e+7 
           8170      6.87662e+7 
           8190      6.80489e+7 
           8210      6.73153e+7 
           8230      6.69162e+7 
           8250      6.63376e+7 
           8270      6.53947e+7 
           8290      6.50631e+7 
           8310      6.45048e+7 
           8330      6.39131e+7 
           8350      6.30399e+7 
           8370      6.26369e+7 
           8390       6.2162e+7 
           8410      6.15844e+7 
           8430      6.09532e+7 
           8450      6.00847e+7 
           8470       5.9649e+7 
           8490      5.94153e+7 
           8510      5.83352e+7 
           8530      5.85849e+7 
           8550      5.65023e+7 
           8570      5.84035e+7 
