# Kurucz ODFNEW /NOVER (2003)
# teff = 27000 K (value for the effective temperature for the model. Temperatures are given in K)
# logg = 3.5 log(cm/s2) (value for Log(G) for the model.)
# meta = -2  (value for the Metallicity for the model.)
# lh = 1.25  (l/Hp where l is the  mixing length of the convective element and Hp is the pressure scale height)
# vtur = 2 km/s (Microturbulence velocity)
# alpha = 0  (Alpha)
#
# column 1: WAVELENGTH (ANGSTROM), Wavelength in Angstrom
# column 2: FLUX (ERG/CM2/S/A), Flux in erg/cm2/s/A
          147.2      1.7517e-11 
            151     7.04057e-11 
          155.2     3.02875e-10 
          158.8     9.95805e-10 
            162      2.74537e-9 
            166      9.23422e-9 
          170.3      3.19236e-8 
          173.4      7.51628e-8 
          176.8      1.85664e-7 
          180.2      4.43206e-7 
          181.7      6.43928e-7 
          186.1      1.86139e-6 
            191      5.72751e-6 
          193.9      1.08388e-5 
          198.4      2.81026e-5 
          201.8      5.61006e-5 
            205     0.000105269 
          210.5     0.000296663 
          216.2     0.000820879 
          219.8      0.00151793 
            223      0.00257655 
          226.8      0.00473381 
            230        0.533161 
            234         1.35016 
            240         2.81363 
          246.5         6.11394 
          252.4         11.9709 
          256.8         16.3148 
            260         26.3549 
            264         38.3583 
          268.5         59.4993 
          273.5         94.3558 
          278.5         146.403 
            284         236.021 
            290         382.401 
            296         605.065 
            301         839.108 
            308          1263.1 
            318         2853.11 
            328         5301.96 
            338         9662.92 
            348         16775.6 
            357         27037.5 
            366         42623.8 
            375         63727.2 
            385           99880 
            395          150851 
            405          222549 
            414          312337 
            422          411139 
            430          537160 
            441          767363 
            451      1.04461e+6 
            460      1.34777e+6 
            470      1.78797e+6 
            480      2.32251e+6 
            490      2.98496e+6 
            500      3.80241e+6 
            506       3.0549e+7 
            512      9.31405e+7 
            520      9.86407e+7 
            530       1.1124e+8 
            540      1.09058e+8 
            550      1.33406e+8 
            560      1.46019e+8 
            570      1.61406e+8 
            580      1.55877e+8 
            590      1.84393e+8 
            600       1.9975e+8 
            610      2.17908e+8 
            620       2.3427e+8 
            630      2.53108e+8 
            640      2.63361e+8 
            650      2.86323e+8 
            658      3.03566e+8 
            665      3.17893e+8 
            675       3.3072e+8 
            685       3.4502e+8 
            695      3.84236e+8 
            705      3.95614e+8 
            716      4.30245e+8 
            726       4.4983e+8 
            735      4.74433e+8 
            745      5.04028e+8 
            755      5.28786e+8 
            765      5.55041e+8 
            775      5.84778e+8 
            785      6.16853e+8 
            795      6.40295e+8 
            805      6.68843e+8 
            815      6.91666e+8 
            825      7.26752e+8 
            835       7.2447e+8 
            845      7.77017e+8 
            855      8.04298e+8 
            865      8.37316e+8 
            875      8.73004e+8 
            885      9.05767e+8 
            895       9.3568e+8 
            905      9.57664e+8 
            915      1.63647e+9 
            925     1.41701e+10 
            935     2.48745e+10 
            945     3.78959e+10 
            955      4.0841e+10 
            965     4.59167e+10 
            975     2.74824e+10 
            985     4.34886e+10 
            995      4.1287e+10 
           1005     4.25582e+10 
           1015     4.11862e+10 
           1025     2.87722e+10 
           1035     3.90718e+10 
           1045     4.18636e+10 
           1055     4.08334e+10 
           1065     3.79146e+10 
           1075     3.85556e+10 
           1085     3.62417e+10 
           1095      3.7867e+10 
           1105     3.66108e+10 
           1115     3.59813e+10 
           1125     3.38234e+10 
           1135     3.48911e+10 
           1145     3.35803e+10 
           1155        3.36e+10 
           1165     3.31173e+10 
           1175     2.85857e+10 
           1185     3.14481e+10 
           1195     3.05758e+10 
           1205     2.87057e+10 
           1215     1.97985e+10 
           1225     2.88605e+10 
           1235     2.90496e+10 
           1245     2.82275e+10 
           1255     2.80832e+10 
           1265      2.7601e+10 
           1275     2.72161e+10 
           1285     2.67371e+10 
           1295     2.51576e+10 
           1305     2.52248e+10 
           1315     2.52914e+10 
           1325     2.45613e+10 
           1335     2.38227e+10 
           1345     2.38217e+10 
           1355     2.35083e+10 
           1365      2.2967e+10 
           1375     2.25584e+10 
           1385     2.21926e+10 
           1395     2.08476e+10 
           1405      2.0716e+10 
           1415     2.08909e+10 
           1425     2.04076e+10 
           1435     2.02358e+10 
           1442      2.0076e+10 
           1447     1.98638e+10 
           1455     1.95392e+10 
           1465     1.91838e+10 
           1475     1.88449e+10 
           1485     1.85544e+10 
           1495     1.81772e+10 
           1505     1.77618e+10 
           1512     1.75417e+10 
           1517     1.74099e+10 
           1525     1.71256e+10 
           1535     1.63884e+10 
           1545     1.60223e+10 
           1555     1.56673e+10 
           1565     1.57277e+10 
           1575     1.56531e+10 
           1585     1.54547e+10 
           1595     1.52097e+10 
           1605     1.46595e+10 
           1615     1.43915e+10 
           1625     1.42553e+10 
           1635     1.40682e+10 
           1645     1.35129e+10 
           1655     1.37352e+10 
           1665      1.3516e+10 
           1672     1.32935e+10 
           1677     1.34251e+10 
           1685     1.31931e+10 
           1695     1.29355e+10 
           1705     1.26707e+10 
           1715     1.23547e+10 
           1725     1.21873e+10 
           1735     1.21254e+10 
           1745     1.19088e+10 
           1755     1.17398e+10 
           1765     1.14735e+10 
           1775     1.13258e+10 
           1785     1.12119e+10 
           1795     1.10433e+10 
           1805      1.0917e+10 
           1815     1.06836e+10 
           1825     1.05308e+10 
           1835     1.03871e+10 
           1845     1.00443e+10 
           1855       9.8123e+9 
           1865       9.7561e+9 
           1875      9.70953e+9 
           1885      9.35795e+9 
           1895      9.10533e+9 
           1905      9.18844e+9 
           1915       8.9073e+9 
           1925      8.73316e+9 
           1935      8.74123e+9 
           1945      8.69928e+9 
           1955      8.34033e+9 
           1967      8.39642e+9 
           1976      8.37887e+9 
           1984       8.1605e+9 
           1995      7.91591e+9 
           2005      7.97031e+9 
           2015      7.91079e+9 
           2025      7.82908e+9 
           2035      7.64817e+9 
           2045      7.53553e+9 
           2055      6.99564e+9 
           2065      6.85242e+9 
           2074      6.96553e+9 
           2078      6.86597e+9 
           2085      6.98608e+9 
           2095      6.93997e+9 
           2105      6.93243e+9 
           2115      6.87924e+9 
           2125      6.80388e+9 
           2135      6.70087e+9 
           2145        6.589e+9 
           2155      6.52767e+9 
           2165      6.42081e+9 
           2175      6.34996e+9 
           2185      6.24715e+9 
           2195      6.18746e+9 
           2205      6.10171e+9 
           2215       5.9986e+9 
           2225      5.93285e+9 
           2235      5.84843e+9 
           2245      5.77612e+9 
           2255      5.67529e+9 
           2265      5.62088e+9 
           2275       5.5461e+9 
           2285      5.47147e+9 
           2295      5.31646e+9 
           2305      5.30851e+9 
           2315      5.25206e+9 
           2325      5.18307e+9 
           2335      5.11148e+9 
           2345      5.05023e+9 
           2355      4.98414e+9 
           2365      4.91911e+9 
           2375      4.85346e+9 
           2385       4.7745e+9 
           2395      4.72676e+9 
           2405      4.66767e+9 
           2415       4.6063e+9 
           2425       4.5491e+9 
           2435       4.4883e+9 
           2445       4.4327e+9 
           2455      4.37747e+9 
           2465      4.32187e+9 
           2475       4.2666e+9 
           2485      4.21281e+9 
           2495      4.03102e+9 
           2505      4.10612e+9 
           2513      4.02365e+9 
           2518      4.03591e+9 
           2525      4.00612e+9 
           2535      3.95675e+9 
           2545      3.89751e+9 
           2555      3.85633e+9 
           2565      3.81177e+9 
           2575      3.76546e+9 
           2585      3.71958e+9 
           2595      3.67464e+9 
           2605      3.64787e+9 
           2615      3.60327e+9 
           2625      3.55838e+9 
           2635      3.51004e+9 
           2645      3.46815e+9 
           2655      3.42374e+9 
           2665      3.37879e+9 
           2675      3.33694e+9 
           2685       3.3127e+9 
           2695       3.2532e+9 
           2705      3.23347e+9 
           2715      3.19599e+9 
           2725      3.13955e+9 
           2735      3.11301e+9 
           2745      3.08497e+9 
           2755      3.04956e+9 
           2765      2.99349e+9 
           2775      2.97988e+9 
           2785      2.94512e+9 
           2795      2.90103e+9 
           2805      2.87559e+9 
           2815      2.84545e+9 
           2825      2.79084e+9 
           2835      2.76935e+9 
           2845      2.74959e+9 
           2855      2.71803e+9 
           2865      2.68766e+9 
           2875       2.6576e+9 
           2885      2.62812e+9 
           2895      2.59858e+9 
           2910      2.55491e+9 
           2930      2.49891e+9 
           2950      2.43025e+9 
           2970      2.39092e+9 
           2990      2.33898e+9 
           3010      2.28792e+9 
           3030      2.23984e+9 
           3050       2.1923e+9 
           3070      2.14604e+9 
           3090      2.09847e+9 
           3110      2.05668e+9 
           3130      2.01518e+9 
           3150      1.97323e+9 
           3170      1.93195e+9 
           3190        1.879e+9 
           3210      1.85153e+9 
           3230      1.81567e+9 
           3250      1.77888e+9 
           3270      1.74478e+9 
           3290      1.70776e+9 
           3310      1.67611e+9 
           3330      1.64286e+9 
           3350      1.60789e+9 
           3370      1.57905e+9 
           3390      1.54841e+9 
           3410      1.51847e+9 
           3430      1.48256e+9 
           3450      1.44931e+9 
           3470      1.42565e+9 
           3490      1.39856e+9 
           3510      1.37793e+9 
           3530      1.35298e+9 
           3550      1.32807e+9 
           3570      1.30885e+9 
           3590      1.27797e+9 
           3610      1.25619e+9 
           3630      1.23109e+9 
           3640      1.22707e+9 
           3650      1.20149e+9 
           3670       1.1839e+9 
           3690      1.15273e+9 
           3710      1.12096e+9 
           3730      1.09001e+9 
           3750      1.15337e+9 
           3770      1.14886e+9 
           3790      1.17521e+9 
           3810      1.20851e+9 
           3830      1.08584e+9 
           3850       1.2095e+9 
           3870      1.19499e+9 
           3890      1.03518e+9 
           3910      1.16653e+9 
           3930      1.14229e+9 
           3950      1.12653e+9 
           3970      9.58932e+8 
           3990      1.08513e+9 
           4010        1.067e+9 
           4030      1.02398e+9 
           4050        1.037e+9 
           4070       1.0168e+9 
           4090      9.71973e+8 
           4110      8.74533e+8 
           4130      9.58692e+8 
           4150      9.44465e+8 
           4170      9.33585e+8 
           4190      9.19415e+8 
           4210       9.0375e+8 
           4230      8.89329e+8 
           4250      8.74263e+8 
           4270      8.58819e+8 
           4290      8.45569e+8 
           4310      8.30621e+8 
           4330       7.8509e+8 
           4350      7.25407e+8 
           4370      7.90175e+8 
           4390      7.66982e+8 
           4410      7.66143e+8 
           4430      7.52253e+8 
           4450      7.42482e+8 
           4470      7.11606e+8 
           4490      7.19071e+8 
           4510      7.07911e+8 
           4530      6.96809e+8 
           4550      6.85183e+8 
           4570      6.74996e+8 
           4590      6.64513e+8 
           4610      6.54363e+8 
           4630      6.44293e+8 
           4650      6.32648e+8 
           4670      6.24546e+8 
           4690      6.13013e+8 
           4710      5.99684e+8 
           4730      5.96779e+8 
           4750      5.87673e+8 
           4770      5.79112e+8 
           4790      5.70461e+8 
           4810        5.619e+8 
           4830      5.52767e+8 
           4850       5.2807e+8 
           4870      4.80869e+8 
           4890      5.28021e+8 
           4910      5.21681e+8 
           4930      5.06095e+8 
           4950      5.06611e+8 
           4970      4.99415e+8 
           4990      4.92212e+8 
           5010      4.80441e+8 
           5030      4.78206e+8 
           5050      4.69241e+8 
           5070      4.64696e+8 
           5090      4.58114e+8 
           5110      4.51649e+8 
           5130      4.45272e+8 
           5150      4.39022e+8 
           5170      4.32911e+8 
           5190       4.2691e+8 
           5210      4.20988e+8 
           5230      4.15171e+8 
           5250      4.09458e+8 
           5270      4.03833e+8 
           5290      3.98308e+8 
           5310      3.92882e+8 
           5330      3.87552e+8 
           5350      3.82304e+8 
           5370      3.77149e+8 
           5390       3.7206e+8 
           5410      3.66856e+8 
           5430       3.6219e+8 
           5450      3.57355e+8 
           5470      3.52619e+8 
           5490      3.47955e+8 
           5510      3.43374e+8 
           5530      3.38862e+8 
           5550       3.3443e+8 
           5570      3.30054e+8 
           5590      3.25767e+8 
           5610      3.21545e+8 
           5630      3.17387e+8 
           5650      3.13291e+8 
           5670      3.09233e+8 
           5690       3.0519e+8 
           5710      3.01392e+8 
           5730       2.9757e+8 
           5750      2.93761e+8 
           5770      2.90098e+8 
           5790      2.86434e+8 
           5810      2.82848e+8 
           5830      2.79281e+8 
           5850      2.75811e+8 
           5870      2.66019e+8 
           5890      2.68864e+8 
           5910      2.65677e+8 
           5930      2.62388e+8 
           5950      2.59159e+8 
           5970      2.56009e+8 
           5990      2.52874e+8 
           6010      2.49796e+8 
           6030      2.46754e+8 
           6050      2.43777e+8 
           6070      2.40833e+8 
           6090      2.37934e+8 
           6110      2.35077e+8 
           6130      2.32272e+8 
           6150      2.29489e+8 
           6170      2.26767e+8 
           6190      2.24075e+8 
           6210      2.21432e+8 
           6230      2.18819e+8 
           6250      2.16254e+8 
           6270      2.13717e+8 
           6290      2.11217e+8 
           6310      2.08754e+8 
           6330      2.06337e+8 
           6350      2.03946e+8 
           6370      2.01591e+8 
           6390       1.9927e+8 
           6410      1.96983e+8 
           6430       1.9473e+8 
           6450      1.92501e+8 
           6470      1.90305e+8 
           6490      1.88141e+8 
           6510      1.86017e+8 
           6530      1.83749e+8 
           6550      1.78747e+8 
           6570      1.62117e+8 
           6590      1.77139e+8 
           6610      1.75801e+8 
           6630      1.73851e+8 
           6650      1.72006e+8 
           6670      1.68808e+8 
           6690      1.66967e+8 
           6710      1.66375e+8 
           6730      1.64539e+8 
           6750      1.62755e+8 
           6770      1.60973e+8 
           6790      1.59209e+8 
           6810      1.57496e+8 
           6830      1.55783e+8 
           6850      1.54104e+8 
           6870      1.52442e+8 
           6890      1.50804e+8 
           6910      1.49191e+8 
           6930      1.47594e+8 
           6950      1.46028e+8 
           6970      1.44477e+8 
           6990      1.42935e+8 
           7010       1.4143e+8 
           7030      1.39941e+8 
           7050      1.38473e+8 
           7070      1.35038e+8 
           7090      1.35581e+8 
           7110      1.34171e+8 
           7130      1.32775e+8 
           7150      1.31399e+8 
           7170      1.30008e+8 
           7190      1.28695e+8 
           7210      1.27366e+8 
           7230      1.25963e+8 
           7250      1.24761e+8 
           7270      1.23491e+8 
           7290      1.21318e+8 
           7310      1.20973e+8 
           7330      1.19766e+8 
           7350      1.18551e+8 
           7370      1.17353e+8 
           7390      1.16174e+8 
           7410      1.15006e+8 
           7430      1.13855e+8 
           7450      1.12735e+8 
           7470      1.11599e+8 
           7490        1.105e+8 
           7510      1.09365e+8 
           7530       1.0832e+8 
           7550      1.07251e+8 
           7570      1.06198e+8 
           7590      1.05149e+8 
           7610      1.04122e+8 
           7630      1.03105e+8 
           7650      1.02103e+8 
           7670       1.0111e+8 
           7690      1.00126e+8 
           7710      9.91572e+7 
           7730      9.82034e+7 
           7750      9.72456e+7 
           7770      9.63213e+7 
           7790       9.5399e+7 
           7810      9.44231e+7 
           7830      9.35849e+7 
           7850      9.27785e+7 
           7870      9.18879e+7 
           7890      9.09748e+7 
           7910      9.01661e+7 
           7930      8.93105e+7 
           7950       8.8361e+7 
           7970       8.7414e+7 
           7990      8.66642e+7 
           8010      8.58209e+7 
           8030      8.50434e+7 
           8050      8.42958e+7 
           8070       8.3543e+7 
           8090      8.26354e+7 
           8110      8.19304e+7 
           8130      8.12828e+7 
           8150      8.03909e+7 
           8170      7.98172e+7 
           8190      7.90066e+7 
           8210      7.79961e+7 
           8230      7.75007e+7 
           8250      7.68265e+7 
           8270      7.57668e+7 
           8290      7.53469e+7 
           8310        7.469e+7 
           8330      7.40006e+7 
           8350      7.30144e+7 
           8370       7.2526e+7 
           8390      7.19613e+7 
           8410      7.12892e+7 
           8430      7.05696e+7 
           8450       6.9587e+7 
           8470      6.90802e+7 
           8490      6.87447e+7 
           8510      6.75792e+7 
           8530       6.7739e+7 
           8550      6.55466e+7 
           8570      6.73903e+7 
           8590      6.44832e+7 
