# Kurucz ODFNEW /NOVER (2003)
# teff = 27000 K (value for the effective temperature for the model. Temperatures are given in K)
# logg = 5 log(cm/s2) (value for Log(G) for the model.)
# meta = -2  (value for the Metallicity for the model.)
# lh = 1.25  (l/Hp where l is the  mixing length of the convective element and Hp is the pressure scale height)
# vtur = 2 km/s (Microturbulence velocity)
# alpha = 0.4  (Alpha)
#
# column 1: WAVELENGTH (ANGSTROM), Wavelength in Angstrom
# column 2: FLUX (ERG/CM2/S/A), Flux in erg/cm2/s/A
          147.2     5.96898e-12 
            151     2.46978e-11 
          155.2     1.09798e-10 
          158.8     3.71195e-10 
            162        1.049e-9 
            166      3.63783e-9 
          170.3      1.29897e-8 
          173.4      3.12835e-8 
          176.8      7.91731e-8 
          180.2      1.93458e-7 
          181.7      2.83869e-7 
          186.1      8.43652e-7 
            191       2.6738e-6 
          193.9      5.14665e-6 
          198.4      1.36776e-5 
          201.8       2.7789e-5 
            205      5.29779e-5 
          210.5     0.000153208 
          216.2     0.000434151 
          219.8      0.00081425 
            223      0.00139907 
          226.8      0.00260644 
            230       0.0388017 
            234       0.0872884 
            240        0.195213 
          246.5        0.445958 
          252.4        0.919622 
          256.8         1.46484 
            260         2.18197 
            264         3.36195 
          268.5         5.38504 
          273.5         8.90676 
          278.5          14.482 
            284         24.2168 
            290         41.3609 
            296         68.9513 
            301         103.599 
            308         173.377 
            318         378.838 
            328         754.761 
            338         1448.53 
            348          2661.5 
            357         4467.29 
            366         7313.48 
            375         11563.2 
            385         18838.6 
            395           29740 
            405           45846 
            414         66509.5 
            422         90757.4 
            430          122173 
            441          181671 
            451          255597 
            460          341318 
            470          465002 
            480          623288 
            490          824741 
            500      1.07764e+6 
            506      5.50624e+6 
            512      1.98522e+7 
            520      2.29535e+7 
            530      2.91955e+7 
            540      3.00944e+7 
            550      3.86032e+7 
            560      4.29827e+7 
            570      4.90572e+7 
            580      4.88617e+7 
            590      5.95408e+7 
            600       6.7219e+7 
            610      7.51434e+7 
            620      8.20318e+7 
            630      9.09229e+7 
            640      9.75302e+7 
            650      1.08346e+8 
            658      1.16596e+8 
            665      1.23244e+8 
            675      1.31112e+8 
            685      1.40295e+8 
            695      1.56549e+8 
            705      1.66169e+8 
            716      1.80812e+8 
            726      1.93048e+8 
            735      2.06773e+8 
            745      2.21561e+8 
            755      2.36093e+8 
            765      2.50284e+8 
            775      2.66867e+8 
            785      2.83012e+8 
            795      2.97688e+8 
            805        3.149e+8 
            815      3.31154e+8 
            825      3.49251e+8 
            835      3.58826e+8 
            845      3.83143e+8 
            855      3.99783e+8 
            865      4.19907e+8 
            875      4.39356e+8 
            885      4.58963e+8 
            895      4.77928e+8 
            905      4.92263e+8 
            915      6.07645e+8 
            925      2.66406e+9 
            935      6.78025e+9 
            945     2.10207e+10 
            955     3.22797e+10 
            965     4.46909e+10 
            975     1.70221e+10 
            985     5.42947e+10 
            995     5.21319e+10 
           1005     5.45834e+10 
           1015     4.67006e+10 
           1025     1.26735e+10 
           1035     4.11045e+10 
           1045     5.17784e+10 
           1055     5.08218e+10 
           1065     4.69755e+10 
           1075     4.76737e+10 
           1085     4.34996e+10 
           1095     4.61209e+10 
           1105     4.38953e+10 
           1115     4.29145e+10 
           1125     4.00535e+10 
           1135     4.11055e+10 
           1145     3.86492e+10 
           1155     3.88611e+10 
           1165     3.80775e+10 
           1175     3.32354e+10 
           1185     3.58104e+10 
           1195     3.31637e+10 
           1205     2.74032e+10 
           1215      8.96536e+9 
           1225     2.62421e+10 
           1235     3.10453e+10 
           1245     3.06896e+10 
           1255     3.03077e+10 
           1265     2.94702e+10 
           1275     2.92554e+10 
           1285     2.85577e+10 
           1295     2.62808e+10 
           1305     2.62313e+10 
           1315     2.65702e+10 
           1325     2.56299e+10 
           1335     2.47338e+10 
           1345     2.45673e+10 
           1355     2.42922e+10 
           1365     2.34422e+10 
           1375     2.30785e+10 
           1385     2.26325e+10 
           1395     2.11516e+10 
           1405      2.0987e+10 
           1415     2.10395e+10 
           1425     2.06414e+10 
           1435     2.02504e+10 
           1442     2.00561e+10 
           1447     1.98224e+10 
           1455     1.94698e+10 
           1465     1.90276e+10 
           1475     1.86406e+10 
           1485     1.82469e+10 
           1495     1.78671e+10 
           1505     1.72628e+10 
           1512       1.711e+10 
           1517     1.69793e+10 
           1525     1.66753e+10 
           1535     1.60606e+10 
           1545      1.5784e+10 
           1555     1.53831e+10 
           1565     1.53347e+10 
           1575     1.51169e+10 
           1585     1.48289e+10 
           1595     1.45756e+10 
           1605     1.41373e+10 
           1615     1.38526e+10 
           1625     1.37014e+10 
           1635     1.34737e+10 
           1645     1.29876e+10 
           1655     1.30135e+10 
           1665     1.27936e+10 
           1672     1.25894e+10 
           1677      1.2567e+10 
           1685     1.23666e+10 
           1695     1.21091e+10 
           1705     1.18602e+10 
           1715     1.15946e+10 
           1725     1.13913e+10 
           1735     1.12466e+10 
           1745     1.10375e+10 
           1755     1.08725e+10 
           1765     1.05588e+10 
           1775     1.04259e+10 
           1785     1.02734e+10 
           1795     1.01475e+10 
           1805       9.9925e+9 
           1815      9.78526e+9 
           1825      9.63613e+9 
           1835       9.4693e+9 
           1845      9.17967e+9 
           1855      8.94696e+9 
           1865      8.86665e+9 
           1875      8.82547e+9 
           1885      8.53763e+9 
           1895      8.29586e+9 
           1905      8.33398e+9 
           1915      8.08547e+9 
           1925      7.94018e+9 
           1935      7.89686e+9 
           1945      7.84205e+9 
           1955      7.56401e+9 
           1967      7.56479e+9 
           1976      7.52074e+9 
           1984      7.34345e+9 
           1995      7.13727e+9 
           2005      7.15191e+9 
           2015      7.07711e+9 
           2025      6.99241e+9 
           2035      6.84353e+9 
           2045      6.73902e+9 
           2055      6.52979e+9 
           2065      6.43534e+9 
           2074       6.4424e+9 
           2078      6.31555e+9 
           2085      6.30207e+9 
           2095       6.1781e+9 
           2105      6.16835e+9 
           2115       6.1035e+9 
           2125      6.02984e+9 
           2135      5.93704e+9 
           2145      5.83981e+9 
           2155      5.76635e+9 
           2165        5.687e+9 
           2175      5.60201e+9 
           2185      5.52529e+9 
           2195      5.45098e+9 
           2205      5.37321e+9 
           2215      5.29777e+9 
           2225      5.22172e+9 
           2235      5.14712e+9 
           2245      5.08029e+9 
           2255      5.00622e+9 
           2265      4.94111e+9 
           2275      4.87331e+9 
           2285       4.8073e+9 
           2295      4.69733e+9 
           2305       4.6751e+9 
           2315      4.61167e+9 
           2325      4.55034e+9 
           2335      4.48581e+9 
           2345      4.42825e+9 
           2355      4.37197e+9 
           2365      4.31366e+9 
           2375      4.25537e+9 
           2385       4.1977e+9 
           2395      4.14414e+9 
           2405       4.0904e+9 
           2415       4.0356e+9 
           2425      3.98644e+9 
           2435      3.93254e+9 
           2445      3.88317e+9 
           2455      3.83435e+9 
           2465      3.78532e+9 
           2475      3.73696e+9 
           2485      3.68956e+9 
           2495      3.58367e+9 
           2505      3.59558e+9 
           2513      3.54426e+9 
           2518      3.53561e+9 
           2525      3.50652e+9 
           2535      3.46308e+9 
           2545      3.40806e+9 
           2555      3.37549e+9 
           2565      3.33496e+9 
           2575      3.29621e+9 
           2585      3.25616e+9 
           2595      3.21651e+9 
           2605      3.19791e+9 
           2615      3.15945e+9 
           2625      3.12149e+9 
           2635      3.08183e+9 
           2645      3.04393e+9 
           2655      3.00404e+9 
           2665      2.96112e+9 
           2675      2.92017e+9 
           2685      2.90468e+9 
           2695      2.84561e+9 
           2705      2.83604e+9 
           2715      2.80272e+9 
           2725      2.74403e+9 
           2735       2.7367e+9 
           2745      2.70414e+9 
           2755      2.67348e+9 
           2765      2.61722e+9 
           2775      2.61341e+9 
           2785      2.58307e+9 
           2795      2.53038e+9 
           2805      2.51672e+9 
           2815      2.49588e+9 
           2825      2.43628e+9 
           2835      2.41649e+9 
           2845      2.41215e+9 
           2855      2.38488e+9 
           2865      2.35826e+9 
           2875      2.33195e+9 
           2885      2.30617e+9 
           2895      2.28046e+9 
           2910      2.24255e+9 
           2930      2.19317e+9 
           2950      2.12583e+9 
           2970       2.0996e+9 
           2990      2.05416e+9 
           3010      2.01024e+9 
           3030      1.96803e+9 
           3050      1.92659e+9 
           3070      1.88623e+9 
           3090      1.84484e+9 
           3110      1.80841e+9 
           3130      1.77269e+9 
           3150      1.73647e+9 
           3170      1.70064e+9 
           3190      1.64869e+9 
           3210      1.63191e+9 
           3230      1.59869e+9 
           3250      1.56648e+9 
           3270       1.5373e+9 
           3290       1.5045e+9 
           3310      1.47747e+9 
           3330       1.4486e+9 
           3350      1.41762e+9 
           3370      1.39299e+9 
           3390       1.3663e+9 
           3410      1.34018e+9 
           3430      1.30881e+9 
           3450      1.27909e+9 
           3470      1.25891e+9 
           3490      1.23534e+9 
           3510      1.21393e+9 
           3530      1.19281e+9 
           3550      1.17164e+9 
           3570      1.15843e+9 
           3590      1.12726e+9 
           3610      1.11217e+9 
           3630       1.0872e+9 
           3640      1.08723e+9 
           3650      1.07489e+9 
           3670      1.06058e+9 
           3690      1.04236e+9 
           3710      1.00789e+9 
           3730      9.72171e+8 
           3750      9.62847e+8 
           3770      9.36913e+8 
           3790      9.77617e+8 
           3810        1.021e+9 
           3830      8.84546e+8 
           3850      1.05657e+9 
           3870      1.08374e+9 
           3890      8.28291e+8 
           3910      1.06717e+9 
           3930      1.06861e+9 
           3950      1.03478e+9 
           3970      7.69837e+8 
           3990      9.87134e+8 
           4010      9.97764e+8 
           4030      9.24954e+8 
           4050      9.79439e+8 
           4070      9.53553e+8 
           4090       8.4615e+8 
           4110      7.30305e+8 
           4130      8.89429e+8 
           4150      8.87942e+8 
           4170      8.83734e+8 
           4190      8.72271e+8 
           4210      8.57924e+8 
           4230      8.43282e+8 
           4250      8.28586e+8 
           4270      8.12205e+8 
           4290      7.97526e+8 
           4310      7.75581e+8 
           4330      6.76666e+8 
           4350      6.14016e+8 
           4370      7.33913e+8 
           4390      7.05445e+8 
           4410      7.22616e+8 
           4430      7.09714e+8 
           4450      7.00914e+8 
           4470       6.4635e+8 
           4490      6.77306e+8 
           4510       6.6896e+8 
           4530      6.58311e+8 
           4550      6.47642e+8 
           4570      6.37313e+8 
           4590      6.27373e+8 
           4610      6.17704e+8 
           4630      6.08126e+8 
           4650      5.97505e+8 
           4670       5.8922e+8 
           4690      5.80009e+8 
           4710      5.62205e+8 
           4730      5.62647e+8 
           4750      5.53911e+8 
           4770      5.45898e+8 
           4790      5.36752e+8 
           4810      5.26908e+8 
           4830      5.13284e+8 
           4850      4.58658e+8 
           4870      4.06943e+8 
           4890      4.87011e+8 
           4910      4.87005e+8 
           4930      4.66306e+8 
           4950      4.76614e+8 
           4970      4.70086e+8 
           4990      4.63254e+8 
           5010      4.49357e+8 
           5030      4.49856e+8 
           5050      4.40184e+8 
           5070      4.37128e+8 
           5090      4.30893e+8 
           5110      4.24757e+8 
           5130      4.18746e+8 
           5150      4.12801e+8 
           5170      4.07006e+8 
           5190      4.01315e+8 
           5210      3.95659e+8 
           5230      3.90214e+8 
           5250        3.848e+8 
           5270      3.79484e+8 
           5290      3.74264e+8 
           5310      3.69126e+8 
           5330       3.6408e+8 
           5350      3.59099e+8 
           5370      3.54247e+8 
           5390      3.49458e+8 
           5410      3.44742e+8 
           5430      3.40099e+8 
           5450       3.3554e+8 
           5470      3.31076e+8 
           5490      3.26681e+8 
           5510      3.22353e+8 
           5530      3.18092e+8 
           5550      3.13908e+8 
           5570      3.09787e+8 
           5590      3.05742e+8 
           5610      3.01746e+8 
           5630      2.97836e+8 
           5650      2.93949e+8 
           5670      2.90156e+8 
           5690      2.86398e+8 
           5710      2.82777e+8 
           5730      2.79166e+8 
           5750      2.75575e+8 
           5770      2.72118e+8 
           5790      2.68668e+8 
           5810      2.65281e+8 
           5830      2.61935e+8 
           5850      2.58661e+8 
           5870      2.45432e+8 
           5890      2.51369e+8 
           5910       2.4911e+8 
           5930      2.46029e+8 
           5950      2.42984e+8 
           5970      2.40006e+8 
           5990      2.37062e+8 
           6010      2.34172e+8 
           6030      2.31316e+8 
           6050      2.28503e+8 
           6070      2.25742e+8 
           6090      2.23012e+8 
           6110      2.20333e+8 
           6130      2.17695e+8 
           6150      2.15086e+8 
           6170      2.12526e+8 
           6190      2.10005e+8 
           6210      2.07511e+8 
           6230      2.05065e+8 
           6250      2.02645e+8 
           6270      2.00272e+8 
           6290      1.97924e+8 
           6310      1.95612e+8 
           6330      1.93334e+8 
           6350      1.91072e+8 
           6370      1.88871e+8 
           6390      1.86704e+8 
           6410       1.8455e+8 
           6430      1.82438e+8 
           6450      1.80357e+8 
           6470      1.78281e+8 
           6490      1.76164e+8 
           6510      1.73661e+8 
           6530      1.70541e+8 
           6550      1.59894e+8 
           6570      1.40786e+8 
           6590      1.63086e+8 
           6610      1.63825e+8 
           6630      1.62555e+8 
           6650      1.61145e+8 
           6670       1.5708e+8 
           6690      1.55419e+8 
           6710      1.55874e+8 
           6730      1.54151e+8 
           6750      1.52469e+8 
           6770      1.50806e+8 
           6790      1.49142e+8 
           6810      1.47536e+8 
           6830      1.45939e+8 
           6850      1.44365e+8 
           6870      1.42807e+8 
           6890      1.41265e+8 
           6910      1.39754e+8 
           6930      1.38259e+8 
           6950      1.36785e+8 
           6970      1.35335e+8 
           6990      1.33891e+8 
           7010      1.32476e+8 
           7030      1.31083e+8 
           7050      1.29704e+8 
           7070      1.25956e+8 
           7090         1.27e+8 
           7110      1.25676e+8 
           7130      1.24364e+8 
           7150      1.23072e+8 
           7170      1.21786e+8 
           7190      1.20541e+8 
           7210        1.193e+8 
           7230      1.17971e+8 
           7250      1.16862e+8 
           7270      1.15671e+8 
           7290      1.13414e+8 
           7310      1.13309e+8 
           7330       1.1218e+8 
           7350       1.1104e+8 
           7370      1.09925e+8 
           7390      1.08813e+8 
           7410      1.07726e+8 
           7430      1.06642e+8 
           7450      1.05595e+8 
           7470      1.04537e+8 
           7490      1.03503e+8 
           7510      1.02438e+8 
           7530      1.01463e+8 
           7550      1.00463e+8 
           7570       9.9473e+7 
           7590      9.84983e+7 
           7610      9.75324e+7 
           7630      9.65817e+7 
           7650      9.56396e+7 
           7670      9.47124e+7 
           7690      9.37936e+7 
           7710       9.2883e+7 
           7730      9.19869e+7 
           7750       9.1105e+7 
           7770      9.02123e+7 
           7790      8.93648e+7 
           7810       8.8463e+7 
           7830      8.76675e+7 
           7850      8.69218e+7 
           7870      8.60913e+7 
           7890      8.52257e+7 
           7910      8.44822e+7 
           7930      8.36852e+7 
           7950      8.28832e+7 
           7970      8.19754e+7 
           7990      8.12115e+7 
           8010      8.04072e+7 
           8030      7.96449e+7 
           8050      7.89008e+7 
           8070      7.81805e+7 
           8090        7.738e+7 
           8110      7.67124e+7 
           8130       7.6079e+7 
           8150       7.5326e+7 
           8170       7.4715e+7 
           8190      7.39462e+7 
           8210      7.32118e+7 
           8230       7.2723e+7 
           8250       7.2083e+7 
           8270      7.11123e+7 
           8290      7.07641e+7 
           8310       7.0162e+7 
           8330      6.94889e+7 
           8350      6.85405e+7 
           8370      6.81595e+7 
           8390      6.76583e+7 
           8410      6.70546e+7 
           8430      6.64188e+7 
           8450      6.53661e+7 
           8470      6.52573e+7 
           8490      6.45268e+7 
           8510       6.4073e+7 
           8530      6.33587e+7 
           8550      6.27071e+7 
           8570      6.25635e+7 
           8590      6.07408e+7 
