# Kurucz ODFNEW /NOVER (2003)
# teff = 20000 K (value for the effective temperature for the model. Temperatures are given in K)
# logg = 5 log(cm/s2) (value for Log(G) for the model.)
# meta = -1  (value for the Metallicity for the model.)
# lh = 1.25  (l/Hp where l is the  mixing length of the convective element and Hp is the pressure scale height)
# vtur = 2 km/s (Microturbulence velocity)
# alpha = 0.4  (Alpha)
#
# column 1: WAVELENGTH (ANGSTROM), Wavelength in Angstrom
# column 2: FLUX (ERG/CM2/S/A), Flux in erg/cm2/s/A
          147.2     8.99181e-20 
            151     5.55205e-19 
          155.2     3.74742e-18 
          158.8     1.77478e-17 
            162     6.67918e-17 
            166     3.26091e-16 
          170.3     1.65074e-15 
          173.4       5.056e-15 
          176.8     1.64982e-14 
          180.2     5.15067e-14 
          181.7     8.39557e-14 
          186.1     3.36817e-13 
            191     1.46743e-12 
          193.9     3.37719e-12 
          198.4     1.17452e-11 
          201.8     2.91156e-11 
            205     6.66925e-11 
          210.5     2.60232e-10 
          216.2     9.93356e-10 
          219.8      2.23486e-9 
            223      4.48728e-9 
          226.8       1.0025e-8 
            230       2.8907e-8 
            234      7.08862e-8 
            240      2.23428e-7 
          246.5      7.20199e-7 
          252.4      1.98064e-6 
          256.8      4.03486e-6 
            260      6.80008e-6 
            264      1.26458e-5 
          268.5      2.48046e-5 
          273.5      5.10483e-5 
          278.5     0.000102563 
            284     0.000214503 
            290     0.000463901 
            296     0.000969944 
            301      0.00175589 
            308      0.00386709 
            318       0.0114203 
            328       0.0312371 
            338       0.0804776 
            348        0.195781 
            357        0.416933 
            366        0.855063 
            375         1.68635 
            385         3.45201 
            395         6.79187 
            405         12.9065 
            414         22.3691 
            422         35.6688 
            430         55.7576 
            441         100.586 
            451         167.201 
            460         258.654 
            470         411.298 
            480         640.195 
            490         977.378 
            500         1464.17 
            506         13220.2 
            512         37823.3 
            520         48547.1 
            530         69269.1 
            540         82740.9 
            550          119144 
            560          151136 
            570          193930 
            580          213260 
            590          291210 
            600          369268 
            610          456976 
            620          548257 
            630          665384 
            640          780095 
            650          935537 
            658      1.08216e+6 
            665        1.201e+6 
            675      1.38934e+6 
            685      1.61924e+6 
            695      1.90968e+6 
            705      2.19136e+6 
            716      2.54775e+6 
            726      2.90033e+6 
            735      3.27214e+6 
            745      3.72742e+6 
            755      4.22394e+6 
            765      4.72984e+6 
            775      5.33646e+6 
            785      5.96751e+6 
            795      6.60919e+6 
            805      7.35059e+6 
            815      8.10942e+6 
            825      8.97675e+6 
            835      9.72426e+6 
            845      1.07633e+7 
            855       1.1739e+7 
            865      1.28815e+7 
            875      1.40073e+7 
            885       1.5313e+7 
            895      1.65916e+7 
            905      1.76119e+7 
            915      2.60134e+7 
            925      8.01077e+7 
            935      1.78944e+8 
            945      8.43462e+8 
            955      2.84241e+9 
            965      4.26398e+9 
            975       1.0234e+9 
            985      8.89069e+9 
            995     1.02696e+10 
           1005     1.08432e+10 
           1015      6.73065e+9 
           1025      5.49913e+8 
           1035       4.8437e+9 
           1045     1.14541e+10 
           1055     1.20459e+10 
           1065     1.06446e+10 
           1075     1.19197e+10 
           1085     1.10469e+10 
           1095     1.17685e+10 
           1105     1.06164e+10 
           1115     1.03735e+10 
           1125      9.86633e+9 
           1135     1.05978e+10 
           1145      9.50024e+9 
           1155     1.00199e+10 
           1165     1.00801e+10 
           1175      8.56126e+9 
           1185      9.51277e+9 
           1195      6.93771e+9 
           1205      3.80615e+9 
           1215      5.62966e+8 
           1225      3.16949e+9 
           1235       7.2719e+9 
           1245      8.22253e+9 
           1255      8.12479e+9 
           1265      7.76872e+9 
           1275      8.20815e+9 
           1285       8.1936e+9 
           1295      6.69409e+9 
           1305      6.19814e+9 
           1315      7.72511e+9 
           1325      7.41088e+9 
           1335      7.03647e+9 
           1345       7.1917e+9 
           1355       7.0843e+9 
           1365      6.78031e+9 
           1375      6.72409e+9 
           1385      6.72908e+9 
           1395      6.25254e+9 
           1405      6.33657e+9 
           1415       6.3064e+9 
           1425      6.24715e+9 
           1435       6.1752e+9 
           1442      6.23587e+9 
           1447      6.15975e+9 
           1455      6.02831e+9 
           1465      5.86537e+9 
           1475      5.74127e+9 
           1485      5.55299e+9 
           1495      5.53592e+9 
           1505      5.29162e+9 
           1512      5.14238e+9 
           1517      5.23721e+9 
           1525      5.15065e+9 
           1535      4.90149e+9 
           1545      4.98771e+9 
           1555      4.76578e+9 
           1565      4.70399e+9 
           1575      4.78888e+9 
           1585      4.71814e+9 
           1595      4.71618e+9 
           1605      4.55318e+9 
           1615      4.49148e+9 
           1625       4.4074e+9 
           1635      4.39283e+9 
           1645      4.32539e+9 
           1655      4.15416e+9 
           1665      4.26708e+9 
           1672       4.0968e+9 
           1677      4.16752e+9 
           1685      4.14701e+9 
           1695      4.03909e+9 
           1705      3.90917e+9 
           1715      3.78686e+9 
           1725      3.73852e+9 
           1735       3.7565e+9 
           1745      3.67138e+9 
           1755      3.68336e+9 
           1765      3.45901e+9 
           1775       3.5329e+9 
           1785      3.47735e+9 
           1795      3.49542e+9 
           1805      3.43274e+9 
           1815       3.3375e+9 
           1825      3.34197e+9 
           1835       3.2666e+9 
           1845      3.12205e+9 
           1855      3.04907e+9 
           1865       3.0327e+9 
           1875      3.07952e+9 
           1885      2.93646e+9 
           1895       2.8362e+9 
           1905      2.91229e+9 
           1915      2.81374e+9 
           1925      2.76384e+9 
           1935      2.77187e+9 
           1945      2.78149e+9 
           1955      2.66134e+9 
           1967       2.7129e+9 
           1976      2.73146e+9 
           1984      2.63416e+9 
           1995      2.55711e+9 
           2005      2.57852e+9 
           2015      2.54204e+9 
           2025      2.56376e+9 
           2035      2.48841e+9 
           2045      2.46152e+9 
           2055      2.36929e+9 
           2065      2.38765e+9 
           2074      2.38764e+9 
           2078      2.35142e+9 
           2085      2.35385e+9 
           2095      2.28946e+9 
           2105      2.29624e+9 
           2115      2.27399e+9 
           2125      2.27266e+9 
           2135      2.23002e+9 
           2145      2.19232e+9 
           2155       2.1837e+9 
           2165      2.14228e+9 
           2175      2.11649e+9 
           2185      2.09369e+9 
           2195      2.08404e+9 
           2205       2.0438e+9 
           2215      2.01087e+9 
           2225      1.97244e+9 
           2235      1.97535e+9 
           2245      1.94964e+9 
           2255      1.91394e+9 
           2265      1.90692e+9 
           2275      1.88182e+9 
           2285      1.87087e+9 
           2295      1.82785e+9 
           2305      1.81337e+9 
           2315      1.78677e+9 
           2325      1.77206e+9 
           2335      1.72672e+9 
           2345      1.68421e+9 
           2355      1.69541e+9 
           2365      1.65349e+9 
           2375      1.65168e+9 
           2385      1.61494e+9 
           2395      1.61817e+9 
           2405      1.59165e+9 
           2415      1.57268e+9 
           2425      1.57441e+9 
           2435      1.54085e+9 
           2445      1.53054e+9 
           2455      1.52441e+9 
           2465      1.49359e+9 
           2475      1.48216e+9 
           2485      1.47386e+9 
           2495      1.43653e+9 
           2505      1.44381e+9 
           2513      1.41352e+9 
           2518      1.42092e+9 
           2525       1.3961e+9 
           2535      1.37162e+9 
           2545      1.35912e+9 
           2555      1.36777e+9 
           2565      1.34499e+9 
           2575      1.34388e+9 
           2585      1.33193e+9 
           2595      1.31709e+9 
           2605      1.30395e+9 
           2615      1.29201e+9 
           2625      1.27825e+9 
           2635      1.26498e+9 
           2645      1.27073e+9 
           2655      1.25599e+9 
           2665       1.2321e+9 
           2675      1.22633e+9 
           2685      1.21868e+9 
           2695      1.19658e+9 
           2705      1.19259e+9 
           2715      1.17605e+9 
           2725      1.15536e+9 
           2735      1.15619e+9 
           2745      1.12258e+9 
           2755      1.11629e+9 
           2765      1.10936e+9 
           2775      1.11327e+9 
           2785      1.09912e+9 
           2795      1.05592e+9 
           2805      1.06938e+9 
           2815      1.07144e+9 
           2825      1.05056e+9 
           2835      1.03388e+9 
           2845       1.0343e+9 
           2855       1.0273e+9 
           2865      1.02046e+9 
           2875      1.00873e+9 
           2885      1.00007e+9 
           2895      9.91199e+8 
           2910      9.77091e+8 
           2930      9.53705e+8 
           2950      9.32808e+8 
           2970      9.22936e+8 
           2990      9.04183e+8 
           3010      8.89504e+8 
           3030      8.73697e+8 
           3050      8.57416e+8 
           3070      8.41724e+8 
           3090      8.26129e+8 
           3110      8.11058e+8 
           3130      7.97689e+8 
           3150      7.83149e+8 
           3170      7.69324e+8 
           3190      7.49231e+8 
           3210      7.41898e+8 
           3230      7.29164e+8 
           3250      7.16615e+8 
           3270      7.04881e+8 
           3290      6.92196e+8 
           3310      6.81071e+8 
           3330      6.69449e+8 
           3350      6.57216e+8 
           3370      6.46951e+8 
           3390       6.3616e+8 
           3410      6.25609e+8 
           3430      6.14076e+8 
           3450      6.02767e+8 
           3470      5.93805e+8 
           3490      5.84173e+8 
           3510      5.74966e+8 
           3530      5.66293e+8 
           3550      5.56911e+8 
           3570       5.4989e+8 
           3590      5.38577e+8 
           3610      5.31325e+8 
           3630      5.21684e+8 
           3640      5.20016e+8 
           3650      5.14569e+8 
           3670      5.08444e+8 
           3690      5.00541e+8 
           3710      4.85031e+8 
           3730      4.62596e+8 
           3750      4.69998e+8 
           3770       4.6619e+8 
           3790      5.05633e+8 
           3810       5.4207e+8 
           3830      4.60533e+8 
           3850      5.72395e+8 
           3870      6.04477e+8 
           3890      4.24751e+8 
           3910      5.99811e+8 
           3930      6.10357e+8 
           3950       5.8461e+8 
           3970      3.99033e+8 
           3990      5.55104e+8 
           4010      5.77133e+8 
           4030      5.35418e+8 
           4050      5.69969e+8 
           4070      5.51782e+8 
           4090      4.65977e+8 
           4110      3.91201e+8 
           4130      5.11239e+8 
           4150      5.18726e+8 
           4170      5.17792e+8 
           4190      5.12174e+8 
           4210      5.05151e+8 
           4230      4.96827e+8 
           4250       4.8797e+8 
           4270      4.77149e+8 
           4290      4.69599e+8 
           4310      4.53225e+8 
           4330      3.74823e+8 
           4350      3.36205e+8 
           4370      4.28358e+8 
           4390      4.16859e+8 
           4410      4.28661e+8 
           4430      4.21152e+8 
           4450      4.16614e+8 
           4470      3.84292e+8 
           4490      4.01058e+8 
           4510      3.99231e+8 
           4530      3.92887e+8 
           4550      3.86929e+8 
           4570      3.81241e+8 
           4590      3.75655e+8 
           4610      3.70062e+8 
           4630      3.64429e+8 
           4650       3.5874e+8 
           4670       3.5386e+8 
           4690      3.48862e+8 
           4710      3.37958e+8 
           4730       3.3807e+8 
           4750      3.32858e+8 
           4770      3.28466e+8 
           4790      3.22921e+8 
           4810      3.16268e+8 
           4830      3.05774e+8 
           4850      2.61408e+8 
           4870      2.28513e+8 
           4890      2.89242e+8 
           4910      2.93235e+8 
           4930      2.82351e+8 
           4950      2.88484e+8 
           4970      2.85328e+8 
           4990       2.8132e+8 
           5010       2.7279e+8 
           5030       2.7335e+8 
           5050      2.66491e+8 
           5070      2.66225e+8 
           5090      2.62567e+8 
           5110      2.58914e+8 
           5130      2.55453e+8 
           5150      2.51967e+8 
           5170      2.48683e+8 
           5190      2.45329e+8 
           5210      2.41367e+8 
           5230      2.38878e+8 
           5250      2.35722e+8 
           5270      2.32566e+8 
           5290      2.29585e+8 
           5310      2.26563e+8 
           5330      2.23527e+8 
           5350      2.20437e+8 
           5370      2.17845e+8 
           5390      2.15025e+8 
           5410      2.12202e+8 
           5430      2.09237e+8 
           5450      2.06714e+8 
           5470      2.04022e+8 
           5490      2.01613e+8 
           5510      1.98998e+8 
           5530       1.9649e+8 
           5550      1.94049e+8 
           5570      1.91577e+8 
           5590       1.8922e+8 
           5610       1.8676e+8 
           5630      1.84568e+8 
           5650      1.81847e+8 
           5670      1.79735e+8 
           5690      1.77729e+8 
           5710      1.75619e+8 
           5730      1.73478e+8 
           5750       1.7135e+8 
           5770      1.69293e+8 
           5790      1.67238e+8 
           5810      1.65184e+8 
           5830       1.6321e+8 
           5850      1.61249e+8 
           5870      1.53799e+8 
           5890       1.5684e+8 
           5910      1.55543e+8 
           5930      1.53724e+8 
           5950      1.51756e+8 
           5970      1.50107e+8 
           5990      1.48234e+8 
           6010      1.46624e+8 
           6030      1.44907e+8 
           6050      1.43219e+8 
           6070      1.41551e+8 
           6090      1.39902e+8 
           6110      1.38311e+8 
           6130      1.36719e+8 
           6150      1.35054e+8 
           6170      1.33596e+8 
           6190      1.32095e+8 
           6210      1.30591e+8 
           6230      1.29103e+8 
           6250      1.27584e+8 
           6270      1.26206e+8 
           6290      1.24786e+8 
           6310      1.23353e+8 
           6330       1.2201e+8 
           6350      1.20215e+8 
           6370      1.19044e+8 
           6390      1.17977e+8 
           6410      1.16646e+8 
           6430       1.1542e+8 
           6450      1.14126e+8 
           6470      1.12773e+8 
           6490      1.11301e+8 
           6510      1.09685e+8 
           6530      1.07168e+8 
           6550      9.79878e+7 
           6570      8.54134e+7 
           6590      1.01825e+8 
           6610      1.03563e+8 
           6630      1.03059e+8 
           6650      1.02176e+8 
           6670      1.00057e+8 
           6690      9.91316e+7 
           6710      9.91941e+7 
           6730      9.81563e+7 
           6750       9.7129e+7 
           6770      9.61121e+7 
           6790       9.5081e+7 
           6810       9.4109e+7 
           6830      9.31145e+7 
           6850      9.21621e+7 
           6870      9.12112e+7 
           6890      9.02698e+7 
           6910      8.93377e+7 
           6930      8.83992e+7 
           6950      8.75168e+7 
           6970      8.66198e+7 
           6990      8.57316e+7 
           7010      8.48598e+7 
           7030      8.39965e+7 
           7050      8.31416e+7 
           7070      8.11494e+7 
           7090      8.14866e+7 
           7110      8.06711e+7 
           7130      7.98635e+7 
           7150      7.90563e+7 
           7170      7.82787e+7 
           7190      7.75013e+7 
           7210      7.67386e+7 
           7230      7.58318e+7 
           7250      7.52205e+7 
           7270      7.44864e+7 
           7290      7.32843e+7 
           7310      7.30319e+7 
           7330      7.23254e+7 
           7350      7.16185e+7 
           7370      7.09252e+7 
           7390      7.02383e+7 
           7410      6.95577e+7 
           7430      6.88699e+7 
           7450      6.82291e+7 
           7470      6.75672e+7 
           7490      6.69214e+7 
           7510      6.62782e+7 
           7530      6.56575e+7 
           7550      6.50358e+7 
           7570      6.44211e+7 
           7590      6.38107e+7 
           7610       6.3211e+7 
           7630      6.26166e+7 
           7650       6.2029e+7 
           7670      6.14485e+7 
           7690      6.08744e+7 
           7710       6.0308e+7 
           7730      5.97467e+7 
           7750      5.91935e+7 
           7770      5.84224e+7 
           7790      5.81054e+7 
           7810      5.75574e+7 
           7830      5.70426e+7 
           7850      5.64986e+7 
           7870      5.59776e+7 
           7890      5.54188e+7 
           7910      5.50143e+7 
           7930      5.45155e+7 
           7950      5.39769e+7 
           7970       5.3529e+7 
           7990      5.29816e+7 
           8010      5.25741e+7 
           8030      5.21022e+7 
           8050      5.16355e+7 
           8070      5.11745e+7 
           8090      5.06985e+7 
           8110      5.02586e+7 
           8130      4.98167e+7 
           8150      4.93609e+7 
           8170      4.89452e+7 
           8190      4.84795e+7 
           8210      4.79742e+7 
           8230      4.75895e+7 
           8250      4.72328e+7 
           8270      4.67353e+7 
           8290      4.64289e+7 
           8310      4.60464e+7 
           8330      4.56458e+7 
           8350      4.51578e+7 
           8370      4.48406e+7 
           8390      4.45046e+7 
           8410      4.41184e+7 
           8430      4.37211e+7 
           8450      4.31361e+7 
           8470      4.29516e+7 
           8490      4.25268e+7 
           8510      4.21289e+7 
           8530      4.17887e+7 
           8550      4.11193e+7 
           8570      4.12723e+7 
           8590       4.0096e+7 
