# Kurucz ODFNEW /NOVER (2003)
# teff = 19000 K (value for the effective temperature for the model. Temperatures are given in K)
# logg = 3 log(cm/s2) (value for Log(G) for the model.)
# meta = -2.5  (value for the Metallicity for the model.)
# lh = 1.25  (l/Hp where l is the  mixing length of the convective element and Hp is the pressure scale height)
# vtur = 2 km/s (Microturbulence velocity)
# alpha = 0.4  (Alpha)
#
# column 1: WAVELENGTH (ANGSTROM), Wavelength in Angstrom
# column 2: FLUX (ERG/CM2/S/A), Flux in erg/cm2/s/A
          147.2      6.0926e-22 
            151     4.86769e-21 
          155.2     4.19067e-20 
          158.8     2.41807e-19 
            162     1.07497e-18 
            166     6.39193e-18 
          170.3     3.95018e-17 
          173.4     1.38713e-16 
          176.8     5.22281e-16 
          180.2      1.8681e-15 
          181.7     3.22734e-15 
          186.1     1.52299e-14 
            191     7.86112e-14 
          193.9     1.99441e-13 
          198.4     8.00019e-13 
          201.8     2.18998e-12 
            205     5.47412e-12 
          210.5     2.47088e-11 
          216.2     1.08306e-10 
          219.8     2.64331e-10 
            223     5.69689e-10 
          226.8      1.37682e-9 
            230      3.44177e-9 
            234      8.43713e-9 
            240      2.88846e-8 
          246.5      1.02121e-7 
          252.4      3.03716e-7 
          256.8      6.58386e-7 
            260      1.14373e-6 
            264      2.22629e-6 
          268.5      4.59226e-6 
          273.5      9.97044e-6 
          278.5      2.10381e-5 
            284      4.63233e-5 
            290     0.000105717 
            296     0.000232829 
            301     0.000438515 
            308      0.00102347 
            318      0.00322487 
            328      0.00941473 
            338       0.0256938 
            348       0.0659457 
            357        0.146762 
            366        0.313238 
            375        0.642764 
            385         1.36937 
            395         2.79894 
            405         5.50653 
            414         9.82245 
            422         16.0633 
            430         25.7496 
            441         47.7883 
            451          81.465 
            460         128.818 
            470         209.546 
            480         333.285 
            490         519.137 
            500         792.804 
            506         5702.68 
            512         16962.2 
            520         22527.1 
            530         35818.1 
            540         39997.1 
            550         63164.8 
            560         81058.1 
            570          104151 
            580          105614 
            590          148592 
            600          204323 
            610          253860 
            620          309273 
            630          376530 
            640          448608 
            650          541251 
            658          624527 
            665          701297 
            675          818333 
            685          956787 
            695      1.13239e+6 
            705      1.30871e+6 
            716       1.5313e+6 
            726      1.75415e+6 
            735      1.99235e+6 
            745      2.27629e+6 
            755       2.5857e+6 
            765      2.91785e+6 
            775       3.2959e+6 
            785      3.70044e+6 
            795      4.13438e+6 
            805      4.61168e+6 
            815      5.11776e+6 
            825      5.67786e+6 
            835      6.19647e+6 
            845      6.89591e+6 
            855      7.55082e+6 
            865      8.30519e+6 
            875      9.07743e+6 
            885      9.91721e+6 
            895      1.07861e+7 
            905      1.15748e+7 
            915      2.54127e+7 
            925      3.94652e+8 
            935      1.53678e+9 
            945      4.18837e+9 
            955      5.31785e+9 
            965      6.61767e+9 
            975      2.90977e+9 
            985      7.12436e+9 
            995       6.9111e+9 
           1005      7.12449e+9 
           1015      6.69079e+9 
           1025      2.66533e+9 
           1035        6.089e+9 
           1045      7.28603e+9 
           1055      7.14957e+9 
           1065      6.67483e+9 
           1075      6.96752e+9 
           1085      6.61279e+9 
           1095      6.93997e+9 
           1105      6.58877e+9 
           1115      6.61809e+9 
           1125       6.3426e+9 
           1135      6.54044e+9 
           1145      6.28014e+9 
           1155      6.42828e+9 
           1165      6.38613e+9 
           1175      5.79846e+9 
           1185      6.22684e+9 
           1195      5.73289e+9 
           1205      4.79621e+9 
           1215       1.6546e+9 
           1225      4.99059e+9 
           1235      5.69556e+9 
           1245      5.72158e+9 
           1255      5.60134e+9 
           1265      5.53503e+9 
           1275      5.58365e+9 
           1285      5.49754e+9 
           1295      5.05578e+9 
           1305      5.06774e+9 
           1315      5.28398e+9 
           1325      5.14702e+9 
           1335      4.95499e+9 
           1345       5.0459e+9 
           1355      5.02792e+9 
           1365      4.91954e+9 
           1375      4.85661e+9 
           1385      4.81953e+9 
           1395      4.62969e+9 
           1405      4.62051e+9 
           1415      4.61301e+9 
           1425      4.56481e+9 
           1435      4.52428e+9 
           1442       4.4955e+9 
           1447      4.46179e+9 
           1455      4.40841e+9 
           1465      4.34633e+9 
           1475      4.29071e+9 
           1485      4.22885e+9 
           1495      4.16876e+9 
           1505       4.0841e+9 
           1512      4.05198e+9 
           1517       4.0407e+9 
           1525      3.98707e+9 
           1535       3.8771e+9 
           1545      3.87473e+9 
           1555      3.79468e+9 
           1565      3.78925e+9 
           1575       3.7548e+9 
           1585      3.70517e+9 
           1595      3.66493e+9 
           1605      3.57743e+9 
           1615      3.53009e+9 
           1625      3.51388e+9 
           1635      3.47977e+9 
           1645      3.41699e+9 
           1655      3.38599e+9 
           1665      3.35482e+9 
           1672      3.27841e+9 
           1677      3.30886e+9 
           1685       3.2738e+9 
           1695      3.22073e+9 
           1705      3.17114e+9 
           1715      3.11505e+9 
           1725      3.08448e+9 
           1735      3.05441e+9 
           1745      3.01134e+9 
           1755      2.98923e+9 
           1765       2.9003e+9 
           1775      2.89498e+9 
           1785      2.86795e+9 
           1795      2.84357e+9 
           1805      2.81065e+9 
           1815      2.76558e+9 
           1825      2.73898e+9 
           1835      2.70507e+9 
           1845       2.6383e+9 
           1855      2.57348e+9 
           1865      2.56058e+9 
           1875      2.56613e+9 
           1885      2.49211e+9 
           1895      2.42979e+9 
           1905      2.45895e+9 
           1915      2.39327e+9 
           1925      2.36288e+9 
           1935      2.36015e+9 
           1945      2.35049e+9 
           1955      2.28037e+9 
           1967      2.29051e+9 
           1976      2.28175e+9 
           1984       2.2363e+9 
           1995      2.18303e+9 
           2005      2.19354e+9 
           2015      2.18008e+9 
           2025      2.16228e+9 
           2035      2.12471e+9 
           2045      2.10011e+9 
           2055      2.04528e+9 
           2065      2.03709e+9 
           2074      2.04529e+9 
           2078       2.0061e+9 
           2085       2.0073e+9 
           2095      1.96956e+9 
           2105      1.96432e+9 
           2115      1.94722e+9 
           2125      1.93211e+9 
           2135      1.90851e+9 
           2145      1.88192e+9 
           2155      1.86628e+9 
           2165      1.84538e+9 
           2175      1.82375e+9 
           2185      1.80496e+9 
           2195      1.78676e+9 
           2205      1.76617e+9 
           2215      1.74665e+9 
           2225      1.72558e+9 
           2235      1.70784e+9 
           2245      1.69071e+9 
           2255      1.67079e+9 
           2265      1.65431e+9 
           2275      1.63608e+9 
           2285      1.61963e+9 
           2295      1.59367e+9 
           2305      1.58434e+9 
           2315      1.56604e+9 
           2325      1.55023e+9 
           2335         1.53e+9 
           2345      1.51123e+9 
           2355       1.5012e+9 
           2365      1.48274e+9 
           2375      1.46848e+9 
           2385      1.44937e+9 
           2395      1.43572e+9 
           2405      1.42172e+9 
           2415      1.40538e+9 
           2425      1.39503e+9 
           2435      1.37934e+9 
           2445      1.36543e+9 
           2455      1.35246e+9 
           2465      1.33766e+9 
           2475      1.32441e+9 
           2485      1.31073e+9 
           2495      1.28656e+9 
           2505      1.28412e+9 
           2513      1.26999e+9 
           2518      1.26602e+9 
           2525      1.25718e+9 
           2535      1.24382e+9 
           2545      1.22854e+9 
           2555      1.22085e+9 
           2565      1.20676e+9 
           2575      1.19713e+9 
           2585      1.18501e+9 
           2595      1.17304e+9 
           2605      1.16999e+9 
           2615      1.15913e+9 
           2625      1.14676e+9 
           2635      1.13178e+9 
           2645      1.12426e+9 
           2655      1.11228e+9 
           2665      1.10013e+9 
           2675      1.08939e+9 
           2685      1.08453e+9 
           2695      1.06716e+9 
           2705      1.06346e+9 
           2715      1.05303e+9 
           2725      1.03553e+9 
           2735      1.03295e+9 
           2745      1.01974e+9 
           2755      1.01066e+9 
           2765       9.9568e+8 
           2775       9.9424e+8 
           2785      9.84587e+8 
           2795      9.62509e+8 
           2805      9.60015e+8 
           2815      9.57248e+8 
           2825      9.40428e+8 
           2835      9.35399e+8 
           2845      9.30417e+8 
           2855      9.21831e+8 
           2865      9.13434e+8 
           2875      9.04903e+8 
           2885      8.96558e+8 
           2895      8.88307e+8 
           2910      8.76059e+8 
           2930      8.59752e+8 
           2950      8.39779e+8 
           2970      8.29318e+8 
           2990        8.143e+8 
           3010      7.99855e+8 
           3030      7.85761e+8 
           3050      7.71885e+8 
           3070      7.58303e+8 
           3090       7.4485e+8 
           3110      7.32028e+8 
           3130      7.20204e+8 
           3150      7.07632e+8 
           3170       6.9517e+8 
           3190      6.78706e+8 
           3210      6.71664e+8 
           3230      6.60231e+8 
           3250      6.49027e+8 
           3270      6.38751e+8 
           3290      6.27354e+8 
           3310      6.17664e+8 
           3330      6.07447e+8 
           3350      5.96557e+8 
           3370      5.87673e+8 
           3390      5.78104e+8 
           3410      5.68718e+8 
           3430      5.57462e+8 
           3450      5.46903e+8 
           3470      5.39584e+8 
           3490      5.31438e+8 
           3510      5.25399e+8 
           3530      5.17316e+8 
           3550      5.09231e+8 
           3570      5.02862e+8 
           3590      4.93094e+8 
           3610      4.85825e+8 
           3630      4.77798e+8 
           3640      4.76286e+8 
           3650      4.72237e+8 
           3670       4.6593e+8 
           3690      4.48774e+8 
           3710      4.55581e+8 
           3730      4.64356e+8 
           3750      5.27515e+8 
           3770      5.31634e+8 
           3790      5.49039e+8 
           3810      5.72279e+8 
           3830      5.05759e+8 
           3850      5.81672e+8 
           3870      5.75172e+8 
           3890      4.85124e+8 
           3910      5.65288e+8 
           3930      5.53939e+8 
           3950      5.47619e+8 
           3970      4.51309e+8 
           3990      5.28838e+8 
           4010      5.20764e+8 
           4030         4.99e+8 
           4050      5.08163e+8 
           4070      4.99451e+8 
           4090      4.75548e+8 
           4110      4.19057e+8 
           4130      4.71505e+8 
           4150      4.65747e+8 
           4170        4.609e+8 
           4190      4.55116e+8 
           4210      4.48145e+8 
           4230      4.41264e+8 
           4250      4.34493e+8 
           4270      4.27519e+8 
           4290      4.21393e+8 
           4310      4.14429e+8 
           4330      3.88506e+8 
           4350      3.54839e+8 
           4370       3.9567e+8 
           4390       3.8396e+8 
           4410      3.84863e+8 
           4430      3.77653e+8 
           4450      3.73676e+8 
           4470      3.57669e+8 
           4490        3.626e+8 
           4510      3.57521e+8 
           4530      3.52315e+8 
           4550      3.47186e+8 
           4570       3.4217e+8 
           4590      3.37299e+8 
           4610      3.32482e+8 
           4630      3.27735e+8 
           4650      3.22936e+8 
           4670      3.18483e+8 
           4690      3.13991e+8 
           4710      3.06236e+8 
           4730      3.05184e+8 
           4750      3.00849e+8 
           4770      2.96808e+8 
           4790      2.92677e+8 
           4810      2.88587e+8 
           4830      2.84119e+8 
           4850      2.69656e+8 
           4870      2.41697e+8 
           4890      2.72148e+8 
           4910      2.69341e+8 
           4930       2.6141e+8 
           4950      2.62146e+8 
           4970      2.58622e+8 
           4990      2.55146e+8 
           5010      2.49211e+8 
           5030      2.48379e+8 
           5050      2.43639e+8 
           5070      2.41838e+8 
           5090      2.38647e+8 
           5110      2.35498e+8 
           5130      2.32406e+8 
           5150      2.29369e+8 
           5170      2.26385e+8 
           5190      2.23441e+8 
           5210      2.20507e+8 
           5230      2.17709e+8 
           5250      2.14905e+8 
           5270      2.12151e+8 
           5290      2.09432e+8 
           5310      2.06762e+8 
           5330      2.04139e+8 
           5350      2.01537e+8 
           5370      1.99006e+8 
           5390      1.96508e+8 
           5410       1.9404e+8 
           5430      1.91604e+8 
           5450      1.89224e+8 
           5470      1.86873e+8 
           5490      1.84564e+8 
           5510      1.82284e+8 
           5530      1.80044e+8 
           5550      1.77831e+8 
           5570      1.75658e+8 
           5590      1.73511e+8 
           5610       1.7139e+8 
           5630      1.69331e+8 
           5650      1.67261e+8 
           5670      1.65251e+8 
           5690      1.63265e+8 
           5710      1.61326e+8 
           5730      1.59399e+8 
           5750      1.57494e+8 
           5770      1.55635e+8 
           5790      1.53786e+8 
           5810       1.5197e+8 
           5830      1.50187e+8 
           5850      1.48424e+8 
           5870      1.43249e+8 
           5890      1.44938e+8 
           5910       1.4329e+8 
           5930      1.41629e+8 
           5950      1.39987e+8 
           5970      1.38374e+8 
           5990      1.36779e+8 
           6010      1.35213e+8 
           6030      1.33676e+8 
           6050      1.32145e+8 
           6070      1.30652e+8 
           6090      1.29165e+8 
           6110      1.27705e+8 
           6130      1.26272e+8 
           6150      1.24854e+8 
           6170      1.23452e+8 
           6190      1.22076e+8 
           6210      1.20714e+8 
           6230      1.19378e+8 
           6250      1.18056e+8 
           6270      1.16748e+8 
           6290      1.15464e+8 
           6310      1.14194e+8 
           6330      1.12947e+8 
           6350      1.11685e+8 
           6370      1.10484e+8 
           6390      1.09295e+8 
           6410       1.0811e+8 
           6430      1.06946e+8 
           6450      1.05786e+8 
           6470      1.04656e+8 
           6490      1.03529e+8 
           6510      1.02423e+8 
           6530      1.01169e+8 
           6550      9.80318e+7 
           6570      8.77045e+7 
           6590      9.76521e+7 
           6610      9.71051e+7 
           6630      9.60916e+7 
           6650      9.51482e+7 
           6670      9.34776e+7 
           6690      9.25239e+7 
           6710      9.21991e+7 
           6730      9.12444e+7 
           6750      9.02993e+7 
           6770       8.9372e+7 
           6790      8.84459e+7 
           6810      8.75372e+7 
           6830      8.66458e+7 
           6850      8.57552e+7 
           6870      8.48814e+7 
           6890      8.40164e+7 
           6910      8.31678e+7 
           6930      8.23198e+7 
           6950      8.14957e+7 
           6970      8.06797e+7 
           6990      7.98563e+7 
           7010       7.9064e+7 
           7030      7.82793e+7 
           7050      7.74947e+7 
           7070      7.56324e+7 
           7090      7.59633e+7 
           7110      7.52161e+7 
           7130       7.4476e+7 
           7150      7.37431e+7 
           7170      7.30032e+7 
           7190      7.23025e+7 
           7210      7.15961e+7 
           7230      7.08698e+7 
           7250      7.02098e+7 
           7270       6.9529e+7 
           7290      6.83689e+7 
           7310      6.81821e+7 
           7330      6.75364e+7 
           7350      6.68883e+7 
           7370      6.62477e+7 
           7390       6.5615e+7 
           7410      6.49896e+7 
           7430      6.43713e+7 
           7450      6.37703e+7 
           7470      6.31666e+7 
           7490      6.25705e+7 
           7510      6.19599e+7 
           7530      6.13986e+7 
           7550      6.08233e+7 
           7570      6.02545e+7 
           7590      5.96928e+7 
           7610      5.91368e+7 
           7630      5.85877e+7 
           7650      5.80449e+7 
           7670      5.75095e+7 
           7690      5.69782e+7 
           7710      5.64504e+7 
           7730       5.5938e+7 
           7750      5.54194e+7 
           7770      5.49074e+7 
           7790      5.44191e+7 
           7810      5.38856e+7 
           7830      5.34356e+7 
           7850      5.30041e+7 
           7870      5.25246e+7 
           7890      5.20232e+7 
           7910      5.15871e+7 
           7930      5.10834e+7 
           7950       5.0565e+7 
           7970      5.00749e+7 
           7990      4.96793e+7 
           8010      4.92131e+7 
           8030      4.87942e+7 
           8050      4.83893e+7 
           8070      4.79831e+7 
           8090      4.74773e+7 
           8110       4.7094e+7 
           8130      4.67486e+7 
           8150      4.62506e+7 
           8170       4.5938e+7 
           8190       4.5509e+7 
           8210      4.50203e+7 
           8230      4.47634e+7 
           8250      4.43823e+7 
           8270      4.37982e+7 
           8290      4.35658e+7 
           8310      4.32052e+7 
           8330      4.28248e+7 
           8350      4.22752e+7 
           8370      4.19293e+7 
           8390      4.16017e+7 
           8410      4.11867e+7 
           8430       4.0833e+7 
           8450      4.03672e+7 
           8470      3.96921e+7 
           8490      4.01837e+7 
           8510      3.88002e+7 
           8530      3.98367e+7 
           8550      3.74758e+7 
           8570      3.98971e+7 
