# Kurucz ODFNEW /NOVER (2003)
# teff = 27000 K (value for the effective temperature for the model. Temperatures are given in K)
# logg = 4.5 log(cm/s2) (value for Log(G) for the model.)
# meta = -2.5  (value for the Metallicity for the model.)
# lh = 1.25  (l/Hp where l is the  mixing length of the convective element and Hp is the pressure scale height)
# vtur = 2 km/s (Microturbulence velocity)
# alpha = 0  (Alpha)
#
# column 1: WAVELENGTH (ANGSTROM), Wavelength in Angstrom
# column 2: FLUX (ERG/CM2/S/A), Flux in erg/cm2/s/A
          147.2     1.28367e-11 
            151     5.51339e-11 
          155.2     2.53764e-10 
          158.8      8.7913e-10 
            162      2.52976e-9 
            166      8.93974e-9 
          170.3      3.23847e-8 
          173.4      7.86623e-8 
          176.8      2.00512e-7 
          180.2      4.92746e-7 
          181.7       7.2458e-7 
          186.1      2.16357e-6 
            191      6.87543e-6 
          193.9      1.32326e-5 
          198.4      3.51189e-5 
          201.8        7.125e-5 
            205     0.000135596 
          210.5     0.000390594 
          216.2      0.00110095 
          219.8      0.00205637 
            223      0.00351934 
          226.8      0.00652268 
            230       0.0478055 
            234        0.105879 
            240        0.236529 
          246.5        0.541048 
          252.4         1.11341 
          256.8         1.75516 
            260         2.63582 
            264         4.06059 
          268.5         6.49497 
          273.5         10.7339 
          278.5         17.4317 
            284         29.0884 
            290         49.6378 
            296         82.6847 
            301         123.783 
            308         206.636 
            318         452.564 
            328         903.094 
            338         1726.39 
            348         3168.65 
            357         5299.97 
            366         8638.66 
            375         13682.5 
            385         22240.3 
            395         35124.4 
            405         54123.6 
            414         78345.7 
            422          107104 
            430          144406 
            441          214205 
            451          300567 
            460          401548 
            470          546420 
            480          732137 
            490          968121 
            500      1.26328e+6 
            506      6.99235e+6 
            512      2.25612e+7 
            520      2.56981e+7 
            530      3.21018e+7 
            540      3.31447e+7 
            550      4.18251e+7 
            560      4.65554e+7 
            570      5.27607e+7 
            580      5.26111e+7 
            590      6.36598e+7 
            600      7.19302e+7 
            610      7.99069e+7 
            620      8.75298e+7 
            630      9.64556e+7 
            640      1.04198e+8 
            650      1.15034e+8 
            658      1.23287e+8 
            665       1.3051e+8 
            675      1.39571e+8 
            685      1.49407e+8 
            695      1.65105e+8 
            705      1.75902e+8 
            716      1.90607e+8 
            726      2.03748e+8 
            735      2.17736e+8 
            745      2.32659e+8 
            755      2.47738e+8 
            765      2.62721e+8 
            775      2.79255e+8 
            785      2.95832e+8 
            795       3.1191e+8 
            805      3.29207e+8 
            815      3.46139e+8 
            825      3.64522e+8 
            835      3.76694e+8 
            845      4.00079e+8 
            855      4.17717e+8 
            865      4.37796e+8 
            875      4.57768e+8 
            885      4.77395e+8 
            895      4.96882e+8 
            905      5.12916e+8 
            915      6.95165e+8 
            925      4.09864e+9 
            935     1.05664e+10 
            945     2.79071e+10 
            955     3.70036e+10 
            965      4.8789e+10 
            975     2.20056e+10 
            985     5.33861e+10 
            995     5.05223e+10 
           1005     5.27072e+10 
           1015     4.75563e+10 
           1025     1.76183e+10 
           1035     4.34045e+10 
           1045     4.90289e+10 
           1055     4.80497e+10 
           1065     4.52318e+10 
           1075     4.51505e+10 
           1085     4.16691e+10 
           1095     4.35916e+10 
           1105     4.18436e+10 
           1115     4.08843e+10 
           1125     3.88837e+10 
           1135     3.92543e+10 
           1145     3.78389e+10 
           1155     3.74265e+10 
           1165     3.66008e+10 
           1175     3.25669e+10 
           1185     3.45629e+10 
           1195     3.29501e+10 
           1205     2.94581e+10 
           1215     1.17016e+10 
           1225     2.80145e+10 
           1235     3.04822e+10 
           1245     2.98316e+10 
           1255     2.95327e+10 
           1265     2.88464e+10 
           1275     2.83215e+10 
           1285     2.76885e+10 
           1295     2.62696e+10 
           1305     2.59791e+10 
           1315     2.58665e+10 
           1325     2.50806e+10 
           1335     2.42412e+10 
           1345     2.41528e+10 
           1355     2.36971e+10 
           1365     2.31288e+10 
           1375     2.26541e+10 
           1385     2.21808e+10 
           1395       2.126e+10 
           1405     2.09202e+10 
           1415     2.07686e+10 
           1425     2.03427e+10 
           1435     1.99595e+10 
           1442     1.96974e+10 
           1447     1.94859e+10 
           1455     1.91637e+10 
           1465     1.87625e+10 
           1475      1.8386e+10 
           1485      1.8018e+10 
           1495     1.76547e+10 
           1505     1.72429e+10 
           1512     1.70111e+10 
           1517     1.68566e+10 
           1525     1.65797e+10 
           1535      1.6107e+10 
           1545     1.57402e+10 
           1555     1.54051e+10 
           1565     1.52964e+10 
           1575     1.50476e+10 
           1585     1.47742e+10 
           1595      1.4502e+10 
           1605     1.41258e+10 
           1615     1.38582e+10 
           1625      1.3667e+10 
           1635     1.33978e+10 
           1645      1.2885e+10 
           1655     1.29642e+10 
           1665     1.27424e+10 
           1672     1.25633e+10 
           1677     1.24948e+10 
           1685      1.2306e+10 
           1695     1.20714e+10 
           1705     1.18422e+10 
           1715     1.16001e+10 
           1725      1.1409e+10 
           1735     1.12387e+10 
           1745     1.10355e+10 
           1755     1.08572e+10 
           1765     1.06085e+10 
           1775     1.04623e+10 
           1785     1.03069e+10 
           1795     1.01407e+10 
           1805       9.9799e+9 
           1815       9.7959e+9 
           1825      9.63669e+9 
           1835      9.47746e+9 
           1845      9.26245e+9 
           1855      9.01429e+9 
           1865      8.90857e+9 
           1875      8.85376e+9 
           1885      8.63083e+9 
           1895      8.41871e+9 
           1905      8.39876e+9 
           1915      8.17341e+9 
           1925      8.04144e+9 
           1935      7.96678e+9 
           1945      7.89025e+9 
           1955      7.67056e+9 
           1967      7.61991e+9 
           1976      7.54496e+9 
           1984      7.40528e+9 
           1995      7.21906e+9 
           2005      7.19811e+9 
           2015      7.10764e+9 
           2025      7.00996e+9 
           2035      6.88456e+9 
           2045      6.77974e+9 
           2055      6.56708e+9 
           2065      6.44214e+9 
           2074      6.42585e+9 
           2078      6.32122e+9 
           2085      6.32443e+9 
           2095      6.23639e+9 
           2105      6.20516e+9 
           2115      6.12936e+9 
           2125      6.04711e+9 
           2135       5.9572e+9 
           2145       5.8656e+9 
           2155       5.7876e+9 
           2165      5.70516e+9 
           2175      5.62391e+9 
           2185      5.54336e+9 
           2195      5.46927e+9 
           2205      5.39204e+9 
           2215      5.31436e+9 
           2225      5.24189e+9 
           2235      5.16824e+9 
           2245       5.0986e+9 
           2255      5.02437e+9 
           2265      4.95954e+9 
           2275      4.89187e+9 
           2285      4.82555e+9 
           2295      4.72186e+9 
           2305      4.69211e+9 
           2315      4.63135e+9 
           2325      4.56943e+9 
           2335      4.50751e+9 
           2345      4.44852e+9 
           2355      4.39024e+9 
           2365      4.33211e+9 
           2375      4.27467e+9 
           2385      4.21559e+9 
           2395      4.16345e+9 
           2405      4.10962e+9 
           2415      4.05576e+9 
           2425      4.00425e+9 
           2435      3.95211e+9 
           2445      3.90176e+9 
           2455      3.85223e+9 
           2465      3.80312e+9 
           2475      3.75479e+9 
           2485      3.70719e+9 
           2495      3.61707e+9 
           2505      3.61407e+9 
           2513      3.56723e+9 
           2518      3.55528e+9 
           2525      3.52472e+9 
           2535      3.48102e+9 
           2545      3.43516e+9 
           2555        3.395e+9 
           2565       3.3538e+9 
           2575      3.31297e+9 
           2585      3.27256e+9 
           2595      3.23279e+9 
           2605      3.21429e+9 
           2615      3.17538e+9 
           2625      3.13674e+9 
           2635      3.09572e+9 
           2645      3.05723e+9 
           2655      3.01682e+9 
           2665      2.97534e+9 
           2675      2.93602e+9 
           2685      2.91905e+9 
           2695      2.86314e+9 
           2705      2.85051e+9 
           2715      2.81708e+9 
           2725      2.76149e+9 
           2735      2.75024e+9 
           2745      2.71924e+9 
           2755      2.68807e+9 
           2765      2.63392e+9 
           2775      2.62677e+9 
           2785      2.59652e+9 
           2795      2.56163e+9 
           2805      2.53636e+9 
           2815      2.50886e+9 
           2825      2.45289e+9 
           2835      2.43745e+9 
           2845      2.42486e+9 
           2855      2.39764e+9 
           2865      2.37083e+9 
           2875      2.34439e+9 
           2885      2.31834e+9 
           2895      2.29264e+9 
           2910      2.25474e+9 
           2930      2.20542e+9 
           2950      2.14081e+9 
           2970      2.11096e+9 
           2990      2.06554e+9 
           3010      2.02143e+9 
           3030       1.9787e+9 
           3050        1.937e+9 
           3070      1.89638e+9 
           3090      1.85644e+9 
           3110      1.81831e+9 
           3130      1.78261e+9 
           3150      1.74604e+9 
           3170       1.7099e+9 
           3190      1.66017e+9 
           3210      1.64064e+9 
           3230      1.60775e+9 
           3250      1.57529e+9 
           3270      1.54586e+9 
           3290       1.5131e+9 
           3310      1.48565e+9 
           3330      1.45665e+9 
           3350      1.42561e+9 
           3370      1.40075e+9 
           3390      1.37381e+9 
           3410      1.34757e+9 
           3430      1.31595e+9 
           3450      1.28624e+9 
           3470      1.26589e+9 
           3490      1.24208e+9 
           3510      1.22146e+9 
           3530      1.20121e+9 
           3550      1.17932e+9 
           3570      1.16475e+9 
           3590      1.13527e+9 
           3610      1.11836e+9 
           3630       1.0946e+9 
           3640      1.09309e+9 
           3650       1.0808e+9 
           3670      1.06612e+9 
           3690      1.04579e+9 
           3710      1.00986e+9 
           3730      9.68163e+8 
           3750      9.83448e+8 
           3770      9.71875e+8 
           3790      1.01984e+9 
           3810      1.06333e+9 
           3830       9.2574e+8 
           3850      1.09187e+9 
           3870      1.10625e+9 
           3890      8.72532e+8 
           3910      1.08595e+9 
           3930      1.07609e+9 
           3950      1.05098e+9 
           3970      8.10281e+8 
           3990      1.00623e+9 
           4010      1.00374e+9 
           4030      9.41563e+8 
           4050      9.81001e+8 
           4070       9.5958e+8 
           4090      8.74616e+8 
           4110      7.61126e+8 
           4130      8.98042e+8 
           4150      8.90895e+8 
           4170      8.84059e+8 
           4190       8.7137e+8 
           4210      8.56691e+8 
           4230      8.42209e+8 
           4250      8.27981e+8 
           4270      8.13548e+8 
           4290      7.98918e+8 
           4310       7.8063e+8 
           4330      7.00155e+8 
           4350      6.37727e+8 
           4370      7.40403e+8 
           4390       7.1258e+8 
           4410      7.24282e+8 
           4430      7.09791e+8 
           4450      7.01541e+8 
           4470      6.56079e+8 
           4490      6.78502e+8 
           4510      6.68571e+8 
           4530      6.57962e+8 
           4550      6.47496e+8 
           4570      6.37313e+8 
           4590      6.27337e+8 
           4610       6.1758e+8 
           4630      6.07968e+8 
           4650      5.98272e+8 
           4670      5.89306e+8 
           4690       5.7965e+8 
           4710      5.63852e+8 
           4730      5.62647e+8 
           4750      5.54045e+8 
           4770      5.45799e+8 
           4790      5.37556e+8 
           4810      5.28194e+8 
           4830      5.16998e+8 
           4850       4.7288e+8 
           4870        4.217e+8 
           4890      4.92005e+8 
           4910      4.89006e+8 
           4930      4.70522e+8 
           4950      4.77045e+8 
           4970      4.70147e+8 
           4990       4.6333e+8 
           5010      4.50663e+8 
           5030      4.50049e+8 
           5050      4.40863e+8 
           5070       4.3726e+8 
           5090      4.31039e+8 
           5110      4.24915e+8 
           5130      4.18903e+8 
           5150         4.13e+8 
           5170      4.07217e+8 
           5190      4.01511e+8 
           5210      3.95923e+8 
           5230      3.90421e+8 
           5250      3.85019e+8 
           5270      3.79701e+8 
           5290       3.7448e+8 
           5310      3.69353e+8 
           5330      3.64318e+8 
           5350      3.59349e+8 
           5370      3.54482e+8 
           5390      3.49691e+8 
           5410      3.44961e+8 
           5430      3.40354e+8 
           5450      3.35806e+8 
           5470      3.31328e+8 
           5490      3.26931e+8 
           5510      3.22601e+8 
           5530       3.1835e+8 
           5550      3.14164e+8 
           5570      3.10054e+8 
           5590      3.06007e+8 
           5610      3.02022e+8 
           5630      2.98097e+8 
           5650      2.94244e+8 
           5670      2.90449e+8 
           5690        2.867e+8 
           5710      2.83055e+8 
           5730      2.79441e+8 
           5750      2.75883e+8 
           5770      2.72389e+8 
           5790      2.68949e+8 
           5810       2.6556e+8 
           5830      2.62223e+8 
           5850      2.58947e+8 
           5870      2.47323e+8 
           5890      2.52075e+8 
           5910      2.49401e+8 
           5930      2.46318e+8 
           5950      2.43282e+8 
           5970      2.40302e+8 
           5990      2.37356e+8 
           6010      2.34464e+8 
           6030      2.31606e+8 
           6050      2.28801e+8 
           6070      2.26038e+8 
           6090      2.23307e+8 
           6110      2.20626e+8 
           6130      2.17986e+8 
           6150      2.15375e+8 
           6170      2.12813e+8 
           6190       2.1029e+8 
           6210      2.07795e+8 
           6230      2.05346e+8 
           6250      2.02925e+8 
           6270       2.0055e+8 
           6290        1.982e+8 
           6310      1.95896e+8 
           6330      1.93616e+8 
           6350      1.91371e+8 
           6370      1.89159e+8 
           6390       1.8698e+8 
           6410      1.84825e+8 
           6430      1.82711e+8 
           6450       1.8062e+8 
           6470       1.7856e+8 
           6490      1.76531e+8 
           6510      1.74328e+8 
           6530      1.71539e+8 
           6550      1.63117e+8 
           6570      1.44644e+8 
           6590      1.64717e+8 
           6610      1.64454e+8 
           6630      1.63112e+8 
           6650      1.61409e+8 
           6670      1.57783e+8 
           6690        1.561e+8 
           6710      1.56117e+8 
           6730      1.54408e+8 
           6750      1.52718e+8 
           6770      1.51044e+8 
           6790      1.49404e+8 
           6810       1.4778e+8 
           6830      1.46181e+8 
           6850      1.44598e+8 
           6870      1.43047e+8 
           6890      1.41503e+8 
           6910      1.39991e+8 
           6930      1.38494e+8 
           6950      1.37019e+8 
           6970      1.35567e+8 
           6990       1.3413e+8 
           7010      1.32714e+8 
           7030      1.31312e+8 
           7050      1.29931e+8 
           7070      1.26371e+8 
           7090      1.27225e+8 
           7110      1.25899e+8 
           7130      1.24586e+8 
           7150      1.23293e+8 
           7170      1.21998e+8 
           7190      1.20759e+8 
           7210      1.19518e+8 
           7230      1.18252e+8 
           7250      1.17077e+8 
           7270      1.15885e+8 
           7290      1.13698e+8 
           7310      1.13521e+8 
           7330      1.12383e+8 
           7350      1.11249e+8 
           7370      1.10126e+8 
           7390       1.0902e+8 
           7410      1.07925e+8 
           7430      1.06847e+8 
           7450      1.05792e+8 
           7470       1.0474e+8 
           7490      1.03698e+8 
           7510      1.02632e+8 
           7530      1.01656e+8 
           7550      1.00655e+8 
           7570      9.96637e+7 
           7590      9.86879e+7 
           7610       9.7721e+7 
           7630      9.67629e+7 
           7650      9.58263e+7 
           7670      9.48917e+7 
           7690       9.3972e+7 
           7710      9.30605e+7 
           7730      9.21697e+7 
           7750      9.12806e+7 
           7770      9.04057e+7 
           7790      8.95386e+7 
           7810      8.86297e+7 
           7830      8.78396e+7 
           7850       8.7093e+7 
           7870      8.62677e+7 
           7890      8.53952e+7 
           7910      8.46448e+7 
           7930      8.38469e+7 
           7950       8.3056e+7 
           7970      8.21119e+7 
           7990      8.13295e+7 
           8010      8.05481e+7 
           8030       7.9791e+7 
           8050       7.9052e+7 
           8070      7.83714e+7 
           8090      7.75239e+7 
           8110      7.69244e+7 
           8130      7.62557e+7 
           8150      7.54905e+7 
           8170      7.49013e+7 
           8190      7.41203e+7 
           8210      7.33516e+7 
           8230      7.28898e+7 
           8250       7.2249e+7 
           8270      7.12445e+7 
           8290      7.09012e+7 
           8310      7.02984e+7 
           8330      6.96247e+7 
           8350      6.86485e+7 
           8370      6.82778e+7 
           8390      6.77761e+7 
           8410      6.71665e+7 
           8430      6.65195e+7 
           8450      6.54558e+7 
           8470      6.53151e+7 
           8490      6.45791e+7 
           8510       6.4047e+7 
           8530      6.34416e+7 
           8550      6.24649e+7 
           8570      6.28712e+7 
