# Kurucz ODFNEW /NOVER (2003)
# teff = 8000 K (value for the effective temperature for the model. Temperatures are given in K)
# logg = 4 log(cm/s2) (value for Log(G) for the model.)
# meta = -0.5  (value for the Metallicity for the model.)
# lh = 1.25  (l/Hp where l is the  mixing length of the convective element and Hp is the pressure scale height)
# vtur = 2 km/s (Microturbulence velocity)
# alpha = 0  (Alpha)
#
# column 1: WAVELENGTH (ANGSTROM), Wavelength in Angstrom
# column 2: FLUX (ERG/CM2/S/A), Flux in erg/cm2/s/A
            328     1.52924e-23 
            338     2.38894e-22 
            348     2.34793e-21 
            357     1.62366e-20 
            366     1.13812e-20 
            375      5.9465e-20 
            385     3.39203e-19 
            395     1.76071e-18 
            405     8.38325e-18 
            414     3.18953e-17 
            422     9.93441e-17 
            430      2.9576e-16 
            441     1.23728e-15 
            451     4.25624e-15 
            460     1.23188e-14 
            470     3.81249e-14 
            480     1.12115e-13 
            490     3.14532e-13 
            500     8.43075e-13 
            506     1.97858e-12 
            512     3.89155e-12 
            520     7.97764e-12 
            530     1.90698e-11 
            540     4.32541e-11 
            550     9.62833e-11 
            560     2.06372e-10 
            570     4.29465e-10 
            580     8.59053e-10 
            590      1.71244e-9 
            600      3.29084e-9 
            610      6.17741e-9 
            620      1.13323e-8 
            630      2.03485e-8 
            640      3.58141e-8 
            650      6.18353e-8 
            658      9.44338e-8 
            665      1.35434e-7 
            675      2.23586e-7 
            685      3.63036e-7 
            695      5.80274e-7 
            705      9.12291e-7 
            716      1.47986e-6 
            726      2.26177e-6 
            735      3.27674e-6 
            745      4.88783e-6 
            755      7.20381e-6 
            765      1.04961e-5 
            775      1.51219e-5 
            785      2.15587e-5 
            795      3.02754e-5 
            805       4.2424e-5 
            815      5.87646e-5 
            825      8.05793e-5 
            835      0.00010953 
            845     0.000147626 
            855     0.000197356 
            865     0.000261778 
            875     0.000344207 
            885     0.000450267 
            895     0.000584312 
            905     0.000751734 
            915         0.51333 
            925         2.11308 
            935         2.85659 
            945         3.80326 
            955         5.20467 
            965         6.65165 
            975         7.67825 
            985         10.1561 
            995         12.1372 
           1005         15.7883 
           1015         19.1556 
           1025         20.8423 
           1035         28.2041 
           1045         34.6707 
           1055         41.8996 
           1065         49.4135 
           1075         60.1724 
           1085         72.3553 
           1095         84.4497 
           1105         217.209 
           1115         604.264 
           1125         824.794 
           1135         1118.85 
           1145         1349.39 
           1155         1431.35 
           1165         1810.75 
           1175         2001.22 
           1185          2097.7 
           1195         1067.99 
           1205         785.047 
           1215         199.202 
           1225         878.644 
           1235         2196.96 
           1245         4226.35 
           1255         7503.13 
           1265         8504.41 
           1275         12084.1 
           1285         17331.3 
           1295         21383.6 
           1305           21291 
           1315         28907.9 
           1325         34565.2 
           1335         39061.2 
           1345         47878.8 
           1355         49963.2 
           1365         56401.5 
           1375         61394.6 
           1385         64505.9 
           1395         72913.4 
           1405         82486.3 
           1415         92132.2 
           1425          101372 
           1435          101832 
           1442          121197 
           1447          123738 
           1455          141896 
           1465          141943 
           1475          154964 
           1485          170244 
           1495          189357 
           1505          208055 
           1512          208226 
           1517          220116 
           1525          235259 
           1535          485385 
           1545          852375 
           1555          761755 
           1565          583715 
           1575          827442 
           1585          919500 
           1595          933063 
           1605          973198 
           1615      1.40269e+6 
           1625      1.99733e+6 
           1635      3.34025e+6 
           1645       6.6353e+6 
           1655      4.33269e+6 
           1665       9.0814e+6 
           1672      5.46164e+6 
           1677      1.07398e+7 
           1685      1.36549e+7 
           1695      1.12287e+7 
           1705      1.26328e+7 
           1715      1.57328e+7 
           1725      1.61194e+7 
           1735      1.90478e+7 
           1745      1.82598e+7 
           1755       2.1493e+7 
           1765      1.57719e+7 
           1775      2.01217e+7 
           1785      2.05165e+7 
           1795      2.42955e+7 
           1805      2.12125e+7 
           1815      2.23563e+7 
           1825      2.00138e+7 
           1835      1.99854e+7 
           1845      1.73046e+7 
           1855      1.92425e+7 
           1865      2.10935e+7 
           1875      2.09945e+7 
           1885      2.15039e+7 
           1895        2.257e+7 
           1905      2.08783e+7 
           1915      2.29373e+7 
           1925      2.30564e+7 
           1935      1.88353e+7 
           1945      2.43254e+7 
           1955      2.44537e+7 
           1967      2.62955e+7 
           1976      2.55741e+7 
           1984      2.46409e+7 
           1995      2.40121e+7 
           2005      2.26055e+7 
           2015      2.26313e+7 
           2025      2.07886e+7 
           2035      2.35113e+7 
           2045      2.55151e+7 
           2055      2.44181e+7 
           2065      2.35779e+7 
           2074      2.67237e+7 
           2078       2.7633e+7 
           2085      2.67813e+7 
           2095      2.54362e+7 
           2105      2.38824e+7 
           2115      2.45034e+7 
           2125       2.5277e+7 
           2135      2.04604e+7 
           2145      2.41192e+7 
           2155      2.40014e+7 
           2165      2.23117e+7 
           2175      2.20497e+7 
           2185      2.33026e+7 
           2195      2.52848e+7 
           2205      2.41634e+7 
           2215      2.16483e+7 
           2225      2.16908e+7 
           2235      2.52665e+7 
           2245      2.24542e+7 
           2255      2.12746e+7 
           2265      2.10577e+7 
           2275      2.28318e+7 
           2285      2.38987e+7 
           2295      2.18362e+7 
           2305      2.26256e+7 
           2315      2.22288e+7 
           2325      2.18192e+7 
           2335      1.98556e+7 
           2345      1.68469e+7 
           2355      2.19386e+7 
           2365      1.77042e+7 
           2375      2.02036e+7 
           2385      1.56461e+7 
           2395      1.78479e+7 
           2405      1.72901e+7 
           2415      1.76711e+7 
           2425      2.07628e+7 
           2435      2.00087e+7 
           2445       2.1572e+7 
           2455       2.1131e+7 
           2465      2.13121e+7 
           2475      1.97171e+7 
           2485      2.01956e+7 
           2495      1.91935e+7 
           2505      2.29639e+7 
           2513      1.95405e+7 
           2518       1.9766e+7 
           2525      1.80352e+7 
           2535      1.71041e+7 
           2545      1.66343e+7 
           2555      1.86979e+7 
           2565      1.87173e+7 
           2575      2.10221e+7 
           2585      2.13074e+7 
           2595       2.0762e+7 
           2605      1.96453e+7 
           2615      1.87372e+7 
           2625      2.17264e+7 
           2635      2.21234e+7 
           2645      2.58922e+7 
           2655      2.61486e+7 
           2665      2.28815e+7 
           2675      2.44213e+7 
           2685      2.46489e+7 
           2695       2.2572e+7 
           2705      2.34918e+7 
           2715      2.16397e+7 
           2725      2.20154e+7 
           2735      2.40767e+7 
           2745      1.89364e+7 
           2755      2.01865e+7 
           2765      2.13096e+7 
           2775       2.3596e+7 
           2785      2.22277e+7 
           2795      1.29757e+7 
           2805      1.57117e+7 
           2815      2.47187e+7 
           2825      2.54622e+7 
           2835      2.44124e+7 
           2845      2.32711e+7 
           2855      2.16558e+7 
           2865      2.42196e+7 
           2875      2.36864e+7 
           2885      2.41747e+7 
           2895      2.30339e+7 
           2910      2.61803e+7 
           2930      2.50575e+7 
           2950      2.48232e+7 
           2970      2.55287e+7 
           2990      2.56295e+7 
           3010      2.59142e+7 
           3030      2.57817e+7 
           3050      2.57666e+7 
           3070      2.58805e+7 
           3090      2.61707e+7 
           3110      2.55373e+7 
           3130      2.54723e+7 
           3150       2.6118e+7 
           3170      2.60215e+7 
           3190      2.46393e+7 
           3210      2.52604e+7 
           3230      2.43344e+7 
           3250      2.51372e+7 
           3270      2.55842e+7 
           3290      2.58192e+7 
           3310      2.60782e+7 
           3330      2.55216e+7 
           3350      2.51869e+7 
           3370      2.49947e+7 
           3390      2.49914e+7 
           3410      2.52181e+7 
           3430      2.53793e+7 
           3450      2.51602e+7 
           3470      2.48832e+7 
           3490      2.48633e+7 
           3510      2.52474e+7 
           3530      2.51172e+7 
           3550       2.5519e+7 
           3570      2.46548e+7 
           3590       2.4496e+7 
           3610      2.45514e+7 
           3630      2.47276e+7 
           3640      2.44708e+7 
           3650      2.52262e+7 
           3670      2.50821e+7 
           3690      2.39834e+7 
           3710      2.49282e+7 
           3730      2.55224e+7 
           3750      3.17216e+7 
           3770      3.37397e+7 
           3790      4.08042e+7 
           3810      4.72154e+7 
           3830      3.76578e+7 
           3850      5.20089e+7 
           3870      5.80027e+7 
           3890      3.45682e+7 
           3910      5.80319e+7 
           3930      5.49621e+7 
           3950      5.80819e+7 
           3970      3.26895e+7 
           3990      5.69279e+7 
           4010      6.40998e+7 
           4030      6.43861e+7 
           4050      6.35864e+7 
           4070      6.01611e+7 
           4090      4.78476e+7 
           4110      3.70103e+7 
           4130      5.75865e+7 
           4150      6.09023e+7 
           4170      6.11038e+7 
           4190      6.03287e+7 
           4210      6.02096e+7 
           4230      5.87236e+7 
           4250      5.87124e+7 
           4270      5.72856e+7 
           4290      5.67138e+7 
           4310      5.22563e+7 
           4330      4.07555e+7 
           4350      3.49723e+7 
           4370      5.22614e+7 
           4390      5.41282e+7 
           4410      5.37565e+7 
           4430      5.35698e+7 
           4450      5.37457e+7 
           4470      5.33374e+7 
           4490      5.28129e+7 
           4510      5.31716e+7 
           4530      5.18678e+7 
           4550      5.09743e+7 
           4570       5.1698e+7 
           4590      5.05707e+7 
           4610      5.09359e+7 
           4630      4.98149e+7 
           4650      4.98804e+7 
           4670      4.95508e+7 
           4690      4.82248e+7 
           4710      4.66545e+7 
           4730      4.79464e+7 
           4750      4.76019e+7 
           4770       4.6937e+7 
           4790      4.62437e+7 
           4810      4.51793e+7 
           4830      4.27922e+7 
           4850      3.36842e+7 
           4870      2.73323e+7 
           4890      4.02534e+7 
           4910      4.26749e+7 
           4930      4.24363e+7 
           4950      4.27798e+7 
           4970      4.28998e+7 
           4990      4.19802e+7 
           5010      4.10183e+7 
           5030      4.15073e+7 
           5050      4.08748e+7 
           5070      4.09765e+7 
           5090      4.04952e+7 
           5110       4.0251e+7 
           5130      3.96443e+7 
           5150       3.9023e+7 
           5170      3.80184e+7 
           5190      3.77791e+7 
           5210      3.78352e+7 
           5230      3.73412e+7 
           5250      3.77351e+7 
           5270      3.62447e+7 
           5290      3.69108e+7 
           5310      3.64195e+7 
           5330      3.55911e+7 
           5350      3.59757e+7 
           5370      3.54352e+7 
           5390      3.51649e+7 
           5410      3.45669e+7 
           5430      3.45108e+7 
           5450       3.4334e+7 
           5470      3.40406e+7 
           5490      3.38505e+7 
           5510      3.35904e+7 
           5530      3.31483e+7 
           5550      3.30602e+7 
           5570      3.25998e+7 
           5590      3.22355e+7 
           5610        3.206e+7 
           5630      3.19277e+7 
           5650      3.16194e+7 
           5670      3.12538e+7 
           5690      3.10752e+7 
           5710      3.07862e+7 
           5730      3.06635e+7 
           5750       3.0315e+7 
           5770      3.00882e+7 
           5790      2.98077e+7 
           5810      2.95782e+7 
           5830      2.93446e+7 
           5850      2.90452e+7 
           5870      2.88083e+7 
           5890      2.82525e+7 
           5910      2.83247e+7 
           5930      2.80858e+7 
           5950      2.78473e+7 
           5970      2.76208e+7 
           5990      2.73485e+7 
           6010      2.70698e+7 
           6030      2.68739e+7 
           6050      2.66811e+7 
           6070      2.64923e+7 
           6090      2.62414e+7 
           6110      2.59932e+7 
           6130      2.56474e+7 
           6150      2.53474e+7 
           6170      2.51744e+7 
           6190      2.51713e+7 
           6210      2.49723e+7 
           6230      2.46986e+7 
           6250      2.43065e+7 
           6270      2.43653e+7 
           6290      2.41668e+7 
           6310      2.38862e+7 
           6330       2.3726e+7 
           6350      2.34386e+7 
           6370       2.3273e+7 
           6390      2.31571e+7 
           6410      2.28652e+7 
           6430      2.27095e+7 
           6450       2.2357e+7 
           6470      2.22523e+7 
           6490      2.19034e+7 
           6510      2.16214e+7 
           6530      2.08584e+7 
           6550      1.81311e+7 
           6570      1.46128e+7 
           6590      1.96718e+7 
           6610      2.06359e+7 
           6630      2.07901e+7 
           6650      2.07368e+7 
           6670      2.06076e+7 
           6690      2.05014e+7 
           6710      2.03626e+7 
           6730      2.02185e+7 
           6750      2.00228e+7 
           6770      1.99194e+7 
           6790      1.97598e+7 
           6810      1.96057e+7 
           6830      1.94378e+7 
           6850      1.92867e+7 
           6870      1.91538e+7 
           6890      1.90086e+7 
           6910      1.88593e+7 
           6930      1.87098e+7 
           6950      1.85688e+7 
           6970       1.8422e+7 
           6990      1.82882e+7 
           7010      1.80982e+7 
           7030      1.79824e+7 
           7050      1.78638e+7 
           7070      1.77312e+7 
           7090      1.75984e+7 
           7110      1.72931e+7 
           7130      1.72881e+7 
           7150      1.71679e+7 
           7170      1.70393e+7 
           7190      1.68958e+7 
           7210      1.67848e+7 
           7230      1.66611e+7 
           7250      1.65284e+7 
           7270      1.64319e+7 
           7290      1.62689e+7 
           7310      1.61673e+7 
           7330      1.60434e+7 
           7350      1.59499e+7 
           7370      1.58357e+7 
           7390      1.56908e+7 
           7410      1.55376e+7 
           7430      1.54247e+7 
           7450      1.53319e+7 
           7470      1.51824e+7 
           7490      1.50839e+7 
           7510      1.50077e+7 
           7530      1.49108e+7 
           7550      1.48227e+7 
           7570      1.47043e+7 
           7590      1.46014e+7 
           7610      1.44936e+7 
           7630      1.43905e+7 
           7650      1.42767e+7 
           7670      1.41422e+7 
           7690      1.40598e+7 
           7710      1.39508e+7 
           7730      1.38781e+7 
           7750      1.37639e+7 
           7770      1.34635e+7 
           7790      1.35888e+7 
           7810      1.34859e+7 
           7830      1.33661e+7 
           7850      1.32559e+7 
           7870      1.31594e+7 
           7890      1.30595e+7 
           7910      1.29809e+7 
           7930      1.28694e+7 
           7950      1.27773e+7 
           7970      1.27447e+7 
           7990      1.26037e+7 
           8010      1.25502e+7 
           8030       1.2458e+7 
           8050      1.23775e+7 
           8070       1.2292e+7 
           8090      1.22013e+7 
           8110      1.21326e+7 
           8130      1.20525e+7 
           8150      1.19673e+7 
           8170      1.18845e+7 
           8190      1.17058e+7 
           8210      1.16785e+7 
           8230       1.1589e+7 
           8250      1.15151e+7 
           8270      1.15118e+7 
           8290      1.14328e+7 
           8310      1.13483e+7 
           8330      1.11962e+7 
           8350      1.12031e+7 
           8370      1.11303e+7 
           8390      1.10227e+7 
           8410       1.0956e+7 
           8430      1.08717e+7 
           8450      1.07074e+7 
           8470      1.05954e+7 
           8490      1.06972e+7 
           8510      1.02016e+7 
           8530      1.06142e+7 
           8550      9.60962e+6 
           8570      1.06189e+7 
           8590      1.00181e+7 
           8610       9.7892e+6 
           8630      1.05734e+7 
           8650      1.02109e+7 
           8670      8.64831e+6 
           8690      1.02419e+7 
           8710      1.05539e+7 
           8730      1.01853e+7 
           8750      8.32163e+6 
           8770       9.7605e+6 
           8790      1.04031e+7 
           8810      1.04181e+7 
           8830      1.01666e+7 
           8850      9.23516e+6 
           8870      7.95003e+6 
           8890      9.74094e+6 
           8910      1.01111e+7 
           8930      1.01655e+7 
           8950       1.0178e+7 
           8970      9.98373e+6 
           8990      9.51751e+6 
           9010      7.74712e+6 
           9030       8.4553e+6 
           9050      9.50212e+6 
           9070      9.58574e+6 
           9090      9.53266e+6 
           9110      9.68559e+6 
           9130      9.69925e+6 
           9150      9.62899e+6 
           9170      9.48758e+6 
           9190      9.22998e+6 
           9210      8.57304e+6 
           9230      6.85599e+6 
           9250      8.27803e+6 
           9270       8.8434e+6 
           9290      9.12489e+6 
           9310       9.1544e+6 
           9330      9.12731e+6 
           9350      9.09132e+6 
           9370      9.04483e+6 
