# Kurucz ODFNEW /NOVER (2003)
# teff = 24000 K (value for the effective temperature for the model. Temperatures are given in K)
# logg = 4.5 log(cm/s2) (value for Log(G) for the model.)
# meta = -2.5  (value for the Metallicity for the model.)
# lh = 1.25  (l/Hp where l is the  mixing length of the convective element and Hp is the pressure scale height)
# vtur = 2 km/s (Microturbulence velocity)
# alpha = 0  (Alpha)
#
# column 1: WAVELENGTH (ANGSTROM), Wavelength in Angstrom
# column 2: FLUX (ERG/CM2/S/A), Flux in erg/cm2/s/A
          147.2     2.57026e-15 
            151     1.36076e-14 
          155.2     7.81219e-14 
          158.8     3.24406e-13 
            162     1.08992e-12 
            166      4.6398e-12 
          170.3     2.03757e-11 
          173.4      5.6509e-11 
          176.8     1.65874e-10 
          180.2     4.66955e-10 
          181.7     7.27878e-10 
          186.1      2.56496e-9 
            191       9.7189e-9 
          193.9      2.06866e-8 
          198.4      6.38331e-8 
          201.8      1.44454e-7 
            205      3.03589e-7 
          210.5      1.02986e-6 
          216.2      3.40949e-6 
          219.8      7.02203e-6 
            223      1.30748e-5 
          226.8      2.67052e-5 
            230      8.62347e-5 
            234     0.000187518 
            240     0.000493699 
          246.5      0.00133376 
          252.4       0.0031588 
          256.8      0.00574467 
            260      0.00896181 
            264       0.0151322 
          268.5       0.0267277 
          273.5       0.0491396 
          278.5       0.0883996 
            284        0.164399 
            290        0.314379 
            296        0.584297 
            301        0.960649 
            308          1.8547 
            318         4.60425 
            328         10.6736 
            338           23.46 
            348         49.1319 
            357         91.9529 
            366          166.58 
            375         292.409 
            385         528.476 
            395         924.119 
            405         1568.06 
            414         2464.18 
            422         3616.59 
            430         5223.68 
            441         8458.55 
            451         12812.4 
            460         18298.8 
            470         26708.7 
            480           38291 
            490         54000.5 
            500         74961.6 
            506          412829 
            512      1.29853e+6 
            520      1.61211e+6 
            530      2.22524e+6 
            540      2.40817e+6 
            550      3.28284e+6 
            560       3.8867e+6 
            570       4.6345e+6 
            580      4.72009e+6 
            590      6.06555e+6 
            600      7.36506e+6 
            610      8.53518e+6 
            620      9.78428e+6 
            630      1.12022e+7 
            640      1.26364e+7 
            650      1.44165e+7 
            658      1.59031e+7 
            665      1.72543e+7 
            675      1.91736e+7 
            685      2.13091e+7 
            695      2.40416e+7 
            705      2.65842e+7 
            716      2.96185e+7 
            726      3.25606e+7 
            735      3.55617e+7 
            745      3.89779e+7 
            755      4.25639e+7 
            765       4.6307e+7 
            775      5.03257e+7 
            785      5.45135e+7 
            795       5.8842e+7 
            805      6.34195e+7 
            815      6.81513e+7 
            825        7.319e+7 
            835      7.75477e+7 
            845      8.36321e+7 
            855      8.89535e+7 
            865      9.49546e+7 
            875      1.00975e+8 
            885      1.07142e+8 
            895      1.13429e+8 
            905      1.18912e+8 
            915      1.78703e+8 
            925      9.83228e+8 
            935      3.00754e+9 
            945     1.10438e+10 
            955     1.79268e+10 
            965     2.44803e+10 
            975      9.25471e+9 
            985     3.03535e+10 
            995     2.99553e+10 
           1005     3.08616e+10 
           1015     2.60907e+10 
           1025      6.39342e+9 
           1035     2.29736e+10 
           1045     2.89809e+10 
           1055     2.86254e+10 
           1065     2.68983e+10 
           1075     2.71346e+10 
           1085     2.51964e+10 
           1095     2.62276e+10 
           1105     2.51481e+10 
           1115     2.46306e+10 
           1125     2.34255e+10 
           1135     2.36166e+10 
           1145     2.27082e+10 
           1155     2.26333e+10 
           1165      2.2119e+10 
           1175     1.98026e+10 
           1185     2.09049e+10 
           1195     1.95152e+10 
           1205     1.62518e+10 
           1215      4.48076e+9 
           1225     1.51465e+10 
           1235     1.81987e+10 
           1245     1.81029e+10 
           1255     1.79148e+10 
           1265     1.74408e+10 
           1275      1.7299e+10 
           1285     1.69323e+10 
           1295     1.59927e+10 
           1305     1.58476e+10 
           1315     1.58683e+10 
           1325      1.5352e+10 
           1335     1.48293e+10 
           1345     1.48584e+10 
           1355     1.46048e+10 
           1365      1.4263e+10 
           1375     1.39848e+10 
           1385     1.37123e+10 
           1395     1.31976e+10 
           1405     1.30081e+10 
           1415     1.28836e+10 
           1425     1.26514e+10 
           1435      1.2417e+10 
           1442     1.22647e+10 
           1447      1.2139e+10 
           1455     1.19495e+10 
           1465      1.1709e+10 
           1475     1.14908e+10 
           1485     1.12678e+10 
           1495      1.1057e+10 
           1505     1.08049e+10 
           1512     1.06643e+10 
           1517     1.05792e+10 
           1525     1.04153e+10 
           1535     1.01292e+10 
           1545      9.96831e+9 
           1555       9.7514e+9 
           1565      9.67424e+9 
           1575      9.52035e+9 
           1585      9.35186e+9 
           1595      9.19231e+9 
           1605       8.9661e+9 
           1615       8.8063e+9 
           1625      8.70652e+9 
           1635      8.56343e+9 
           1645      8.31498e+9 
           1655      8.27422e+9 
           1665      8.14509e+9 
           1672      8.00898e+9 
           1677      7.98862e+9 
           1685      7.87739e+9 
           1695      7.73383e+9 
           1705      7.59543e+9 
           1715      7.45345e+9 
           1725      7.33803e+9 
           1735      7.22803e+9 
           1745      7.10497e+9 
           1755      7.00283e+9 
           1765      6.82538e+9 
           1775      6.75671e+9 
           1785      6.66383e+9 
           1795      6.56547e+9 
           1805      6.46737e+9 
           1815      6.35387e+9 
           1825      6.25853e+9 
           1835      6.16018e+9 
           1845       6.0253e+9 
           1855      5.86395e+9 
           1865      5.80113e+9 
           1875      5.77821e+9 
           1885      5.63457e+9 
           1895      5.50193e+9 
           1905      5.49716e+9 
           1915      5.35432e+9 
           1925      5.27475e+9 
           1935      5.23023e+9 
           1945      5.18485e+9 
           1955      5.04629e+9 
           1967      5.01898e+9 
           1976      4.97366e+9 
           1984      4.88482e+9 
           1995      4.76768e+9 
           2005      4.75754e+9 
           2015      4.70273e+9 
           2025      4.64326e+9 
           2035      4.56426e+9 
           2045      4.49911e+9 
           2055      4.40538e+9 
           2065      4.33817e+9 
           2074      4.32766e+9 
           2078       4.2578e+9 
           2085      4.25205e+9 
           2095       4.1725e+9 
           2105      4.14102e+9 
           2115       4.0921e+9 
           2125      4.04209e+9 
           2135      3.98513e+9 
           2145      3.92759e+9 
           2155      3.87865e+9 
           2165      3.82755e+9 
           2175      3.77508e+9 
           2185      3.72608e+9 
           2195      3.67798e+9 
           2205      3.62904e+9 
           2215      3.58153e+9 
           2225       3.5335e+9 
           2235       3.4874e+9 
           2245      3.44332e+9 
           2255      3.39766e+9 
           2265      3.35509e+9 
           2275      3.31183e+9 
           2285      3.27007e+9 
           2295       3.2113e+9 
           2305       3.1869e+9 
           2315      3.14593e+9 
           2325       3.1066e+9 
           2335      3.06622e+9 
           2345      3.02773e+9 
           2355      2.99168e+9 
           2365       2.9539e+9 
           2375      2.91746e+9 
           2385      2.88046e+9 
           2395      2.84542e+9 
           2405        2.811e+9 
           2415      2.77621e+9 
           2425      2.74375e+9 
           2435      2.71001e+9 
           2445      2.67736e+9 
           2455      2.64578e+9 
           2465      2.61363e+9 
           2475      2.58253e+9 
           2485      2.55166e+9 
           2495      2.50293e+9 
           2505      2.49115e+9 
           2513       2.4632e+9 
           2518      2.45325e+9 
           2525      2.43299e+9 
           2535      2.40416e+9 
           2545      2.37478e+9 
           2555      2.34913e+9 
           2565       2.3218e+9 
           2575       2.2955e+9 
           2585      2.26915e+9 
           2595      2.24308e+9 
           2605      2.23466e+9 
           2615       2.2094e+9 
           2625      2.18418e+9 
           2635      2.15602e+9 
           2645      2.13135e+9 
           2655      2.10404e+9 
           2665      2.07571e+9 
           2675       2.0499e+9 
           2685      2.04125e+9 
           2695      2.00185e+9 
           2705      1.99598e+9 
           2715       1.9738e+9 
           2725      1.93458e+9 
           2735      1.93048e+9 
           2745      1.90819e+9 
           2755      1.88761e+9 
           2765      1.85028e+9 
           2775      1.84763e+9 
           2785      1.82749e+9 
           2795      1.80026e+9 
           2805       1.7862e+9 
           2815      1.76921e+9 
           2825      1.72923e+9 
           2835      1.71926e+9 
           2845      1.71315e+9 
           2855      1.69498e+9 
           2865      1.67706e+9 
           2875      1.65935e+9 
           2885      1.64189e+9 
           2895      1.62468e+9 
           2910      1.59926e+9 
           2930      1.56609e+9 
           2950      1.52151e+9 
           2970      1.50266e+9 
           2990      1.47201e+9 
           3010      1.44228e+9 
           3030      1.41342e+9 
           3050      1.38518e+9 
           3070      1.35764e+9 
           3090      1.33069e+9 
           3110      1.30467e+9 
           3130      1.28067e+9 
           3150      1.25576e+9 
           3170      1.23108e+9 
           3190      1.19633e+9 
           3210        1.184e+9 
           3230      1.16118e+9 
           3250      1.13894e+9 
           3270      1.11889e+9 
           3290      1.09624e+9 
           3310       1.0775e+9 
           3330      1.05753e+9 
           3350      1.03601e+9 
           3370      1.01901e+9 
           3390      1.00043e+9 
           3410      9.82248e+8 
           3430      9.60164e+8 
           3450      9.39378e+8 
           3470      9.25421e+8 
           3490      9.08906e+8 
           3510      8.94909e+8 
           3530      8.81139e+8 
           3550      8.65857e+8 
           3570      8.55887e+8 
           3590      8.35153e+8 
           3610      8.23352e+8 
           3630      8.06728e+8 
           3640       8.0577e+8 
           3650      7.97544e+8 
           3670      7.87616e+8 
           3690       7.7271e+8 
           3710      7.45844e+8 
           3730      7.13877e+8 
           3750      7.35671e+8 
           3770      7.32922e+8 
           3790      7.79392e+8 
           3810       8.1862e+8 
           3830      7.04976e+8 
           3850      8.50116e+8 
           3870      8.67185e+8 
           3890      6.64027e+8 
           3910      8.54708e+8 
           3930      8.50129e+8 
           3950      8.28575e+8 
           3970      6.18269e+8 
           3990      7.92547e+8 
           4010      7.94829e+8 
           4030       7.4103e+8 
           4050      7.79114e+8 
           4070      7.61651e+8 
           4090      6.83933e+8 
           4110      5.88396e+8 
           4130       7.1183e+8 
           4150      7.08114e+8 
           4170       7.0411e+8 
           4190      6.94637e+8 
           4210      6.83164e+8 
           4230      6.71855e+8 
           4250       6.6075e+8 
           4270      6.49264e+8 
           4290       6.3737e+8 
           4310      6.22119e+8 
           4330      5.48731e+8 
           4350       4.9713e+8 
           4370      5.90141e+8 
           4390      5.67066e+8 
           4410       5.7931e+8 
           4430      5.67679e+8 
           4450      5.61522e+8 
           4470      5.21892e+8 
           4490      5.43377e+8 
           4510      5.35901e+8 
           4530      5.27582e+8 
           4550      5.19387e+8 
           4570       5.1137e+8 
           4590      5.03543e+8 
           4610      4.95869e+8 
           4630       4.8829e+8 
           4650      4.80788e+8 
           4670      4.73622e+8 
           4690      4.66422e+8 
           4710      4.52875e+8 
           4730      4.52572e+8 
           4750       4.4578e+8 
           4770      4.39302e+8 
           4790      4.32652e+8 
           4810      4.24975e+8 
           4830      4.15423e+8 
           4850      3.74639e+8 
           4870      3.31683e+8 
           4890      3.95145e+8 
           4910       3.9387e+8 
           4930      3.78172e+8 
           4950      3.84978e+8 
           4970      3.79507e+8 
           4990       3.7411e+8 
           5010      3.63565e+8 
           5030      3.63568e+8 
           5050      3.55982e+8 
           5070      3.53457e+8 
           5090      3.48518e+8 
           5110       3.4366e+8 
           5130      3.38896e+8 
           5150      3.34195e+8 
           5170      3.29599e+8 
           5190      3.25078e+8 
           5210       3.2063e+8 
           5230      3.16254e+8 
           5250      3.11963e+8 
           5270      3.07741e+8 
           5290      3.03588e+8 
           5310      2.99515e+8 
           5330      2.95494e+8 
           5350      2.91552e+8 
           5370      2.87672e+8 
           5390      2.83869e+8 
           5410      2.80113e+8 
           5430      2.76418e+8 
           5450      2.72795e+8 
           5470       2.6923e+8 
           5490      2.65722e+8 
           5510       2.6227e+8 
           5530      2.58874e+8 
           5550      2.55531e+8 
           5570      2.52243e+8 
           5590      2.49006e+8 
           5610      2.45821e+8 
           5630      2.42687e+8 
           5650      2.39603e+8 
           5670      2.36568e+8 
           5690      2.33582e+8 
           5710      2.30654e+8 
           5730      2.27762e+8 
           5750      2.24915e+8 
           5770      2.22114e+8 
           5790      2.19357e+8 
           5810      2.16644e+8 
           5830      2.13964e+8 
           5850      2.11336e+8 
           5870      2.01349e+8 
           5890      2.05739e+8 
           5910       2.0368e+8 
           5930      2.01205e+8 
           5950      1.98769e+8 
           5970      1.96372e+8 
           5990      1.94013e+8 
           6010      1.91681e+8 
           6030      1.89386e+8 
           6050      1.87137e+8 
           6070      1.84914e+8 
           6090      1.82717e+8 
           6110      1.80564e+8 
           6130      1.78435e+8 
           6150       1.7634e+8 
           6170      1.74278e+8 
           6190      1.72249e+8 
           6210      1.70243e+8 
           6230      1.68268e+8 
           6250      1.66325e+8 
           6270      1.64403e+8 
           6290      1.62512e+8 
           6310      1.60651e+8 
           6330      1.58819e+8 
           6350      1.56998e+8 
           6370      1.55225e+8 
           6390       1.5347e+8 
           6410      1.51735e+8 
           6430      1.50018e+8 
           6450      1.48337e+8 
           6470      1.46675e+8 
           6490       1.4503e+8 
           6510      1.43073e+8 
           6530       1.4074e+8 
           6550      1.32814e+8 
           6570      1.17038e+8 
           6590      1.34971e+8 
           6610      1.35147e+8 
           6630       1.3411e+8 
           6650      1.32819e+8 
           6670      1.29763e+8 
           6690       1.2839e+8 
           6710      1.28538e+8 
           6730      1.27152e+8 
           6750      1.25779e+8 
           6770      1.24429e+8 
           6790      1.23092e+8 
           6810      1.21777e+8 
           6830      1.20484e+8 
           6850      1.19203e+8 
           6870      1.17943e+8 
           6890      1.16696e+8 
           6910      1.15461e+8 
           6930      1.14247e+8 
           6950      1.13052e+8 
           6970      1.11869e+8 
           6990      1.10698e+8 
           7010      1.09553e+8 
           7030      1.08413e+8 
           7050       1.0729e+8 
           7070      1.04325e+8 
           7090      1.05094e+8 
           7110      1.04019e+8 
           7130      1.02955e+8 
           7150      1.01901e+8 
           7170      1.00842e+8 
           7190      9.98372e+7 
           7210      9.88275e+7 
           7230      9.77914e+7 
           7250      9.68441e+7 
           7270      9.58701e+7 
           7290      9.40688e+7 
           7310      9.39425e+7 
           7330      9.30239e+7 
           7350      9.20929e+7 
           7370      9.11845e+7 
           7390      9.02778e+7 
           7410      8.93863e+7 
           7430      8.85099e+7 
           7450      8.76484e+7 
           7470      8.67949e+7 
           7490      8.59425e+7 
           7510      8.50712e+7 
           7530      8.42744e+7 
           7550      8.34584e+7 
           7570      8.26499e+7 
           7590      8.18552e+7 
           7610      8.10612e+7 
           7630      8.02874e+7 
           7650      7.95141e+7 
           7670      7.87541e+7 
           7690       7.8001e+7 
           7710       7.7261e+7 
           7730      7.65275e+7 
           7750      7.58006e+7 
           7770      7.50864e+7 
           7790      7.43785e+7 
           7810      7.36337e+7 
           7830      7.29876e+7 
           7850        7.239e+7 
           7870      7.17063e+7 
           7890      7.09922e+7 
           7910      7.03808e+7 
           7930      6.97267e+7 
           7950      6.90604e+7 
           7970      6.82694e+7 
           7990      6.76566e+7 
           8010      6.70138e+7 
           8030      6.63941e+7 
           8050      6.57914e+7 
           8070      6.52054e+7 
           8090      6.45323e+7 
           8110      6.40425e+7 
           8130      6.34998e+7 
           8150      6.28539e+7 
           8170      6.23773e+7 
           8190      6.17416e+7 
           8210      6.11226e+7 
           8230      6.07536e+7 
           8250      6.02269e+7 
           8270      5.93906e+7 
           8290      5.91208e+7 
           8310      5.86238e+7 
           8330      5.80766e+7 
           8350      5.72638e+7 
           8370      5.69636e+7 
           8390      5.65532e+7 
           8410      5.60555e+7 
           8430      5.55089e+7 
           8450      5.46291e+7 
           8470       5.4508e+7 
           8490      5.39117e+7 
           8510      5.34402e+7 
           8530      5.29724e+7 
           8550      5.20601e+7 
           8570      5.25663e+7 
