# Kurucz ODFNEW /NOVER (2003)
# teff = 10250 K (value for the effective temperature for the model. Temperatures are given in K)
# logg = 3 log(cm/s2) (value for Log(G) for the model.)
# meta = 0.5  (value for the Metallicity for the model.)
# lh = 1.25  (l/Hp where l is the  mixing length of the convective element and Hp is the pressure scale height)
# vtur = 2 km/s (Microturbulence velocity)
# alpha = 0.4  (Alpha)
#
# column 1: WAVELENGTH (ANGSTROM), Wavelength in Angstrom
# column 2: FLUX (ERG/CM2/S/A), Flux in erg/cm2/s/A
          273.5     2.90315e-23 
          278.5      1.2509e-22 
            284     5.31259e-22 
            290      2.3531e-21 
            296     9.75276e-21 
            301     3.06807e-20 
            308     1.43974e-19 
            318     1.16639e-18 
            328     8.36877e-18 
            338     5.35792e-17 
            348     3.10389e-16 
            357     1.50309e-15 
            366     6.25689e-15 
            375     2.41501e-14 
            385     1.02117e-13 
            395      3.9782e-13 
            405     1.47231e-12 
            414      4.5202e-12 
            422     1.17782e-11 
            430     2.93234e-11 
            441     1.00204e-10 
            451     2.88417e-10 
            460     7.19703e-10 
            470      1.90565e-9 
            480      4.86592e-9 
            490      1.19753e-8 
            500      2.83979e-8 
            506      9.61776e-8 
            512      1.90158e-7 
            520      3.46817e-7 
            530      7.18549e-7 
            540       1.4356e-6 
            550      2.86065e-6 
            560      5.50498e-6 
            570      1.03707e-5 
            580      1.87995e-5 
            590      3.43331e-5 
            600      6.06273e-5 
            610     0.000105922 
            620     0.000180338 
            630     0.000302798 
            640     0.000496867 
            650     0.000812541 
            658       0.0011871 
            665      0.00163036 
            675      0.00256139 
            685      0.00397857 
            695      0.00610473 
            705      0.00915247 
            716       0.0143334 
            726       0.0211781 
            735       0.0297667 
            745       0.0429792 
            755       0.0615536 
            765        0.087329 
            775        0.122943 
            785        0.171832 
            795        0.235947 
            805        0.323202 
            815        0.441798 
            825        0.596291 
            835        0.795631 
            845         1.06267 
            855         1.40323 
            865         1.84154 
            875         2.38868 
            885         3.10739 
            895         4.00125 
            905         5.10064 
            915         447.022 
            925         3029.16 
            935         4165.75 
            945          5936.8 
            955         9139.98 
            965         11853.4 
            975         11284.1 
            985         15159.6 
            995         15933.7 
           1005         20191.5 
           1015         24467.1 
           1025         22820.5 
           1035         30597.6 
           1045         37268.5 
           1055         43710.5 
           1065         45995.7 
           1075         54806.5 
           1085         62511.7 
           1095         64862.7 
           1105          117827 
           1115          748141 
           1125       1.1377e+6 
           1135      1.89051e+6 
           1145      1.80341e+6 
           1155      2.31933e+6 
           1165      2.76041e+6 
           1175      2.40316e+6 
           1185      1.40988e+6 
           1195          136623 
           1205          283424 
           1215         54520.5 
           1225          291492 
           1235      1.08452e+6 
           1245      6.64807e+6 
           1255      1.87788e+7 
           1265      7.55283e+6 
           1275      3.18973e+7 
           1285      5.96434e+7 
           1295      3.65604e+7 
           1305      5.91034e+6 
           1315      3.95155e+7 
           1325      6.41907e+7 
           1335      4.51786e+7 
           1345      7.44598e+7 
           1355      7.12555e+7 
           1365      5.52733e+7 
           1375      6.17014e+7 
           1385      5.95626e+7 
           1395      6.16001e+7 
           1405      6.18867e+7 
           1415      6.00855e+7 
           1425      7.62132e+7 
           1435      6.83399e+7 
           1442      8.12879e+7 
           1447      9.33111e+7 
           1455      9.36474e+7 
           1465      8.49852e+7 
           1475      7.94281e+7 
           1485      9.30999e+7 
           1495      1.05849e+8 
           1505      1.03705e+8 
           1512       8.3742e+7 
           1517       9.9432e+7 
           1525      8.18636e+7 
           1535      7.58215e+7 
           1545        1.327e+8 
           1555       1.0656e+8 
           1565       9.2997e+7 
           1575      1.13987e+8 
           1585      1.35508e+8 
           1595      1.48958e+8 
           1605      1.36032e+8 
           1615      1.35036e+8 
           1625      1.18072e+8 
           1635        1.255e+8 
           1645      1.34633e+8 
           1655      1.14066e+8 
           1665      1.29957e+8 
           1672      6.39902e+7 
           1677      1.27001e+8 
           1685       1.4999e+8 
           1695      1.38863e+8 
           1705      1.23804e+8 
           1715      1.17585e+8 
           1725      1.16274e+8 
           1735      1.32471e+8 
           1745      1.31464e+8 
           1755      1.55779e+8 
           1765      1.19594e+8 
           1775      1.36827e+8 
           1785      1.35334e+8 
           1795      1.66008e+8 
           1805       1.5379e+8 
           1815      1.49138e+8 
           1825      1.42259e+8 
           1835      1.34783e+8 
           1845       1.2061e+8 
           1855        1.277e+8 
           1865      1.30287e+8 
           1875      1.42853e+8 
           1885      1.36125e+8 
           1895      1.35794e+8 
           1905       1.2697e+8 
           1915      1.35253e+8 
           1925      1.40815e+8 
           1935      1.39212e+8 
           1945      1.42973e+8 
           1955      1.41287e+8 
           1967      1.56258e+8 
           1976      1.59565e+8 
           1984       1.4804e+8 
           1995      1.41973e+8 
           2005      1.43278e+8 
           2015      1.28433e+8 
           2025      1.38817e+8 
           2035       1.3641e+8 
           2045      1.45574e+8 
           2055      1.29102e+8 
           2065      1.32228e+8 
           2074      1.46208e+8 
           2078      1.48106e+8 
           2085      1.45094e+8 
           2095      1.37361e+8 
           2105      1.31561e+8 
           2115      1.30741e+8 
           2125      1.34686e+8 
           2135      1.08021e+8 
           2145      1.24244e+8 
           2155      1.31133e+8 
           2165      1.22128e+8 
           2175       1.1959e+8 
           2185      1.17496e+8 
           2195      1.27202e+8 
           2205      1.18868e+8 
           2215      1.05373e+8 
           2225      9.95125e+7 
           2235      1.15088e+8 
           2245      1.02561e+8 
           2255      9.46005e+7 
           2265      1.00354e+8 
           2275      1.07575e+8 
           2285      1.12083e+8 
           2295      1.05172e+8 
           2305      9.85817e+7 
           2315       9.1356e+7 
           2325       9.0084e+7 
           2335      7.88598e+7 
           2345      7.17694e+7 
           2355       8.8673e+7 
           2365      7.07291e+7 
           2375      7.88773e+7 
           2385      6.51766e+7 
           2395      7.71189e+7 
           2405      7.14571e+7 
           2415      7.65897e+7 
           2425      8.71318e+7 
           2435      8.19255e+7 
           2445      8.99534e+7 
           2455      8.59717e+7 
           2465      8.54244e+7 
           2475      8.15744e+7 
           2485      8.85145e+7 
           2495      8.42902e+7 
           2505      9.73849e+7 
           2513      8.15062e+7 
           2518      8.54074e+7 
           2525      7.57108e+7 
           2535      7.67795e+7 
           2545      7.50955e+7 
           2555      8.37366e+7 
           2565      7.96207e+7 
           2575      8.92077e+7 
           2585      8.69797e+7 
           2595      8.29708e+7 
           2605       7.7705e+7 
           2615      7.69576e+7 
           2625      8.56558e+7 
           2635      8.63742e+7 
           2645      1.01942e+8 
           2655      1.00283e+8 
           2665      8.61485e+7 
           2675       9.3466e+7 
           2685      8.90086e+7 
           2695      8.73897e+7 
           2705      9.13477e+7 
           2715      8.51512e+7 
           2725      8.67698e+7 
           2735      9.53328e+7 
           2745      7.32758e+7 
           2755      7.40948e+7 
           2765      7.71127e+7 
           2775      8.71789e+7 
           2785        8.142e+7 
           2795      4.43876e+7 
           2805      5.59107e+7 
           2815      8.69914e+7 
           2825      9.31317e+7 
           2835      8.72448e+7 
           2845      8.36165e+7 
           2855      7.98335e+7 
           2865      8.87961e+7 
           2875      8.45378e+7 
           2885      8.61797e+7 
           2895      8.08521e+7 
           2910      9.34383e+7 
           2930      8.80026e+7 
           2950      8.84627e+7 
           2970      9.12942e+7 
           2990      9.19774e+7 
           3010      9.46096e+7 
           3030      9.21953e+7 
           3050      8.98724e+7 
           3070      8.83575e+7 
           3090      9.06422e+7 
           3110      8.67185e+7 
           3130      8.61561e+7 
           3150      8.81105e+7 
           3170      8.68185e+7 
           3190      8.25013e+7 
           3210      8.47121e+7 
           3230      8.23627e+7 
           3250      8.32782e+7 
           3270      8.28615e+7 
           3290      8.36217e+7 
           3310      8.39966e+7 
           3330      8.12138e+7 
           3350      7.98206e+7 
           3370      7.94897e+7 
           3390      7.89086e+7 
           3410      8.06488e+7 
           3430      8.02842e+7 
           3450      7.91978e+7 
           3470      7.77025e+7 
           3490      7.68577e+7 
           3510      7.78619e+7 
           3530      7.80614e+7 
           3550      7.80811e+7 
           3570      7.61328e+7 
           3590       7.5585e+7 
           3610      7.52123e+7 
           3630      7.45173e+7 
           3640      7.38867e+7 
           3650      7.60472e+7 
           3670      7.47954e+7 
           3690      7.18509e+7 
           3710      8.13258e+7 
           3730       9.2048e+7 
           3750       1.2851e+8 
           3770      1.33172e+8 
           3790      1.58871e+8 
           3810      1.76023e+8 
           3830      1.40592e+8 
           3850      1.80744e+8 
           3870      1.92733e+8 
           3890      1.30189e+8 
           3910        1.869e+8 
           3930      1.80965e+8 
           3950       1.8557e+8 
           3970      1.21125e+8 
           3990      1.80223e+8 
           4010      1.81255e+8 
           4030      1.77076e+8 
           4050      1.77132e+8 
           4070      1.72043e+8 
           4090      1.56231e+8 
           4110      1.22791e+8 
           4130       1.6186e+8 
           4150      1.65842e+8 
           4170      1.61354e+8 
           4190      1.59755e+8 
           4210      1.58798e+8 
           4230      1.56154e+8 
           4250      1.52623e+8 
           4270      1.49695e+8 
           4290       1.4944e+8 
           4310      1.43702e+8 
           4330      1.24635e+8 
           4350      1.07517e+8 
           4370       1.4031e+8 
           4390      1.36558e+8 
           4410      1.36655e+8 
           4430      1.34533e+8 
           4450      1.34403e+8 
           4470      1.32117e+8 
           4490      1.28532e+8 
           4510      1.29306e+8 
           4530      1.26404e+8 
           4550      1.23299e+8 
           4570      1.24885e+8 
           4590      1.21044e+8 
           4610      1.23002e+8 
           4630      1.17947e+8 
           4650      1.19518e+8 
           4670      1.17125e+8 
           4690      1.15658e+8 
           4710      1.11797e+8 
           4730      1.13146e+8 
           4750      1.11557e+8 
           4770      1.10918e+8 
           4790      1.09309e+8 
           4810      1.06797e+8 
           4830      1.04727e+8 
           4850       9.1328e+7 
           4870      7.50412e+7 
           4890      1.00755e+8 
           4910      1.00445e+8 
           4930      9.85623e+7 
           4950      9.83409e+7 
           4970      9.77219e+7 
           4990      9.57691e+7 
           5010      9.22023e+7 
           5030      9.19276e+7 
           5050      8.99955e+7 
           5070      9.05444e+7 
           5090        8.951e+7 
           5110      8.80244e+7 
           5130      8.73351e+7 
           5150      8.51979e+7 
           5170      8.37972e+7 
           5190      8.29834e+7 
           5210      8.21282e+7 
           5230      8.06529e+7 
           5250      8.10537e+7 
           5270      7.82815e+7 
           5290      7.96697e+7 
           5310      7.72603e+7 
           5330      7.64495e+7 
           5350      7.70741e+7 
           5370       7.5998e+7 
           5390       7.5015e+7 
           5410      7.35565e+7 
           5430      7.28482e+7 
           5450      7.27356e+7 
           5470      7.16646e+7 
           5490      7.11284e+7 
           5510      7.01427e+7 
           5530      6.95315e+7 
           5550      6.89249e+7 
           5570      6.80799e+7 
           5590      6.75393e+7 
           5610      6.70598e+7 
           5630      6.63085e+7 
           5650      6.49323e+7 
           5670      6.44235e+7 
           5690      6.40622e+7 
           5710      6.34282e+7 
           5730       6.2806e+7 
           5750      6.19984e+7 
           5770      6.13985e+7 
           5790      6.05233e+7 
           5810      5.99299e+7 
           5830      5.93166e+7 
           5850      5.87829e+7 
           5870      5.79008e+7 
           5890      5.70663e+7 
           5910      5.68015e+7 
           5930      5.63226e+7 
           5950      5.51816e+7 
           5970      5.49658e+7 
           5990      5.41353e+7 
           6010      5.38736e+7 
           6030      5.33915e+7 
           6050      5.26346e+7 
           6070      5.22177e+7 
           6090       5.1663e+7 
           6110       5.1174e+7 
           6130       5.0587e+7 
           6150      4.89965e+7 
           6170      4.95106e+7 
           6190      4.91361e+7 
           6210      4.86199e+7 
           6230       4.8017e+7 
           6250      4.68663e+7 
           6270      4.71399e+7 
           6290      4.66749e+7 
           6310      4.59746e+7 
           6330      4.56826e+7 
           6350      4.42807e+7 
           6370      4.41851e+7 
           6390      4.42586e+7 
           6410      4.37087e+7 
           6430      4.34235e+7 
           6450       4.2346e+7 
           6470      4.26489e+7 
           6490      4.18471e+7 
           6510      4.14384e+7 
           6530      4.08112e+7 
           6550      3.73573e+7 
           6570      3.03741e+7 
           6590      3.92473e+7 
           6610      3.95474e+7 
           6630       3.9244e+7 
           6650      3.90032e+7 
           6670       3.8552e+7 
           6690      3.82023e+7 
           6710      3.79038e+7 
           6730      3.73703e+7 
           6750      3.71268e+7 
           6770       3.6856e+7 
           6790      3.64243e+7 
           6810      3.61286e+7 
           6830       3.5671e+7 
           6850      3.54213e+7 
           6870      3.51012e+7 
           6890      3.47961e+7 
           6910      3.44419e+7 
           6930      3.40552e+7 
           6950      3.38243e+7 
           6970      3.34948e+7 
           6990      3.32309e+7 
           7010      3.26628e+7 
           7030      3.26015e+7 
           7050      3.22228e+7 
           7070      3.19729e+7 
           7090       3.1738e+7 
           7110      3.12326e+7 
           7130      3.10724e+7 
           7150      3.07633e+7 
           7170      3.05311e+7 
           7190      3.02805e+7 
           7210      3.00251e+7 
           7230      2.96819e+7 
           7250      2.93449e+7 
           7270      2.92158e+7 
           7290      2.89175e+7 
           7310      2.86361e+7 
           7330      2.84302e+7 
           7350      2.82178e+7 
           7370       2.7983e+7 
           7390      2.77111e+7 
           7410      2.74272e+7 
           7430      2.69781e+7 
           7450      2.68579e+7 
           7470      2.65219e+7 
           7490      2.64039e+7 
           7510        2.617e+7 
           7530      2.60477e+7 
           7550      2.58385e+7 
           7570       2.5595e+7 
           7590       2.5355e+7 
           7610      2.52005e+7 
           7630      2.49553e+7 
           7650      2.46924e+7 
           7670      2.45048e+7 
           7690      2.42858e+7 
           7710      2.40611e+7 
           7730      2.38989e+7 
           7750      2.36973e+7 
           7770       2.2886e+7 
           7790      2.33019e+7 
           7810      2.31259e+7 
           7830      2.29059e+7 
           7850      2.25796e+7 
           7870      2.23579e+7 
           7890      2.20565e+7 
           7910      2.21059e+7 
           7930      2.19574e+7 
           7950      2.14888e+7 
           7970      2.16195e+7 
           7990      2.09573e+7 
           8010      2.12591e+7 
           8030       2.1078e+7 
           8050      2.08937e+7 
           8070      2.07319e+7 
           8090      2.05662e+7 
           8110        2.036e+7 
           8130      2.02349e+7 
           8150      2.00835e+7 
           8170      1.99266e+7 
           8190      1.96194e+7 
           8210      1.94367e+7 
           8230      1.91282e+7 
           8250      1.92653e+7 
           8270      1.92747e+7 
           8290      1.90502e+7 
           8310      1.89565e+7 
           8330      1.87217e+7 
           8350       1.8617e+7 
           8370      1.84184e+7 
           8390      1.82178e+7 
           8410      1.79661e+7 
           8430      1.79144e+7 
           8450       1.7521e+7 
           8470      1.70687e+7 
           8490      1.80687e+7 
           8510      1.64888e+7 
           8530      1.82796e+7 
           8550      1.56685e+7 
           8570      1.85121e+7 
           8590      1.69683e+7 
           8610      1.64332e+7 
           8630      1.86987e+7 
           8650      1.80811e+7 
           8670      1.45567e+7 
           8690      1.82877e+7 
           8710      1.88762e+7 
           8730      1.82406e+7 
           8750      1.41864e+7 
           8770      1.74868e+7 
           8790      1.84639e+7 
           8810      1.83394e+7 
           8830      1.78631e+7 
           8850      1.65487e+7 
           8870      1.37554e+7 
           8890      1.73816e+7 
           8910      1.75794e+7 
           8930      1.74436e+7 
           8950      1.74988e+7 
           8970      1.72991e+7 
           8990      1.68265e+7 
           9010      1.35396e+7 
           9030      1.49457e+7 
           9050      1.65779e+7 
           9070      1.63469e+7 
           9090       1.6239e+7 
           9110      1.62953e+7 
           9130       1.6271e+7 
           9150      1.62162e+7 
           9170      1.59968e+7 
           9190      1.56752e+7 
