# Kurucz ODFNEW /NOVER (2003)
# teff = 28000 K (value for the effective temperature for the model. Temperatures are given in K)
# logg = 5 log(cm/s2) (value for Log(G) for the model.)
# meta = -1  (value for the Metallicity for the model.)
# lh = 1.25  (l/Hp where l is the  mixing length of the convective element and Hp is the pressure scale height)
# vtur = 2 km/s (Microturbulence velocity)
# alpha = 0  (Alpha)
#
# column 1: WAVELENGTH (ANGSTROM), Wavelength in Angstrom
# column 2: FLUX (ERG/CM2/S/A), Flux in erg/cm2/s/A
          147.2     7.81996e-11 
            151     2.89705e-10 
          155.2      1.14878e-9 
          158.8      3.54389e-9 
            162      9.27612e-9 
            166      2.93826e-8 
          170.3      9.57512e-8 
          173.4      2.16722e-7 
          176.8      5.14061e-7 
          180.2      1.18116e-6 
          181.7      1.68847e-6 
          186.1      4.66414e-6 
            191      1.36953e-5 
          193.9      2.52538e-5 
          198.4      6.30014e-5 
          201.8     0.000122326 
            205     0.000223859 
          210.5     0.000606003 
          216.2      0.00161129 
          219.8      0.00290976 
            223      0.00484092 
          226.8      0.00869495 
            230        0.550815 
            234         1.28617 
            240         2.66091 
          246.5         5.63412 
          252.4         10.8928 
          256.8         16.1732 
            260         24.0059 
            264         35.1157 
          268.5         54.1065 
          273.5         85.4515 
          278.5         132.784 
            284         213.979 
            290         346.457 
            296         550.286 
            301             790 
            308         1235.54 
            318         2590.25 
            328         4785.46 
            338         8751.46 
            348         15181.6 
            357         25290.9 
            366         40112.4 
            375         59673.9 
            385         93284.5 
            395          141178 
            405          207636 
            414          291851 
            422          381629 
            430          500486 
            441          713376 
            451          971101 
            460      1.24983e+6 
            470      1.65877e+6 
            480      2.15213e+6 
            490      2.77079e+6 
            500      3.53237e+6 
            506      1.70785e+7 
            512        6.853e+7 
            520      7.65427e+7 
            530      9.13861e+7 
            540      9.26682e+7 
            550      1.17576e+8 
            560      1.28624e+8 
            570      1.46262e+8 
            580      1.42953e+8 
            590      1.71287e+8 
            600      1.86533e+8 
            610       2.0672e+8 
            620      2.21921e+8 
            630      2.40019e+8 
            640      2.45932e+8 
            650      2.70505e+8 
            658      2.89558e+8 
            665      3.05439e+8 
            675      3.16721e+8 
            685      3.29701e+8 
            695      3.76375e+8 
            705      3.88262e+8 
            716      4.22984e+8 
            726      4.41067e+8 
            735      4.63296e+8 
            745      4.97688e+8 
            755       5.2377e+8 
            765      5.50612e+8 
            775      5.81234e+8 
            785      6.14102e+8 
            795      6.35706e+8 
            805      6.62623e+8 
            815       6.8503e+8 
            825      7.22822e+8 
            835       7.1696e+8 
            845       7.6715e+8 
            855      7.92445e+8 
            865      8.28656e+8 
            875      8.66804e+8 
            885      9.03602e+8 
            895      9.33893e+8 
            905      9.48924e+8 
            915      1.09537e+9 
            925      4.35868e+9 
            935      1.0382e+10 
            945     2.77106e+10 
            955     3.96588e+10 
            965      5.4117e+10 
            975     1.77152e+10 
            985     6.07093e+10 
            995     5.69151e+10 
           1005     6.06482e+10 
           1015     5.40434e+10 
           1025     1.74462e+10 
           1035     4.66259e+10 
           1045     6.14069e+10 
           1055     5.91787e+10 
           1065     5.23032e+10 
           1075      5.5126e+10 
           1085     4.95383e+10 
           1095     5.37716e+10 
           1105     5.08034e+10 
           1115     4.99235e+10 
           1125     4.48846e+10 
           1135     4.80041e+10 
           1145     4.41291e+10 
           1155     4.50655e+10 
           1165     4.41508e+10 
           1175     3.47171e+10 
           1185     4.11921e+10 
           1195     3.84505e+10 
           1205     3.17023e+10 
           1215     1.25167e+10 
           1225     3.13635e+10 
           1235     3.65015e+10 
           1245     3.59273e+10 
           1255     3.54694e+10 
           1265     3.49038e+10 
           1275     3.47941e+10 
           1285     3.40242e+10 
           1295     3.03199e+10 
           1305     3.05604e+10 
           1315      3.1764e+10 
           1325     3.03594e+10 
           1335     2.91685e+10 
           1345       2.903e+10 
           1355     2.89355e+10 
           1365     2.75608e+10 
           1375     2.71096e+10 
           1385      2.6584e+10 
           1395     2.37069e+10 
           1405      2.3947e+10 
           1415     2.45468e+10 
           1425     2.37174e+10 
           1435     2.36441e+10 
           1442     2.36905e+10 
           1447     2.32895e+10 
           1455     2.27992e+10 
           1465     2.20397e+10 
           1475     2.16691e+10 
           1485     2.12228e+10 
           1495     2.07612e+10 
           1505     1.97278e+10 
           1512     1.89671e+10 
           1517       1.906e+10 
           1525     1.88508e+10 
           1535     1.73941e+10 
           1545     1.71854e+10 
           1555     1.65195e+10 
           1565      1.6949e+10 
           1575     1.70533e+10 
           1585     1.68043e+10 
           1595     1.65973e+10 
           1605     1.59801e+10 
           1615     1.55705e+10 
           1625      1.5535e+10 
           1635     1.55245e+10 
           1645     1.50022e+10 
           1655      1.5036e+10 
           1665     1.48818e+10 
           1672     1.44866e+10 
           1677     1.48437e+10 
           1685     1.45041e+10 
           1695     1.40882e+10 
           1705     1.36837e+10 
           1715      1.3253e+10 
           1725     1.30061e+10 
           1735     1.30006e+10 
           1745     1.27369e+10 
           1755     1.26375e+10 
           1765     1.21911e+10 
           1775     1.19556e+10 
           1785     1.18875e+10 
           1795     1.18151e+10 
           1805       1.171e+10 
           1815     1.12436e+10 
           1825     1.11855e+10 
           1835     1.09568e+10 
           1845     1.02779e+10 
           1855     1.01482e+10 
           1865     1.01918e+10 
           1875     1.02211e+10 
           1885      9.53925e+9 
           1895      9.09002e+9 
           1905      9.40333e+9 
           1915      9.03807e+9 
           1925      8.74698e+9 
           1935      8.92747e+9 
           1945      8.99026e+9 
           1955      8.40075e+9 
           1967      8.61745e+9 
           1976      8.78545e+9 
           1984      8.35115e+9 
           1995      8.11194e+9 
           2005      8.17929e+9 
           2015      8.16418e+9 
           2025      8.16845e+9 
           2035      7.80445e+9 
           2045      7.71381e+9 
           2055      7.40439e+9 
           2065      7.35432e+9 
           2074      7.49189e+9 
           2078      7.20335e+9 
           2085       7.2126e+9 
           2095      7.00495e+9 
           2105      7.12968e+9 
           2115      7.07934e+9 
           2125      7.06768e+9 
           2135      6.92907e+9 
           2145      6.74801e+9 
           2155      6.73786e+9 
           2165       6.6551e+9 
           2175      6.54347e+9 
           2185      6.45634e+9 
           2195      6.39397e+9 
           2205      6.29922e+9 
           2215       6.2126e+9 
           2225      6.10613e+9 
           2235      6.00508e+9 
           2245      5.95431e+9 
           2255      5.84724e+9 
           2265      5.79007e+9 
           2275      5.70995e+9 
           2285      5.63757e+9 
           2295      5.44106e+9 
           2305      5.47152e+9 
           2315      5.38309e+9 
           2325      5.31326e+9 
           2335      5.22224e+9 
           2345      5.17334e+9 
           2355      5.11198e+9 
           2365      5.04243e+9 
           2375      4.96613e+9 
           2385      4.89749e+9 
           2395      4.83329e+9 
           2405      4.77006e+9 
           2415      4.70364e+9 
           2425      4.65506e+9 
           2435      4.57885e+9 
           2445      4.52678e+9 
           2455      4.47542e+9 
           2465       4.4158e+9 
           2475       4.3567e+9 
           2485      4.29926e+9 
           2495      4.10546e+9 
           2505      4.18039e+9 
           2513      4.06738e+9 
           2518      4.11089e+9 
           2525      4.08057e+9 
           2535      4.02868e+9 
           2545      3.94765e+9 
           2555      3.91779e+9 
           2565      3.87596e+9 
           2575      3.83222e+9 
           2585      3.78617e+9 
           2595       3.7388e+9 
           2605      3.71154e+9 
           2615      3.66674e+9 
           2625      3.62404e+9 
           2635      3.57917e+9 
           2645      3.53358e+9 
           2655      3.48937e+9 
           2665      3.43093e+9 
           2675       3.3879e+9 
           2685       3.3695e+9 
           2695      3.28998e+9 
           2705      3.27872e+9 
           2715      3.24291e+9 
           2725      3.17908e+9 
           2735      3.16685e+9 
           2745      3.12132e+9 
           2755      3.09086e+9 
           2765      3.02823e+9 
           2775      3.02582e+9 
           2785      2.98805e+9 
           2795      2.91183e+9 
           2805      2.90437e+9 
           2815      2.88738e+9 
           2825      2.82006e+9 
           2835        2.774e+9 
           2845      2.78818e+9 
           2855      2.75375e+9 
           2865      2.72433e+9 
           2875      2.69347e+9 
           2885      2.66329e+9 
           2895      2.63265e+9 
           2910      2.58649e+9 
           2930       2.5294e+9 
           2950      2.45042e+9 
           2970      2.41953e+9 
           2990      2.36427e+9 
           3010      2.31012e+9 
           3030      2.26528e+9 
           3050      2.21717e+9 
           3070      2.17054e+9 
           3090      2.11555e+9 
           3110      2.07873e+9 
           3130      2.03544e+9 
           3150      1.99339e+9 
           3170      1.95085e+9 
           3190      1.89211e+9 
           3210      1.87182e+9 
           3230      1.83246e+9 
           3250      1.79557e+9 
           3270      1.76099e+9 
           3290      1.72294e+9 
           3310      1.69152e+9 
           3330      1.65757e+9 
           3350      1.62182e+9 
           3370      1.59278e+9 
           3390      1.56211e+9 
           3410      1.53179e+9 
           3430      1.49518e+9 
           3450      1.46083e+9 
           3470      1.43697e+9 
           3490      1.40954e+9 
           3510      1.38456e+9 
           3530      1.36015e+9 
           3550      1.33554e+9 
           3570      1.31997e+9 
           3590        1.283e+9 
           3610      1.26538e+9 
           3630      1.23718e+9 
           3640       1.2375e+9 
           3650      1.21436e+9 
           3670      1.19811e+9 
           3690      1.17724e+9 
           3710      1.13858e+9 
           3730      1.10076e+9 
           3750      1.08675e+9 
           3770       1.0551e+9 
           3790      1.09375e+9 
           3810      1.13688e+9 
           3830      9.92411e+8 
           3850      1.17056e+9 
           3870      1.19534e+9 
           3890       9.2927e+8 
           3910      1.17673e+9 
           3930      1.17242e+9 
           3950       1.1395e+9 
           3970      8.63058e+8 
           3990      1.08782e+9 
           4010      1.09825e+9 
           4030      1.02133e+9 
           4050      1.07597e+9 
           4070      1.04314e+9 
           4090      9.34026e+8 
           4110      8.13469e+8 
           4130      9.76737e+8 
           4150      9.74826e+8 
           4170      9.69983e+8 
           4190      9.56539e+8 
           4210      9.42158e+8 
           4230       9.2548e+8 
           4250      9.07842e+8 
           4270      8.86051e+8 
           4290       8.7392e+8 
           4310      8.49381e+8 
           4330      7.47596e+8 
           4350       6.8091e+8 
           4370      8.03866e+8 
           4390      7.75661e+8 
           4410      7.90531e+8 
           4430      7.78284e+8 
           4450       7.6786e+8 
           4470      7.11323e+8 
           4490      7.41701e+8 
           4510      7.33322e+8 
           4530      7.21372e+8 
           4550      7.09294e+8 
           4570      6.97688e+8 
           4590      6.86775e+8 
           4610       6.7583e+8 
           4630      6.65154e+8 
           4650      6.51029e+8 
           4670      6.44463e+8 
           4690      6.34867e+8 
           4710      6.14679e+8 
           4730      6.15082e+8 
           4750      6.05004e+8 
           4770      5.97955e+8 
           4790      5.87964e+8 
           4810      5.76783e+8 
           4830       5.6202e+8 
           4850       5.0592e+8 
           4870      4.51022e+8 
           4890      5.33929e+8 
           4910       5.3326e+8 
           4930      5.11148e+8 
           4950      5.21156e+8 
           4970      5.14423e+8 
           4990      5.06797e+8 
           5010      4.90752e+8 
           5030      4.92024e+8 
           5050      4.81339e+8 
           5070      4.78135e+8 
           5090      4.71201e+8 
           5110      4.64418e+8 
           5130      4.57411e+8 
           5150      4.50925e+8 
           5170      4.44906e+8 
           5190      4.38714e+8 
           5210      4.32396e+8 
           5230      4.26492e+8 
           5250      4.20543e+8 
           5270      4.14644e+8 
           5290      4.08943e+8 
           5310      4.03263e+8 
           5330      3.97723e+8 
           5350      3.92201e+8 
           5370      3.86973e+8 
           5390      3.81682e+8 
           5410      3.76496e+8 
           5430      3.71403e+8 
           5450      3.66373e+8 
           5470      3.61471e+8 
           5490      3.56654e+8 
           5510      3.51936e+8 
           5530      3.47214e+8 
           5550      3.42674e+8 
           5570      3.38117e+8 
           5590      3.33712e+8 
           5610      3.29302e+8 
           5630      3.25029e+8 
           5650      3.20655e+8 
           5670      3.16276e+8 
           5690      3.11962e+8 
           5710      3.08406e+8 
           5730      3.04478e+8 
           5750      3.00415e+8 
           5770      2.96797e+8 
           5790      2.93008e+8 
           5810      2.89287e+8 
           5830      2.85588e+8 
           5850       2.8202e+8 
           5870      2.68097e+8 
           5890      2.73729e+8 
           5910      2.71491e+8 
           5930      2.68045e+8 
           5950      2.64692e+8 
           5970        2.616e+8 
           5990      2.58271e+8 
           6010      2.55168e+8 
           6030      2.52017e+8 
           6050      2.48964e+8 
           6070      2.45956e+8 
           6090      2.42962e+8 
           6110      2.40032e+8 
           6130      2.37135e+8 
           6150       2.3417e+8 
           6170      2.31428e+8 
           6190      2.28706e+8 
           6210      2.25984e+8 
           6230      2.23303e+8 
           6250      2.20622e+8 
           6270      2.18038e+8 
           6290      2.15483e+8 
           6310      2.12936e+8 
           6330      2.10465e+8 
           6350      2.07926e+8 
           6370      2.05555e+8 
           6390      2.03182e+8 
           6410      2.00834e+8 
           6430      1.98539e+8 
           6450       1.9625e+8 
           6470      1.93895e+8 
           6490      1.91656e+8 
           6510      1.88978e+8 
           6530      1.85657e+8 
           6550      1.74673e+8 
           6570      1.54148e+8 
           6590      1.77304e+8 
           6610      1.78216e+8 
           6630      1.76868e+8 
           6650      1.75201e+8 
           6670      1.70942e+8 
           6690      1.69088e+8 
           6710      1.69463e+8 
           6730      1.67542e+8 
           6750      1.65749e+8 
           6770      1.63932e+8 
           6790      1.61955e+8 
           6810      1.60339e+8 
           6830      1.58594e+8 
           6850      1.56882e+8 
           6870      1.55188e+8 
           6890      1.53494e+8 
           6910      1.51826e+8 
           6930      1.50214e+8 
           6950      1.48609e+8 
           6970      1.47021e+8 
           6990      1.45448e+8 
           7010      1.43907e+8 
           7030       1.4238e+8 
           7050      1.40868e+8 
           7070        1.369e+8 
           7090       1.3792e+8 
           7110      1.36467e+8 
           7130      1.35042e+8 
           7150      1.33632e+8 
           7170      1.32228e+8 
           7190      1.30867e+8 
           7210      1.29511e+8 
           7230      1.27578e+8 
           7250      1.26839e+8 
           7270      1.25551e+8 
           7290       1.2314e+8 
           7310      1.22982e+8 
           7330      1.21737e+8 
           7350      1.20503e+8 
           7370      1.19281e+8 
           7390      1.18071e+8 
           7410      1.16879e+8 
           7430      1.15704e+8 
           7450      1.14555e+8 
           7470      1.13375e+8 
           7490      1.12273e+8 
           7510      1.11122e+8 
           7530      1.10054e+8 
           7550      1.08963e+8 
           7570      1.07888e+8 
           7590      1.06823e+8 
           7610      1.05755e+8 
           7630      1.04729e+8 
           7650      1.03706e+8 
           7670      1.02692e+8 
           7690      1.01693e+8 
           7710      1.00704e+8 
           7730      9.97228e+7 
           7750      9.87635e+7 
           7770      9.77565e+7 
           7790      9.68703e+7 
           7810      9.58869e+7 
           7830      9.50167e+7 
           7850      9.41846e+7 
           7870      9.32808e+7 
           7890      9.23304e+7 
           7910      9.15329e+7 
           7930      9.06704e+7 
           7950      8.97975e+7 
           7970      8.88374e+7 
           7990      8.80332e+7 
           8010      8.71185e+7 
           8030      8.62878e+7 
           8050      8.54759e+7 
           8070      8.46883e+7 
           8090      8.38211e+7 
           8110       8.3076e+7 
           8130      8.23999e+7 
           8150      8.15989e+7 
           8170      8.09121e+7 
           8190      8.00681e+7 
           8210      7.91698e+7 
           8230      7.86075e+7 
           8250      7.79335e+7 
           8270      7.68795e+7 
           8290       7.6498e+7 
           8310      7.58466e+7 
           8330      7.51191e+7 
           8350      7.41112e+7 
           8370      7.36822e+7 
           8390      7.31333e+7 
           8410       7.2477e+7 
           8430      7.17889e+7 
           8450      7.06633e+7 
           8470      7.05295e+7 
           8490      6.97429e+7 
           8510       6.9249e+7 
           8530      6.84794e+7 
           8550      6.78038e+7 
           8570      6.75801e+7 
           8590      6.57136e+7 
