# Kurucz ODFNEW /NOVER (2003)
# teff = 27000 K (value for the effective temperature for the model. Temperatures are given in K)
# logg = 3.5 log(cm/s2) (value for Log(G) for the model.)
# meta = -1  (value for the Metallicity for the model.)
# lh = 1.25  (l/Hp where l is the  mixing length of the convective element and Hp is the pressure scale height)
# vtur = 2 km/s (Microturbulence velocity)
# alpha = 0  (Alpha)
#
# column 1: WAVELENGTH (ANGSTROM), Wavelength in Angstrom
# column 2: FLUX (ERG/CM2/S/A), Flux in erg/cm2/s/A
          147.2     8.77917e-12 
            151     3.48625e-11 
          155.2     1.48058e-10 
          158.8     4.81432e-10 
            162      1.31499e-9 
            166      4.37143e-9 
          170.3        1.492e-8 
          173.4       3.4808e-8 
          176.8      8.51401e-8 
          180.2      2.01231e-7 
          181.7      2.91046e-7 
          186.1      8.30512e-7 
            191      2.51993e-6 
          193.9      4.73061e-6 
          198.4      1.21118e-5 
          201.8      2.39535e-5 
            205       4.4563e-5 
          210.5     0.000123867 
          216.2     0.000337878 
          219.8     0.000619655 
            223      0.00104461 
          226.8      0.00190539 
            230        0.817125 
            234         2.00185 
            240         4.04036 
          246.5          8.6125 
          252.4         16.5681 
          256.8         22.6519 
            260         37.5815 
            264         54.4694 
          268.5         84.7758 
          273.5         133.307 
          278.5         203.135 
            284         348.508 
            290         557.479 
            296         870.404 
            301         1189.22 
            308         1855.21 
            318         4237.67 
            328          7621.5 
            338         14060.9 
            348         24262.9 
            357         48468.3 
            366         79262.9 
            375          114113 
            385          177971 
            395          272506 
            405          390705 
            414          544688 
            422          692982 
            430          905332 
            441       1.2677e+6 
            451      1.69187e+6 
            460      2.13433e+6 
            470      2.80987e+6 
            480      3.59381e+6 
            490      4.58116e+6 
            500      5.80284e+6 
            506      3.64876e+7 
            512      1.37541e+8 
            520      1.42374e+8 
            530      1.53629e+8 
            540       1.5011e+8 
            550      1.90332e+8 
            560      2.16535e+8 
            570      2.41158e+8 
            580      2.30271e+8 
            590      2.74479e+8 
            600       2.8915e+8 
            610      3.21703e+8 
            620      3.54247e+8 
            630      3.75144e+8 
            640      3.78192e+8 
            650      3.94349e+8 
            658      4.32118e+8 
            665      4.63022e+8 
            675      4.75483e+8 
            685      4.81107e+8 
            695      5.61235e+8 
            705      5.60844e+8 
            716      6.23505e+8 
            726      6.40698e+8 
            735      6.64267e+8 
            745       7.1684e+8 
            755      7.45032e+8 
            765      7.83167e+8 
            775      8.22485e+8 
            785      8.70135e+8 
            795      8.96187e+8 
            805      9.23998e+8 
            815      9.41505e+8 
            825        9.988e+8 
            835      9.47787e+8 
            845      1.03977e+9 
            855      1.06821e+9 
            865      1.11424e+9 
            875       1.1644e+9 
            885      1.21707e+9 
            895      1.25629e+9 
            905      1.27118e+9 
            915      1.99806e+9 
            925     1.46729e+10 
            935     2.54968e+10 
            945     3.68337e+10 
            955     3.95047e+10 
            965     4.37766e+10 
            975     1.99183e+10 
            985     3.94154e+10 
            995     3.72934e+10 
           1005     3.91155e+10 
           1015     3.89373e+10 
           1025     2.82634e+10 
           1035     3.57484e+10 
           1045     4.15531e+10 
           1055     3.97334e+10 
           1065     3.55331e+10 
           1075     3.73983e+10 
           1085     3.47088e+10 
           1095     3.71066e+10 
           1105     3.54816e+10 
           1115     3.49874e+10 
           1125     3.12605e+10 
           1135     3.42477e+10 
           1145      3.2086e+10 
           1155     3.24591e+10 
           1165     3.20403e+10 
           1175     2.43628e+10 
           1185     3.00504e+10 
           1195     2.90826e+10 
           1205     2.62876e+10 
           1215     1.97546e+10 
           1225     2.74396e+10 
           1235     2.83926e+10 
           1245     2.74862e+10 
           1255     2.73513e+10 
           1265     2.71937e+10 
           1275     2.71535e+10 
           1285     2.67485e+10 
           1295     2.41894e+10 
           1305     2.46342e+10 
           1315     2.54548e+10 
           1325     2.45034e+10 
           1335     2.37043e+10 
           1345     2.37009e+10 
           1355     2.35678e+10 
           1365     2.27163e+10 
           1375     2.23113e+10 
           1385      2.1951e+10 
           1395     1.88751e+10 
           1405     1.93019e+10 
           1415     2.04901e+10 
           1425     1.95653e+10 
           1435     1.98388e+10 
           1442     1.99311e+10 
           1447     1.96317e+10 
           1455     1.91619e+10 
           1465     1.86484e+10 
           1475     1.84553e+10 
           1485     1.82332e+10 
           1495     1.77861e+10 
           1505     1.71364e+10 
           1512     1.64953e+10 
           1517     1.66045e+10 
           1525     1.63886e+10 
           1535      1.4933e+10 
           1545     1.45498e+10 
           1555     1.40541e+10 
           1565     1.46076e+10 
           1575     1.49405e+10 
           1585     1.48232e+10 
           1595     1.46597e+10 
           1605     1.39699e+10 
           1615     1.36151e+10 
           1625     1.36407e+10 
           1635     1.37517e+10 
           1645     1.33663e+10 
           1655      1.3491e+10 
           1665     1.32981e+10 
           1672     1.28979e+10 
           1677     1.35778e+10 
           1685     1.31804e+10 
           1695     1.27978e+10 
           1705      1.2474e+10 
           1715     1.20576e+10 
           1725     1.18549e+10 
           1735     1.19685e+10 
           1745     1.17535e+10 
           1755     1.16565e+10 
           1765     1.13949e+10 
           1775      1.1105e+10 
           1785     1.10991e+10 
           1795     1.10103e+10 
           1805     1.09768e+10 
           1815     1.05086e+10 
           1825     1.04898e+10 
           1835     1.03428e+10 
           1845       9.6705e+9 
           1855      9.63461e+9 
           1865      9.69988e+9 
           1875       9.7031e+9 
           1885      9.04327e+9 
           1895      8.62024e+9 
           1905      8.96898e+9 
           1915      8.64349e+9 
           1925      8.32406e+9 
           1935      8.59282e+9 
           1945       8.6688e+9 
           1955      8.03802e+9 
           1967      8.31785e+9 
           1976      8.52562e+9 
           1984      8.09255e+9 
           1995      7.87227e+9 
           2005      7.95784e+9 
           2015      7.96729e+9 
           2025      7.99417e+9 
           2035       7.6045e+9 
           2045      7.53625e+9 
           2055      6.98092e+9 
           2065      6.89447e+9 
           2074       7.1533e+9 
           2078      6.89799e+9 
           2085      7.06277e+9 
           2095       6.9283e+9 
           2105      7.03029e+9 
           2115      7.00052e+9 
           2125      6.99527e+9 
           2135      6.87394e+9 
           2145      6.68161e+9 
           2155      6.70906e+9 
           2165      6.61162e+9 
           2175      6.53002e+9 
           2185      6.43109e+9 
           2195      6.40108e+9 
           2205      6.31193e+9 
           2215      6.21529e+9 
           2225      6.12431e+9 
           2235      6.02182e+9 
           2245      5.98152e+9 
           2255      5.86636e+9 
           2265      5.82422e+9 
           2275      5.75195e+9 
           2285      5.67638e+9 
           2295      5.40765e+9 
           2305      5.50478e+9 
           2315      5.42998e+9 
           2325      5.36204e+9 
           2335      5.27379e+9 
           2345      5.24206e+9 
           2355      5.17474e+9 
           2365      5.11013e+9 
           2375      5.03285e+9 
           2385      4.95299e+9 
           2395      4.89825e+9 
           2405      4.84347e+9 
           2415       4.7756e+9 
           2425      4.72668e+9 
           2435       4.6495e+9 
           2445      4.60159e+9 
           2455      4.55199e+9 
           2465      4.49399e+9 
           2475      4.43259e+9 
           2485      4.37228e+9 
           2495      3.96596e+9 
           2505      4.24949e+9 
           2513      4.13413e+9 
           2518      4.17649e+9 
           2525      4.16394e+9 
           2535       4.1155e+9 
           2545      4.02588e+9 
           2555      3.99644e+9 
           2565      3.96076e+9 
           2575      3.91603e+9 
           2585      3.86837e+9 
           2595      3.82255e+9 
           2605      3.79315e+9 
           2615       3.7448e+9 
           2625      3.70091e+9 
           2635      3.65323e+9 
           2645      3.60697e+9 
           2655      3.56419e+9 
           2665      3.50758e+9 
           2675      3.46808e+9 
           2685       3.4469e+9 
           2695       3.3724e+9 
           2705      3.35199e+9 
           2715      3.31738e+9 
           2725      3.26537e+9 
           2735      3.23464e+9 
           2745      3.20446e+9 
           2755      3.17112e+9 
           2765      3.11402e+9 
           2775      3.10278e+9 
           2785      3.06353e+9 
           2795      2.99304e+9 
           2805      2.98309e+9 
           2815      2.96317e+9 
           2825      2.90956e+9 
           2835      2.86652e+9 
           2845      2.86377e+9 
           2855      2.82664e+9 
           2865       2.7973e+9 
           2875       2.7668e+9 
           2885      2.73711e+9 
           2895      2.70497e+9 
           2910      2.65736e+9 
           2930      2.60216e+9 
           2950      2.52999e+9 
           2970      2.48915e+9 
           2990      2.43405e+9 
           3010      2.37516e+9 
           3030      2.33139e+9 
           3050      2.28395e+9 
           3070      2.23754e+9 
           3090      2.17655e+9 
           3110      2.14342e+9 
           3130      2.09797e+9 
           3150      2.05459e+9 
           3170      2.01158e+9 
           3190       1.9596e+9 
           3210      1.92977e+9 
           3230      1.89085e+9 
           3250      1.85445e+9 
           3270      1.81746e+9 
           3290      1.77956e+9 
           3310      1.74684e+9 
           3330      1.71121e+9 
           3350       1.6759e+9 
           3370      1.64519e+9 
           3390      1.61453e+9 
           3410      1.58359e+9 
           3430      1.54705e+9 
           3450      1.51274e+9 
           3470      1.48728e+9 
           3490      1.45884e+9 
           3510      1.43676e+9 
           3530      1.41161e+9 
           3550      1.38531e+9 
           3570      1.36469e+9 
           3590      1.33164e+9 
           3610      1.30906e+9 
           3630      1.28375e+9 
           3640      1.27933e+9 
           3650      1.25191e+9 
           3670      1.23447e+9 
           3690       1.2032e+9 
           3710      1.16929e+9 
           3730      1.13664e+9 
           3750      1.19557e+9 
           3770      1.18774e+9 
           3790      1.21238e+9 
           3810      1.24253e+9 
           3830      1.12316e+9 
           3850      1.24109e+9 
           3870      1.22228e+9 
           3890      1.07088e+9 
           3910      1.19526e+9 
           3930      1.16664e+9 
           3950      1.15222e+9 
           3970      9.91966e+8 
           3990      1.11177e+9 
           4010      1.09373e+9 
           4030      1.05193e+9 
           4050      1.06249e+9 
           4070      1.03474e+9 
           4090      9.91769e+8 
           4110      9.01563e+8 
           4130      9.79984e+8 
           4150      9.67236e+8 
           4170      9.56832e+8 
           4190      9.41539e+8 
           4210      9.27301e+8 
           4230      9.12068e+8 
           4250      8.94598e+8 
           4270       8.7572e+8 
           4290      8.64954e+8 
           4310      8.48204e+8 
           4330      8.04741e+8 
           4350      7.45316e+8 
           4370      8.07377e+8 
           4390      7.87234e+8 
           4410      7.83112e+8 
           4430      7.71795e+8 
           4450      7.60897e+8 
           4470      7.31365e+8 
           4490      7.36955e+8 
           4510      7.26284e+8 
           4530      7.14983e+8 
           4550      7.02597e+8 
           4570      6.91645e+8 
           4590      6.80803e+8 
           4610      6.70494e+8 
           4630      6.60163e+8 
           4650      6.42857e+8 
           4670      6.39419e+8 
           4690      6.29113e+8 
           4710      6.13779e+8 
           4730      6.12119e+8 
           4750      6.02266e+8 
           4770      5.95041e+8 
           4790      5.86043e+8 
           4810      5.76946e+8 
           4830      5.67172e+8 
           4850      5.43925e+8 
           4870       4.9758e+8 
           4890      5.42657e+8 
           4910      5.35823e+8 
           4930      5.20169e+8 
           4950      5.19757e+8 
           4970      5.13294e+8 
           4990      5.05829e+8 
           5010      4.92733e+8 
           5030      4.91384e+8 
           5050      4.82181e+8 
           5070      4.77622e+8 
           5090      4.70794e+8 
           5110      4.64144e+8 
           5130      4.57339e+8 
           5150      4.50953e+8 
           5170      4.44878e+8 
           5190      4.38826e+8 
           5210      4.32729e+8 
           5230      4.26768e+8 
           5250      4.20912e+8 
           5270      4.15078e+8 
           5290      4.09482e+8 
           5310      4.03864e+8 
           5330      3.98452e+8 
           5350      3.93031e+8 
           5370      3.87796e+8 
           5390      3.82512e+8 
           5410      3.77166e+8 
           5430      3.72438e+8 
           5450      3.67439e+8 
           5470      3.62579e+8 
           5490      3.57792e+8 
           5510      3.53139e+8 
           5530      3.48458e+8 
           5550       3.4397e+8 
           5570      3.39452e+8 
           5590       3.3505e+8 
           5610      3.30715e+8 
           5630      3.26467e+8 
           5650      3.22189e+8 
           5670      3.17823e+8 
           5690      3.13254e+8 
           5710      3.09873e+8 
           5730      3.06015e+8 
           5750      3.01862e+8 
           5770      2.98415e+8 
           5790      2.94615e+8 
           5810      2.90928e+8 
           5830      2.87195e+8 
           5850      2.83704e+8 
           5870      2.74001e+8 
           5890      2.76291e+8 
           5910      2.73206e+8 
           5930       2.6977e+8 
           5950      2.66459e+8 
           5970      2.63408e+8 
           5990      2.60056e+8 
           6010      2.56983e+8 
           6030       2.5382e+8 
           6050      2.50796e+8 
           6070      2.47817e+8 
           6090      2.44841e+8 
           6110      2.41909e+8 
           6130      2.39029e+8 
           6150      2.36083e+8 
           6170      2.33318e+8 
           6190      2.30603e+8 
           6210      2.27899e+8 
           6230      2.25225e+8 
           6250      2.22561e+8 
           6270      2.19965e+8 
           6290      2.17406e+8 
           6310      2.14867e+8 
           6330      2.12392e+8 
           6350      2.09898e+8 
           6370      2.07505e+8 
           6390       2.0511e+8 
           6410      2.02768e+8 
           6430      2.00461e+8 
           6450      1.98169e+8 
           6470       1.9583e+8 
           6490      1.93632e+8 
           6510      1.91493e+8 
           6530      1.89156e+8 
           6550      1.84297e+8 
           6570      1.67545e+8 
           6590      1.82084e+8 
           6610      1.80966e+8 
           6630      1.78993e+8 
           6650      1.77049e+8 
           6670      1.73864e+8 
           6690      1.71967e+8 
           6710      1.71295e+8 
           6730      1.69339e+8 
           6750      1.67576e+8 
           6770      1.65749e+8 
           6790      1.63793e+8 
           6810       1.6215e+8 
           6830      1.60386e+8 
           6850       1.5868e+8 
           6870      1.56968e+8 
           6890      1.55248e+8 
           6910       1.5357e+8 
           6930      1.51986e+8 
           6950      1.50372e+8 
           6970      1.48774e+8 
           6990      1.47183e+8 
           7010      1.45639e+8 
           7030      1.44103e+8 
           7050      1.42597e+8 
           7070      1.39176e+8 
           7090      1.39628e+8 
           7110      1.38158e+8 
           7130      1.36725e+8 
           7150       1.3532e+8 
           7170      1.33892e+8 
           7190      1.32536e+8 
           7210      1.31171e+8 
           7230      1.29308e+8 
           7250      1.28452e+8 
           7270       1.2719e+8 
           7290      1.25004e+8 
           7310      1.24596e+8 
           7330      1.23349e+8 
           7350      1.22107e+8 
           7370      1.20877e+8 
           7390      1.19658e+8 
           7410      1.18457e+8 
           7430      1.17274e+8 
           7450      1.16116e+8 
           7470      1.14894e+8 
           7490      1.13811e+8 
           7510      1.12658e+8 
           7530      1.11575e+8 
           7550      1.10476e+8 
           7570      1.09393e+8 
           7590      1.08314e+8 
           7610      1.07238e+8 
           7630      1.06211e+8 
           7650       1.0518e+8 
           7670      1.04158e+8 
           7690      1.03146e+8 
           7710      1.02148e+8 
           7730       1.0116e+8 
           7750      1.00187e+8 
           7770      9.92104e+7 
           7790      9.82795e+7 
           7810      9.72889e+7 
           7830      9.64177e+7 
           7850      9.55724e+7 
           7870      9.46433e+7 
           7890      9.37041e+7 
           7910      9.28816e+7 
           7930      9.19944e+7 
           7950       9.1091e+7 
           7970      9.01421e+7 
           7990      8.93256e+7 
           8010      8.84514e+7 
           8030      8.76433e+7 
           8050      8.68712e+7 
           8070      8.60998e+7 
           8090      8.51623e+7 
           8110       8.4359e+7 
           8130      8.37507e+7 
           8150      8.28467e+7 
           8170      8.22441e+7 
           8190      8.13823e+7 
           8210      8.03883e+7 
           8230      7.98256e+7 
           8250      7.91623e+7 
           8270      7.80583e+7 
           8290      7.76492e+7 
           8310      7.69759e+7 
           8330      7.62646e+7 
           8350      7.52729e+7 
           8370      7.47577e+7 
           8390      7.41716e+7 
           8410      7.34783e+7 
           8430      7.27484e+7 
           8450      7.17555e+7 
           8470      7.12385e+7 
           8490      7.08666e+7 
           8510      6.97068e+7 
           8530      6.98101e+7 
           8550      6.76853e+7 
           8570      6.93753e+7 
           8590      6.65714e+7 
