# Kurucz ODFNEW /NOVER (2003)
# teff = 21000 K (value for the effective temperature for the model. Temperatures are given in K)
# logg = 3 log(cm/s2) (value for Log(G) for the model.)
# meta = -1  (value for the Metallicity for the model.)
# lh = 1.25  (l/Hp where l is the  mixing length of the convective element and Hp is the pressure scale height)
# vtur = 2 km/s (Microturbulence velocity)
# alpha = 0  (Alpha)
#
# column 1: WAVELENGTH (ANGSTROM), Wavelength in Angstrom
# column 2: FLUX (ERG/CM2/S/A), Flux in erg/cm2/s/A
          147.2     1.22984e-18 
            151     7.53641e-18 
          155.2     5.05934e-17 
          158.8     2.39476e-16 
            162     9.01831e-16 
            166      4.4104e-15 
          170.3     2.23774e-14 
          173.4     6.86876e-14 
          176.8     2.24484e-13 
          180.2     7.01657e-13 
          181.7      1.1444e-12 
          186.1     4.59332e-12 
            191     2.00184e-11 
          193.9     4.61578e-11 
          198.4     1.60511e-10 
          201.8     3.96534e-10 
            205     9.03254e-10 
          210.5      3.50116e-9 
          216.2      1.32372e-8 
          219.8      2.95343e-8 
            223      5.89332e-8 
          226.8      1.30395e-7 
            230      2.34633e-6 
            234      5.88466e-6 
            240      1.64486e-5 
          246.5      4.73412e-5 
          252.4       0.0001192 
          256.8     0.000219064 
            260     0.000362975 
            264     0.000633234 
          268.5      0.00115968 
          273.5      0.00221569 
          278.5      0.00414876 
            284      0.00807865 
            290       0.0161299 
            296       0.0312594 
            301       0.0529993 
            308        0.104917 
            318        0.286358 
            328         0.70052 
            338         1.64892 
            348         3.65611 
            357         7.33897 
            366         14.0642 
            375         25.5983 
            385         48.6844 
            395         89.1064 
            405         158.002 
            414         258.859 
            422         390.789 
            430          582.25 
            441         987.224 
            451         1555.34 
            460         2290.11 
            470         3472.25 
            480         5143.89 
            490         7513.88 
            500         10784.4 
            506         90480.3 
            512          338396 
            520          424280 
            530          591501 
            540          660814 
            550          976769 
            560      1.17969e+6 
            570      1.48952e+6 
            580      1.49012e+6 
            590      2.02023e+6 
            600      2.52451e+6 
            610       3.0757e+6 
            620       3.5656e+6 
            630      4.18636e+6 
            640      4.62147e+6 
            650      5.05067e+6 
            658      6.23291e+6 
            665      6.81721e+6 
            675      7.47497e+6 
            685      8.36757e+6 
            695      1.00066e+7 
            705      1.10049e+7 
            716      1.26352e+7 
            726      1.38605e+7 
            735       1.5157e+7 
            745      1.72731e+7 
            755      1.91337e+7 
            765      2.11087e+7 
            775      2.33674e+7 
            785      2.57293e+7 
            795      2.77887e+7 
            805      3.01395e+7 
            815      3.22874e+7 
            825      3.55428e+7 
            835      3.67352e+7 
            845      4.03973e+7 
            855      4.32992e+7 
            865      4.68756e+7 
            875      5.09572e+7 
            885      5.51656e+7 
            895      5.88686e+7 
            905      6.12454e+7 
            915      1.22865e+8 
            925      1.76735e+9 
            935      4.45107e+9 
            945      8.00264e+9 
            955      9.33702e+9 
            965     1.05952e+10 
            975      3.17334e+9 
            985     1.00187e+10 
            995      9.64365e+9 
           1005     1.06168e+10 
           1015     1.04448e+10 
           1025      5.99289e+9 
           1035      8.43823e+9 
           1045     1.17577e+10 
           1055     1.10769e+10 
           1065      9.78704e+9 
           1075     1.09163e+10 
           1085      9.86862e+9 
           1095     1.09962e+10 
           1105     1.01807e+10 
           1115      1.0182e+10 
           1125       9.1311e+9 
           1135     1.04632e+10 
           1145      9.76978e+9 
           1155     1.00984e+10 
           1165     1.01825e+10 
           1175      7.76339e+9 
           1185      9.94524e+9 
           1195      9.12181e+9 
           1205       6.6474e+9 
           1215      4.56141e+9 
           1225      8.55573e+9 
           1235      9.29878e+9 
           1245      9.30021e+9 
           1255      9.08179e+9 
           1265      8.94748e+9 
           1275      9.18102e+9 
           1285      8.98529e+9 
           1295      7.33432e+9 
           1305       7.6734e+9 
           1315      8.69546e+9 
           1325      8.30162e+9 
           1335      7.90186e+9 
           1345      8.13154e+9 
           1355      8.15374e+9 
           1365      7.75083e+9 
           1375      7.62914e+9 
           1385      7.61462e+9 
           1395      6.61494e+9 
           1405      6.90127e+9 
           1415       7.1499e+9 
           1425      7.03265e+9 
           1435      7.10567e+9 
           1442      7.18306e+9 
           1447      7.04948e+9 
           1455      6.92928e+9 
           1465      6.66351e+9 
           1475      6.61866e+9 
           1485      6.51889e+9 
           1495       6.4163e+9 
           1505      6.10661e+9 
           1512      5.66772e+9 
           1517       5.8141e+9 
           1525      5.86325e+9 
           1535      5.35141e+9 
           1545      5.43451e+9 
           1555      5.18504e+9 
           1565      5.40693e+9 
           1575      5.54807e+9 
           1585      5.47333e+9 
           1595      5.47289e+9 
           1605      5.32739e+9 
           1615      5.24516e+9 
           1625      5.20306e+9 
           1635      5.32267e+9 
           1645      5.23546e+9 
           1655      5.16441e+9 
           1665      5.20081e+9 
           1672      5.05413e+9 
           1677       5.2239e+9 
           1685      5.12824e+9 
           1695      4.94596e+9 
           1705       4.7913e+9 
           1715      4.60968e+9 
           1725      4.57513e+9 
           1735      4.63318e+9 
           1745      4.53915e+9 
           1755      4.57588e+9 
           1765      4.41231e+9 
           1775      4.30486e+9 
           1785      4.31955e+9 
           1795      4.36907e+9 
           1805      4.36334e+9 
           1815      4.07341e+9 
           1825      4.15433e+9 
           1835      4.06453e+9 
           1845      3.77955e+9 
           1855      3.73059e+9 
           1865       3.7898e+9 
           1875      3.89832e+9 
           1885       3.5602e+9 
           1895       3.3447e+9 
           1905      3.56058e+9 
           1915      3.40731e+9 
           1925      3.28955e+9 
           1935      3.41652e+9 
           1945      3.46404e+9 
           1955      3.19666e+9 
           1967      3.37919e+9 
           1976      3.49234e+9 
           1984      3.28038e+9 
           1995      3.20398e+9 
           2005      3.26628e+9 
           2015      3.26038e+9 
           2025      3.31765e+9 
           2035      3.10082e+9 
           2045      3.11048e+9 
           2055      3.03086e+9 
           2065      3.04698e+9 
           2074      3.16773e+9 
           2078      2.95183e+9 
           2085      3.02035e+9 
           2095      2.88824e+9 
           2105      2.94776e+9 
           2115      2.93174e+9 
           2125      2.96987e+9 
           2135      2.91616e+9 
           2145      2.78824e+9 
           2155      2.86318e+9 
           2165      2.84105e+9 
           2175      2.79922e+9 
           2185      2.75006e+9 
           2195      2.75258e+9 
           2205      2.72132e+9 
           2215      2.68859e+9 
           2225      2.63274e+9 
           2235      2.60237e+9 
           2245      2.60465e+9 
           2255      2.54486e+9 
           2265       2.5488e+9 
           2275      2.51727e+9 
           2285      2.50719e+9 
           2295      2.41186e+9 
           2305      2.44153e+9 
           2315      2.38745e+9 
           2325       2.3634e+9 
           2335      2.30782e+9 
           2345      2.29428e+9 
           2355      2.29657e+9 
           2365      2.26163e+9 
           2375      2.23354e+9 
           2385      2.20532e+9 
           2395      2.18819e+9 
           2405      2.15909e+9 
           2415      2.12845e+9 
           2425      2.13035e+9 
           2435      2.08874e+9 
           2445       2.0773e+9 
           2455      2.06766e+9 
           2465      2.03585e+9 
           2475      2.01359e+9 
           2485      1.98906e+9 
           2495      1.89732e+9 
           2505      1.94518e+9 
           2513       1.8827e+9 
           2518      1.91635e+9 
           2525      1.89729e+9 
           2535      1.87174e+9 
           2545      1.83385e+9 
           2555      1.84232e+9 
           2565      1.81567e+9 
           2575      1.81171e+9 
           2585      1.79005e+9 
           2595      1.77147e+9 
           2605      1.76234e+9 
           2615      1.74338e+9 
           2625      1.72662e+9 
           2635      1.70535e+9 
           2645      1.69856e+9 
           2655      1.68301e+9 
           2665      1.65476e+9 
           2675      1.64335e+9 
           2685      1.63589e+9 
           2695      1.60002e+9 
           2705      1.59547e+9 
           2715      1.58037e+9 
           2725      1.55428e+9 
           2735      1.55134e+9 
           2745      1.51486e+9 
           2755      1.50696e+9 
           2765      1.49012e+9 
           2775      1.49129e+9 
           2785      1.47278e+9 
           2795      1.43024e+9 
           2805      1.43557e+9 
           2815      1.43228e+9 
           2825      1.40757e+9 
           2835      1.37919e+9 
           2845      1.38715e+9 
           2855      1.37246e+9 
           2865      1.36253e+9 
           2875      1.34847e+9 
           2885      1.33606e+9 
           2895      1.32149e+9 
           2910      1.30105e+9 
           2930      1.27501e+9 
           2950      1.24337e+9 
           2970      1.22771e+9 
           2990      1.20198e+9 
           3010      1.17695e+9 
           3030      1.15999e+9 
           3050      1.13823e+9 
           3070      1.11713e+9 
           3090      1.09123e+9 
           3110      1.07506e+9 
           3130      1.05575e+9 
           3150      1.03631e+9 
           3170      1.01597e+9 
           3190      9.90978e+8 
           3210       9.8013e+8 
           3230      9.61892e+8 
           3250      9.44882e+8 
           3270      9.28497e+8 
           3290      9.10595e+8 
           3310      8.96151e+8 
           3330      8.80153e+8 
           3350      8.63163e+8 
           3370      8.49465e+8 
           3390      8.34882e+8 
           3410      8.20452e+8 
           3430      8.02074e+8 
           3450      7.85522e+8 
           3470      7.74428e+8 
           3490      7.61958e+8 
           3510      7.52963e+8 
           3530      7.41069e+8 
           3550      7.28737e+8 
           3570      7.19235e+8 
           3590      7.03293e+8 
           3610      6.91446e+8 
           3630      6.80445e+8 
           3640      6.78759e+8 
           3650      6.65657e+8 
           3670      6.56883e+8 
           3690      6.34509e+8 
           3710      6.33981e+8 
           3730      6.36245e+8 
           3750      7.00469e+8 
           3770      7.00293e+8 
           3790      7.14506e+8 
           3810      7.37545e+8 
           3830      6.62472e+8 
           3850      7.41539e+8 
           3870      7.28888e+8 
           3890      6.35945e+8 
           3910      7.16195e+8 
           3930      6.96582e+8 
           3950      6.92733e+8 
           3970      5.90853e+8 
           3990      6.68809e+8 
           4010      6.58101e+8 
           4030      6.32541e+8 
           4050      6.40894e+8 
           4070       6.2681e+8 
           4090      6.02655e+8 
           4110      5.42521e+8 
           4130      5.92916e+8 
           4150      5.86011e+8 
           4170      5.80144e+8 
           4190       5.7273e+8 
           4210      5.64645e+8 
           4230      5.55275e+8 
           4250      5.45807e+8 
           4270      5.33908e+8 
           4290      5.28962e+8 
           4310      5.19683e+8 
           4330      4.93092e+8 
           4350      4.54285e+8 
           4370      4.95647e+8 
           4390      4.82892e+8 
           4410      4.81854e+8 
           4430      4.73693e+8 
           4450      4.68512e+8 
           4470      4.49981e+8 
           4490      4.53736e+8 
           4510      4.48332e+8 
           4530      4.41371e+8 
           4550      4.34606e+8 
           4570      4.27978e+8 
           4590      4.22057e+8 
           4610      4.15655e+8 
           4630      4.09577e+8 
           4650      4.01827e+8 
           4670      3.97823e+8 
           4690      3.92759e+8 
           4710      3.82128e+8 
           4730      3.80116e+8 
           4750      3.74283e+8 
           4770      3.71135e+8 
           4790       3.6576e+8 
           4810        3.602e+8 
           4830      3.54753e+8 
           4850      3.40366e+8 
           4870      3.09111e+8 
           4890       3.4013e+8 
           4910      3.36099e+8 
           4930      3.26309e+8 
           4950      3.26722e+8 
           4970      3.22588e+8 
           4990       3.1807e+8 
           5010      3.09442e+8 
           5030      3.09413e+8 
           5050      3.03023e+8 
           5070      3.01165e+8 
           5090      2.97102e+8 
           5110      2.93064e+8 
           5130      2.88736e+8 
           5150      2.84935e+8 
           5170      2.81593e+8 
           5190      2.77889e+8 
           5210      2.73927e+8 
           5230       2.7061e+8 
           5250      2.67076e+8 
           5270      2.63534e+8 
           5290      2.60172e+8 
           5310      2.56759e+8 
           5330      2.53444e+8 
           5350      2.50065e+8 
           5370       2.4703e+8 
           5390      2.43838e+8 
           5410      2.40752e+8 
           5430      2.37563e+8 
           5450       2.3458e+8 
           5470      2.31634e+8 
           5490      2.28749e+8 
           5510        2.259e+8 
           5530      2.23037e+8 
           5550      2.20308e+8 
           5570      2.17526e+8 
           5590      2.14863e+8 
           5610      2.12149e+8 
           5630      2.09599e+8 
           5650      2.06772e+8 
           5670      2.04097e+8 
           5690      2.01466e+8 
           5710      1.99434e+8 
           5730      1.97023e+8 
           5750      1.94538e+8 
           5770      1.92354e+8 
           5790      1.90027e+8 
           5810       1.8775e+8 
           5830      1.85456e+8 
           5850      1.83287e+8 
           5870      1.76945e+8 
           5890      1.78547e+8 
           5910      1.76791e+8 
           5930      1.74636e+8 
           5950      1.72538e+8 
           5970      1.70687e+8 
           5990      1.68593e+8 
           6010      1.66701e+8 
           6030      1.64737e+8 
           6050      1.62847e+8 
           6070      1.60988e+8 
           6090       1.5913e+8 
           6110      1.57303e+8 
           6130      1.55506e+8 
           6150       1.5362e+8 
           6170      1.51943e+8 
           6190      1.50245e+8 
           6210      1.48556e+8 
           6230      1.46876e+8 
           6250      1.45185e+8 
           6270       1.4358e+8 
           6290      1.41973e+8 
           6310      1.40374e+8 
           6330      1.38831e+8 
           6350      1.37145e+8 
           6370      1.35709e+8 
           6390      1.34252e+8 
           6410      1.32774e+8 
           6430      1.31339e+8 
           6450      1.29891e+8 
           6470      1.28406e+8 
           6490      1.27025e+8 
           6510      1.25686e+8 
           6530       1.2421e+8 
           6550      1.20959e+8 
           6570      1.09201e+8 
           6590      1.19504e+8 
           6610      1.19023e+8 
           6630      1.17792e+8 
           6650      1.16599e+8 
           6670      1.14546e+8 
           6690      1.13349e+8 
           6710      1.12942e+8 
           6730      1.11722e+8 
           6750      1.10582e+8 
           6770       1.0942e+8 
           6790      1.08122e+8 
           6810      1.07123e+8 
           6830      1.06012e+8 
           6850       1.0492e+8 
           6870      1.03839e+8 
           6890      1.02753e+8 
           6910      1.01693e+8 
           6930      1.00644e+8 
           6950      9.96292e+7 
           6970      9.86085e+7 
           6990      9.75901e+7 
           7010      9.66048e+7 
           7030       9.5629e+7 
           7050      9.46551e+7 
           7070      9.23266e+7 
           7090      9.27582e+7 
           7110      9.18198e+7 
           7130      9.08978e+7 
           7150      8.99994e+7 
           7170      8.90804e+7 
           7190      8.82211e+7 
           7210       8.7341e+7 
           7230      8.59143e+7 
           7250       8.5613e+7 
           7270      8.47791e+7 
           7290      8.33079e+7 
           7310      8.31065e+7 
           7330        8.231e+7 
           7350       8.1507e+7 
           7370      8.07185e+7 
           7390      7.99303e+7 
           7410      7.91564e+7 
           7430      7.83896e+7 
           7450      7.76503e+7 
           7470       7.6884e+7 
           7490       7.6165e+7 
           7510      7.54059e+7 
           7530      7.47135e+7 
           7550      7.40076e+7 
           7570      7.33015e+7 
           7590      7.26083e+7 
           7610      7.19149e+7 
           7630      7.12407e+7 
           7650      7.05726e+7 
           7670      6.99105e+7 
           7690      6.92542e+7 
           7710      6.86039e+7 
           7730      6.79719e+7 
           7750       6.7333e+7 
           7770      6.66374e+7 
           7790       6.6097e+7 
           7810      6.54316e+7 
           7830      6.48827e+7 
           7850      6.43385e+7 
           7870      6.37443e+7 
           7890      6.31008e+7 
           7910      6.25413e+7 
           7930      6.18847e+7 
           7950      6.12936e+7 
           7970      6.07076e+7 
           7990      6.01798e+7 
           8010      5.96331e+7 
           8030      5.91319e+7 
           8050      5.86408e+7 
           8070       5.8148e+7 
           8090      5.75063e+7 
           8110      5.70288e+7 
           8130      5.66335e+7 
           8150      5.60042e+7 
           8170      5.56468e+7 
           8190      5.50856e+7 
           8210      5.43793e+7 
           8230      5.40603e+7 
           8250      5.36048e+7 
           8270      5.28467e+7 
           8290      5.25893e+7 
           8310      5.21488e+7 
           8330      5.16875e+7 
           8350      5.10025e+7 
           8370      5.06053e+7 
           8390      5.02332e+7 
           8410      4.97549e+7 
           8430       4.9289e+7 
           8450      4.86449e+7 
           8470      4.80647e+7 
           8490      4.83382e+7 
           8510      4.70006e+7 
           8530       4.7802e+7 
           8550      4.55044e+7 
           8570      4.77667e+7 
           8590      4.53578e+7 
