# Kurucz ODFNEW /NOVER (2003)
# teff = 8750 K (value for the effective temperature for the model. Temperatures are given in K)
# logg = 4 log(cm/s2) (value for Log(G) for the model.)
# meta = -2.5  (value for the Metallicity for the model.)
# lh = 1.25  (l/Hp where l is the  mixing length of the convective element and Hp is the pressure scale height)
# vtur = 2 km/s (Microturbulence velocity)
# alpha = 0  (Alpha)
#
# column 1: WAVELENGTH (ANGSTROM), Wavelength in Angstrom
# column 2: FLUX (ERG/CM2/S/A), Flux in erg/cm2/s/A
          268.5     3.57006e-23 
          273.5     1.90283e-22 
          278.5     8.12062e-22 
            284     3.68756e-21 
            290     1.79388e-20 
            296     8.16528e-20 
            301     2.75604e-19 
            308     1.41357e-18 
            318     1.28631e-17 
            328     1.01925e-16 
            338      7.1185e-16 
            348     4.43288e-15 
            357     2.10012e-14 
            366      9.1955e-14 
            375     3.74278e-13 
            385     1.64361e-12 
            395     6.67742e-12 
            405     2.52416e-11 
            414     7.89062e-11 
            422     2.08248e-10 
            430     5.29255e-10 
            441      1.80241e-9 
            451      5.19917e-9 
            460      1.29455e-8 
            470      3.41751e-8 
            480      8.64483e-8 
            490      2.10159e-7 
            500      4.91994e-7 
            506      8.66312e-7 
            512      1.44976e-6 
            520      2.69883e-6 
            530      5.72162e-6 
            540      1.17178e-5 
            550      2.34357e-5 
            560      4.55715e-5 
            570      8.64414e-5 
            580     0.000159718 
            590     0.000290258 
            600     0.000514989 
            610     0.000895575 
            620      0.00152779 
            630      0.00255946 
            640      0.00421411 
            650      0.00682634 
            658      0.00992804 
            665       0.0136687 
            675       0.0213168 
            685       0.0327806 
            695       0.0497421 
            705       0.0745205 
            716        0.114601 
            726        0.167402 
            735        0.233259 
            745        0.333808 
            755        0.472775 
            765        0.662982 
            775        0.920835 
            785         1.26733 
            795         1.72889 
            805         2.33877 
            815         3.13782 
            825         4.17824 
            835         5.52214 
            845         7.24519 
            855         9.43904 
            865         12.2143 
            875         15.7029 
            885         20.0615 
            895         25.4729 
            905          32.153 
            915         63.4778 
            925         217.084 
            935         366.049 
            945         686.194 
            955         1086.41 
            965         1468.12 
            975         1030.13 
            985          2904.3 
            995         4211.65 
           1005         4466.18 
           1015         3322.98 
           1025         1967.98 
           1035         4514.88 
           1045         8410.67 
           1055         13332.8 
           1065         50888.2 
           1075          185945 
           1085          442292 
           1095          556128 
           1105      1.02051e+6 
           1115      1.97185e+6 
           1125      1.65584e+6 
           1135      1.51572e+6 
           1145          743157 
           1155          232043 
           1165         63147.9 
           1175         35448.4 
           1185         43062.1 
           1195         24443.5 
           1205         18072.8 
           1215         9413.99 
           1225           20418 
           1235         35718.6 
           1245         41101.7 
           1255           63512 
           1265         99190.7 
           1275          258395 
           1285      1.35303e+6 
           1295      2.67818e+6 
           1305      5.06465e+6 
           1315       7.1663e+6 
           1325      1.02007e+7 
           1335      1.28232e+7 
           1345       1.6034e+7 
           1355      1.73195e+7 
           1365       1.9374e+7 
           1375      1.77239e+7 
           1385      1.49706e+7 
           1395      1.34564e+7 
           1405      2.18134e+7 
           1415      3.36121e+7 
           1425      3.60547e+7 
           1435      3.59601e+7 
           1442      3.97517e+7 
           1447      3.79841e+7 
           1455      4.11354e+7 
           1465      3.85818e+7 
           1475      4.04188e+7 
           1485      4.06758e+7 
           1495      4.13252e+7 
           1505      4.26872e+7 
           1512      4.28581e+7 
           1517      4.08506e+7 
           1525      4.16121e+7 
           1535      4.05185e+7 
           1545      3.91293e+7 
           1555      3.71911e+7 
           1565      3.20029e+7 
           1575      3.26746e+7 
           1585      3.14238e+7 
           1595      3.09955e+7 
           1605       2.9847e+7 
           1615       3.5142e+7 
           1625      3.90365e+7 
           1635      4.46048e+7 
           1645      5.01215e+7 
           1655      4.73019e+7 
           1665      5.44297e+7 
           1672      5.22635e+7 
           1677      5.36576e+7 
           1685      5.57579e+7 
           1695      5.42627e+7 
           1705       5.4162e+7 
           1715      5.58211e+7 
           1725      5.50593e+7 
           1735      5.62912e+7 
           1745      5.50899e+7 
           1755      5.58436e+7 
           1765      5.39126e+7 
           1775      5.51805e+7 
           1785      5.44564e+7 
           1795      5.53783e+7 
           1805      5.43675e+7 
           1815      5.39953e+7 
           1825      5.32446e+7 
           1835      5.34088e+7 
           1845      5.19504e+7 
           1855      5.27133e+7 
           1865      5.27907e+7 
           1875      5.27327e+7 
           1885      5.25628e+7 
           1895      5.25183e+7 
           1905       5.1768e+7 
           1915      5.18112e+7 
           1925      5.19748e+7 
           1935      5.08333e+7 
           1945      5.17957e+7 
           1955      5.15245e+7 
           1967      5.13631e+7 
           1976      5.05924e+7 
           1984      5.03718e+7 
           1995      5.03934e+7 
           2005      4.95546e+7 
           2015      4.88422e+7 
           2025      4.86284e+7 
           2035      4.92715e+7 
           2045      4.90367e+7 
           2055      4.79897e+7 
           2065      4.79748e+7 
           2074      4.87496e+7 
           2078      4.87043e+7 
           2085      4.84636e+7 
           2095      4.81402e+7 
           2105      4.79764e+7 
           2115       4.7731e+7 
           2125       4.7352e+7 
           2135      4.67178e+7 
           2145      4.73247e+7 
           2155       4.6923e+7 
           2165      4.59207e+7 
           2175      4.59541e+7 
           2185      4.60631e+7 
           2195      4.66703e+7 
           2205      4.57334e+7 
           2215      4.44514e+7 
           2225      4.45771e+7 
           2235      4.58179e+7 
           2245      4.50735e+7 
           2255      4.40753e+7 
           2265      4.35533e+7 
           2275      4.45171e+7 
           2285      4.45944e+7 
           2295      4.39191e+7 
           2305      4.40671e+7 
           2315      4.37182e+7 
           2325      4.36879e+7 
           2335      4.31424e+7 
           2345      4.13921e+7 
           2355      4.29222e+7 
           2365      4.14507e+7 
           2375      4.22839e+7 
           2385      4.02544e+7 
           2395      4.17875e+7 
           2405      4.15097e+7 
           2415      4.14832e+7 
           2425      4.22988e+7 
           2435       4.1534e+7 
           2445      4.18169e+7 
           2455      4.18614e+7 
           2465       4.1014e+7 
           2475      4.07693e+7 
           2485      4.09482e+7 
           2495      4.04167e+7 
           2505      4.13854e+7 
           2513      4.04829e+7 
           2518      4.04345e+7 
           2525      3.96694e+7 
           2535      3.94432e+7 
           2545      3.96149e+7 
           2555      4.06414e+7 
           2565      4.02197e+7 
           2575      4.06818e+7 
           2585      4.07865e+7 
           2595      4.04258e+7 
           2605      3.99606e+7 
           2615      3.96947e+7 
           2625      3.96782e+7 
           2635      3.98611e+7 
           2645      4.11412e+7 
           2655      4.09602e+7 
           2665      4.02327e+7 
           2675      4.04216e+7 
           2685      4.06483e+7 
           2695      4.02798e+7 
           2705      4.02502e+7 
           2715      3.96006e+7 
           2725       3.9555e+7 
           2735      3.97856e+7 
           2745      3.82923e+7 
           2755      3.83806e+7 
           2765      3.90215e+7 
           2775      3.96796e+7 
           2785      3.94457e+7 
           2795      3.74838e+7 
           2805      3.86122e+7 
           2815      3.96301e+7 
           2825      3.94756e+7 
           2835      3.90064e+7 
           2845      3.89072e+7 
           2855      3.83827e+7 
           2865      3.86045e+7 
           2875       3.8655e+7 
           2885      3.86537e+7 
           2895      3.88393e+7 
           2910      3.88999e+7 
           2930      3.83514e+7 
           2950      3.81392e+7 
           2970      3.81761e+7 
           2990      3.79696e+7 
           3010      3.80289e+7 
           3030      3.78978e+7 
           3050      3.77341e+7 
           3070      3.75107e+7 
           3090       3.7435e+7 
           3110      3.72702e+7 
           3130      3.70508e+7 
           3150      3.69087e+7 
           3170      3.68111e+7 
           3190      3.63983e+7 
           3210      3.64291e+7 
           3230      3.61531e+7 
           3250      3.61625e+7 
           3270      3.60914e+7 
           3290      3.59637e+7 
           3310      3.58261e+7 
           3330      3.56179e+7 
           3350      3.53584e+7 
           3370      3.52285e+7 
           3390      3.51156e+7 
           3410      3.50516e+7 
           3430      3.48906e+7 
           3450      3.47468e+7 
           3470      3.45914e+7 
           3490      3.44528e+7 
           3510      3.43243e+7 
           3530      3.41813e+7 
           3550      3.40364e+7 
           3570      3.38601e+7 
           3590      3.37148e+7 
           3610      3.35677e+7 
           3630      3.34219e+7 
           3640      3.33465e+7 
           3650      3.34497e+7 
           3670      3.33266e+7 
           3690       3.2128e+7 
           3710       3.3381e+7 
           3730       3.4673e+7 
           3750      4.39886e+7 
           3770      4.68152e+7 
           3790      5.66454e+7 
           3810      6.71755e+7 
           3830      5.38222e+7 
           3850      7.57246e+7 
           3870       8.7033e+7 
           3890      4.64336e+7 
           3910      8.73584e+7 
           3930      9.71161e+7 
           3950      8.68222e+7 
           3970      4.49707e+7 
           3990      8.18932e+7 
           4010      9.63348e+7 
           4030      9.75476e+7 
           4050      9.59021e+7 
           4070      9.00699e+7 
           4090      6.50557e+7 
           4110       4.9252e+7 
           4130      8.38431e+7 
           4150      8.98748e+7 
           4170      9.03688e+7 
           4190      8.97313e+7 
           4210      8.87554e+7 
           4230       8.7577e+7 
           4250      8.63751e+7 
           4270      8.48405e+7 
           4290       8.2557e+7 
           4310      7.68036e+7 
           4330      5.41899e+7 
           4350      4.59601e+7 
           4370      7.26417e+7 
           4390      7.73609e+7 
           4410      7.78579e+7 
           4430      7.74348e+7 
           4450       7.6729e+7 
           4470      7.58704e+7 
           4490      7.50316e+7 
           4510      7.43083e+7 
           4530      7.34241e+7 
           4550      7.25253e+7 
           4570      7.17241e+7 
           4590      7.08698e+7 
           4610      7.00736e+7 
           4630      6.92358e+7 
           4650      6.84551e+7 
           4670      6.76627e+7 
           4690      6.68368e+7 
           4710      6.58815e+7 
           4730      6.51538e+7 
           4750      6.43141e+7 
           4770      6.33984e+7 
           4790      6.22888e+7 
           4810      6.05881e+7 
           4830        5.663e+7 
           4850      4.27683e+7 
           4870      3.47408e+7 
           4890      5.30242e+7 
           4910      5.68983e+7 
           4930      5.74497e+7 
           4950      5.72862e+7 
           4970      5.68581e+7 
           4990      5.63307e+7 
           5010      5.57497e+7 
           5030      5.52834e+7 
           5050      5.46839e+7 
           5070      5.41068e+7 
           5090      5.35297e+7 
           5110      5.29572e+7 
           5130       5.2389e+7 
           5150      5.18323e+7 
           5170      5.11995e+7 
           5190      5.07064e+7 
           5210      5.02082e+7 
           5230      4.96679e+7 
           5250      4.91672e+7 
           5270      4.86374e+7 
           5290      4.81478e+7 
           5310      4.76428e+7 
           5330      4.71507e+7 
           5350      4.66738e+7 
           5370      4.61896e+7 
           5390      4.57204e+7 
           5410      4.52504e+7 
           5430      4.47937e+7 
           5450        4.434e+7 
           5470      4.38929e+7 
           5490      4.34525e+7 
           5510      4.30172e+7 
           5530      4.25835e+7 
           5550      4.21609e+7 
           5570      4.17409e+7 
           5590      4.13246e+7 
           5610      4.09168e+7 
           5630      4.05137e+7 
           5650      4.01152e+7 
           5670      3.97214e+7 
           5690      3.93333e+7 
           5710      3.89496e+7 
           5730      3.85703e+7 
           5750      3.81965e+7 
           5770      3.78269e+7 
           5790      3.74616e+7 
           5810      3.71014e+7 
           5830      3.67453e+7 
           5850      3.63943e+7 
           5870      3.60363e+7 
           5890      3.56889e+7 
           5910      3.53657e+7 
           5930      3.50312e+7 
           5950      3.47003e+7 
           5970      3.43741e+7 
           5990      3.40515e+7 
           6010      3.37324e+7 
           6030      3.34178e+7 
           6050      3.31067e+7 
           6070      3.27999e+7 
           6090      3.24965e+7 
           6110      3.21963e+7 
           6130      3.18993e+7 
           6150      3.16045e+7 
           6170      3.13168e+7 
           6190      3.10312e+7 
           6210      3.07486e+7 
           6230       3.0469e+7 
           6250      3.01914e+7 
           6270      2.99205e+7 
           6290      2.96506e+7 
           6310      2.93834e+7 
           6330        2.912e+7 
           6350      2.88556e+7 
           6370      2.85985e+7 
           6390       2.8346e+7 
           6410      2.80713e+7 
           6430      2.77739e+7 
           6450      2.74924e+7 
           6470      2.71931e+7 
           6490      2.68352e+7 
           6510      2.63203e+7 
           6530      2.52467e+7 
           6550      2.16216e+7 
           6570      1.75165e+7 
           6590      2.36822e+7 
           6610      2.49618e+7 
           6630      2.51653e+7 
           6650      2.51037e+7 
           6670      2.49576e+7 
           6690      2.47799e+7 
           6710      2.46107e+7 
           6730      2.44255e+7 
           6750      2.42173e+7 
           6770      2.40112e+7 
           6790       2.3807e+7 
           6810      2.36057e+7 
           6830      2.34054e+7 
           6850      2.32087e+7 
           6870      2.30131e+7 
           6890      2.28194e+7 
           6910      2.26283e+7 
           6930      2.24391e+7 
           6950      2.22524e+7 
           6970      2.20675e+7 
           6990      2.18843e+7 
           7010      2.17029e+7 
           7030      2.15232e+7 
           7050      2.13459e+7 
           7070      2.11695e+7 
           7090      2.09963e+7 
           7110      2.08217e+7 
           7130      2.06539e+7 
           7150      2.04855e+7 
           7170      2.03186e+7 
           7190      2.01533e+7 
           7210      1.99902e+7 
           7230      1.98285e+7 
           7250      1.96684e+7 
           7270      1.95097e+7 
           7290      1.93525e+7 
           7310      1.91974e+7 
           7330      1.90437e+7 
           7350      1.88921e+7 
           7370      1.87411e+7 
           7390      1.85922e+7 
           7410      1.84447e+7 
           7430      1.82984e+7 
           7450      1.81535e+7 
           7470      1.80098e+7 
           7490      1.78681e+7 
           7510      1.77276e+7 
           7530      1.75891e+7 
           7550      1.74511e+7 
           7570      1.73149e+7 
           7590        1.718e+7 
           7610      1.70462e+7 
           7630      1.69136e+7 
           7650      1.67828e+7 
           7670      1.66531e+7 
           7690      1.65246e+7 
           7710      1.63971e+7 
           7730      1.62714e+7 
           7750      1.61461e+7 
           7770      1.60057e+7 
           7790         1.59e+7 
           7810      1.57792e+7 
           7830      1.56587e+7 
           7850      1.55399e+7 
           7870      1.54215e+7 
           7890      1.53041e+7 
           7910      1.51895e+7 
           7930      1.50752e+7 
           7950      1.49619e+7 
           7970      1.48495e+7 
           7990      1.47375e+7 
           8010      1.46282e+7 
           8030      1.45186e+7 
           8050      1.44105e+7 
           8070      1.43033e+7 
           8090       1.4197e+7 
           8110      1.40921e+7 
           8130      1.39881e+7 
           8150      1.38844e+7 
           8170       1.3782e+7 
           8190      1.36794e+7 
           8210      1.36067e+7 
           8230       1.3514e+7 
           8250      1.34236e+7 
           8270      1.33362e+7 
           8290      1.32472e+7 
           8310      1.31579e+7 
           8330      1.30644e+7 
           8350      1.29727e+7 
           8370       1.2871e+7 
           8390      1.27637e+7 
           8410      1.26498e+7 
           8430      1.25543e+7 
           8450      1.24754e+7 
           8470      1.21924e+7 
           8490      1.23493e+7 
           8510      1.18398e+7 
           8530      1.22731e+7 
           8550       1.1268e+7 
           8570      1.23055e+7 
           8590      1.14666e+7 
           8610      1.11847e+7 
           8630      1.23368e+7 
           8650      1.18025e+7 
           8670      9.94235e+6 
           8690      1.20483e+7 
           8710      1.24176e+7 
           8730      1.18788e+7 
           8750      9.40956e+6 
           8770      1.12647e+7 
           8790      1.22755e+7 
           8810      1.24043e+7 
           8830      1.20597e+7 
           8850      1.06594e+7 
           8870      9.03267e+6 
           8890      1.13697e+7 
           8910      1.20125e+7 
           8930      1.21426e+7 
           8950      1.20705e+7 
           8970      1.18018e+7 
           8990      1.11024e+7 
           9010      8.83628e+6 
           9030      9.64729e+6 
           9050      1.11189e+7 
           9070      1.14935e+7 
           9090      1.15648e+7 
           9110       1.1559e+7 
           9130      1.14903e+7 
           9150      1.13758e+7 
           9170      1.11909e+7 
           9190      1.08323e+7 
