# Kurucz ODFNEW /NOVER (2003)
# teff = 8250 K (value for the effective temperature for the model. Temperatures are given in K)
# logg = 4 log(cm/s2) (value for Log(G) for the model.)
# meta = 0.5  (value for the Metallicity for the model.)
# lh = 1.25  (l/Hp where l is the  mixing length of the convective element and Hp is the pressure scale height)
# vtur = 2 km/s (Microturbulence velocity)
# alpha = 0  (Alpha)
#
# column 1: WAVELENGTH (ANGSTROM), Wavelength in Angstrom
# column 2: FLUX (ERG/CM2/S/A), Flux in erg/cm2/s/A
            328     9.14125e-24 
            338     1.86317e-22 
            348     1.84433e-21 
            357     1.28299e-20 
            366     8.08294e-20 
            375      4.6472e-19 
            385     2.06658e-19 
            395     1.08102e-18 
            405     5.18544e-18 
            414     1.98526e-17 
            422     6.21712e-17 
            430     1.86036e-16 
            441     7.83596e-16 
            451     2.71173e-15 
            460     7.88835e-15 
            470     2.45428e-14 
            480     7.25564e-14 
            490     2.04573e-13 
            500     5.50959e-13 
            506     1.29316e-12 
            512      2.5536e-12 
            520     5.25387e-12 
            530     1.26091e-11 
            540     2.86565e-11 
            550     6.41299e-11 
            560      1.3815e-10 
            570     2.88606e-10 
            580     5.78768e-10 
            590      1.15822e-9 
            600       2.2317e-9 
            610      4.21145e-9 
            620      7.74834e-9 
            630      1.39567e-8 
            640      2.46107e-8 
            650      4.26493e-8 
            658      6.52727e-8 
            665      9.34955e-8 
            675      1.54942e-7 
            685      2.52456e-7 
            695      4.04881e-7 
            705      6.33366e-7 
            716       1.0374e-6 
            726      1.58947e-6 
            735       2.3063e-6 
            745        3.442e-6 
            755      5.08113e-6 
            765      7.42033e-6 
            775      1.07124e-5 
            785      1.53339e-5 
            795      2.13678e-5 
            805      3.00384e-5 
            815      4.19605e-5 
            825      5.76642e-5 
            835      7.85149e-5 
            845     0.000106066 
            855     0.000142075 
            865     0.000188786 
            875     0.000247095 
            885     0.000325587 
            895      0.00042325 
            905     0.000541112 
            915        0.154427 
            925        0.438875 
            935        0.570335 
            945        0.752214 
            955          1.0183 
            965         1.31374 
            975         1.63797 
            985         2.06423 
            995         2.53978 
           1005         3.33017 
           1015         4.15994 
           1025         4.99354 
           1035         6.32076 
           1045         7.79936 
           1055         9.56255 
           1065         11.5225 
           1075         14.1525 
           1085         17.2062 
           1095         20.4897 
           1105            53.5 
           1115         159.637 
           1125         229.284 
           1135         318.146 
           1145         397.067 
           1155         438.935 
           1165         596.005 
           1175         711.505 
           1185         757.067 
           1195         487.893 
           1205         618.869 
           1215         178.396 
           1225         728.818 
           1235         1331.97 
           1245         3045.63 
           1255         7749.02 
           1265         6548.52 
           1275           10263 
           1285         13755.7 
           1295           16136 
           1305         12480.8 
           1315         18922.7 
           1325         21926.2 
           1335         23505.6 
           1345           28776 
           1355         29079.2 
           1365         31289.2 
           1375         33790.8 
           1385         36195.6 
           1395         41178.4 
           1405         45722.2 
           1415         46212.8 
           1425         51816.8 
           1435         51918.6 
           1442         59764.3 
           1447         63967.1 
           1455         71036.8 
           1465           71371 
           1475         77686.1 
           1485         85598.5 
           1495         95855.1 
           1505          104685 
           1512          104832 
           1517          113743 
           1525          129324 
           1535          206686 
           1545          424530 
           1555          426784 
           1565          418517 
           1575          757780 
           1585      1.18427e+6 
           1595      1.53682e+6 
           1605      1.55165e+6 
           1615       1.5078e+6 
           1625      1.17586e+6 
           1635      1.61192e+6 
           1645      3.06393e+6 
           1655      1.40746e+6 
           1665      2.81519e+6 
           1672      1.14899e+6 
           1677      4.43355e+6 
           1685      7.11828e+6 
           1695      5.00287e+6 
           1705      6.88306e+6 
           1715      1.19408e+7 
           1725       1.2696e+7 
           1735      1.73558e+7 
           1745      1.56246e+7 
           1755      2.11444e+7 
           1765      1.24898e+7 
           1775      1.91161e+7 
           1785      1.79578e+7 
           1795      2.57126e+7 
           1805      1.99556e+7 
           1815      2.16999e+7 
           1825      1.86701e+7 
           1835      1.64633e+7 
           1845      1.42612e+7 
           1855      1.79889e+7 
           1865      2.18712e+7 
           1875       1.9954e+7 
           1885      2.07087e+7 
           1895      2.31376e+7 
           1905      2.04537e+7 
           1915      2.22017e+7 
           1925      2.04772e+7 
           1935      1.22953e+7 
           1945      2.34162e+7 
           1955      2.40299e+7 
           1967      2.74775e+7 
           1976      2.66142e+7 
           1984       2.4771e+7 
           1995      2.46557e+7 
           2005      2.21707e+7 
           2015      2.07134e+7 
           2025        1.962e+7 
           2035      2.33521e+7 
           2045      2.60286e+7 
           2055      2.36822e+7 
           2065      2.25664e+7 
           2074      2.75619e+7 
           2078      3.07816e+7 
           2085      2.89314e+7 
           2095      2.62121e+7 
           2105      2.37472e+7 
           2115      2.47965e+7 
           2125      2.59895e+7 
           2135      1.96653e+7 
           2145      2.46711e+7 
           2155      2.51663e+7 
           2165      2.22659e+7 
           2175      2.23053e+7 
           2185      2.41477e+7 
           2195      2.62802e+7 
           2205      2.43997e+7 
           2215        2.024e+7 
           2225      1.96293e+7 
           2235      2.47816e+7 
           2245       2.2141e+7 
           2255      1.88682e+7 
           2265      1.92733e+7 
           2275      2.16628e+7 
           2285      2.34405e+7 
           2295      2.04264e+7 
           2305      2.16542e+7 
           2315      2.00096e+7 
           2325      1.91549e+7 
           2335       1.4864e+7 
           2345      1.13354e+7 
           2355      1.82868e+7 
           2365      1.17177e+7 
           2375      1.49393e+7 
           2385      9.55363e+6 
           2395      1.22207e+7 
           2405      1.18151e+7 
           2415      1.30591e+7 
           2425      1.83162e+7 
           2435      1.74252e+7 
           2445      1.94452e+7 
           2455      1.94608e+7 
           2465      1.88649e+7 
           2475      1.71956e+7 
           2485      1.74461e+7 
           2495      1.63503e+7 
           2505      2.19331e+7 
           2513      1.63364e+7 
           2518      1.69163e+7 
           2525      1.41784e+7 
           2535      1.29306e+7 
           2545      1.24256e+7 
           2555      1.57686e+7 
           2565      1.45573e+7 
           2575      1.77359e+7 
           2585      1.75916e+7 
           2595      1.65287e+7 
           2605      1.49137e+7 
           2615      1.38021e+7 
           2625      1.80338e+7 
           2635      1.98532e+7 
           2645      2.59816e+7 
           2655       2.7403e+7 
           2665      2.09396e+7 
           2675      2.39749e+7 
           2685      2.32944e+7 
           2695      2.13806e+7 
           2705       2.3342e+7 
           2715      2.04305e+7 
           2725      2.07957e+7 
           2735      2.31435e+7 
           2745      1.46731e+7 
           2755      1.66247e+7 
           2765      1.85629e+7 
           2775      2.24307e+7 
           2785      1.84527e+7 
           2795      7.54903e+6 
           2805      1.00301e+7 
           2815       2.2586e+7 
           2825      2.68184e+7 
           2835      2.49594e+7 
           2845      2.35364e+7 
           2855      2.06274e+7 
           2865      2.54212e+7 
           2875      2.46284e+7 
           2885      2.48934e+7 
           2895      2.31822e+7 
           2910      2.84501e+7 
           2930      2.63055e+7 
           2950      2.60951e+7 
           2970      2.80771e+7 
           2990      2.81899e+7 
           3010      2.92515e+7 
           3030      2.86939e+7 
           3050      2.85407e+7 
           3070      2.90602e+7 
           3090      2.98997e+7 
           3110      2.86825e+7 
           3130      2.83702e+7 
           3150      2.95871e+7 
           3170       2.9276e+7 
           3190      2.69683e+7 
           3210      2.83118e+7 
           3230      2.64963e+7 
           3250      2.81745e+7 
           3270      2.91088e+7 
           3290       2.9103e+7 
           3310       2.9884e+7 
           3330        2.908e+7 
           3350      2.86825e+7 
           3370      2.80392e+7 
           3390      2.84584e+7 
           3410      2.86406e+7 
           3430      2.87434e+7 
           3450      2.86821e+7 
           3470       2.8242e+7 
           3490      2.81468e+7 
           3510      2.89407e+7 
           3530      2.86753e+7 
           3550      2.98415e+7 
           3570      2.79601e+7 
           3590      2.77532e+7 
           3610      2.79105e+7 
           3630       2.8161e+7 
           3640      2.76795e+7 
           3650      2.93833e+7 
           3670       2.9008e+7 
           3690      2.78256e+7 
           3710      2.85775e+7 
           3730      2.87132e+7 
           3750      3.50864e+7 
           3770      3.79038e+7 
           3790      4.66424e+7 
           3810      5.47105e+7 
           3830      4.29663e+7 
           3850      6.08384e+7 
           3870      6.95509e+7 
           3890      3.97913e+7 
           3910      6.86921e+7 
           3930       5.6028e+7 
           3950      6.70785e+7 
           3970      3.54311e+7 
           3990      6.81398e+7 
           4010      7.92251e+7 
           4030      7.92781e+7 
           4050      7.80768e+7 
           4070      7.37953e+7 
           4090       5.7223e+7 
           4110      4.37144e+7 
           4130      6.98622e+7 
           4150      7.62755e+7 
           4170      7.60721e+7 
           4190      7.55386e+7 
           4210      7.53561e+7 
           4230      7.26997e+7 
           4250      7.33832e+7 
           4270      6.88853e+7 
           4290      7.02669e+7 
           4310      6.28021e+7 
           4330      4.81699e+7 
           4350      4.09131e+7 
           4370      6.38413e+7 
           4390      6.64903e+7 
           4410      6.58266e+7 
           4430      6.43908e+7 
           4450      6.62142e+7 
           4470      6.60058e+7 
           4490      6.47314e+7 
           4510      6.73238e+7 
           4530      6.39035e+7 
           4550      6.30227e+7 
           4570      6.52844e+7 
           4590      6.20614e+7 
           4610      6.34881e+7 
           4630      6.12116e+7 
           4650      6.17437e+7 
           4670       6.1615e+7 
           4690      5.85216e+7 
           4710      5.58893e+7 
           4730      5.91407e+7 
           4750      5.89159e+7 
           4770      5.76033e+7 
           4790      5.69443e+7 
           4810      5.50535e+7 
           4830      5.20244e+7 
           4850      3.94275e+7 
           4870      3.13527e+7 
           4890      4.81686e+7 
           4910      5.14883e+7 
           4930        5.109e+7 
           4950      5.24292e+7 
           4970      5.27524e+7 
           4990       5.0247e+7 
           5010      4.80876e+7 
           5030      4.95597e+7 
           5050      4.85017e+7 
           5070      4.96748e+7 
           5090      4.88126e+7 
           5110      4.87877e+7 
           5130      4.75562e+7 
           5150      4.61692e+7 
           5170      4.54321e+7 
           5190      4.48756e+7 
           5210      4.49884e+7 
           5230       4.4554e+7 
           5250      4.51706e+7 
           5270      4.16475e+7 
           5290      4.39893e+7 
           5310      4.31642e+7 
           5330      4.11793e+7 
           5350      4.27726e+7 
           5370      4.23788e+7 
           5390      4.17835e+7 
           5410      4.05947e+7 
           5430      4.09517e+7 
           5450      4.12833e+7 
           5470      4.05954e+7 
           5490      4.02277e+7 
           5510      3.98853e+7 
           5530      3.95086e+7 
           5550       3.9343e+7 
           5570      3.87222e+7 
           5590      3.82624e+7 
           5610      3.82654e+7 
           5630      3.81473e+7 
           5650      3.75956e+7 
           5670       3.6868e+7 
           5690      3.69153e+7 
           5710       3.6567e+7 
           5730      3.69376e+7 
           5750      3.60703e+7 
           5770      3.59338e+7 
           5790      3.54489e+7 
           5810      3.52644e+7 
           5830      3.50794e+7 
           5850      3.46088e+7 
           5870      3.43384e+7 
           5890      3.34258e+7 
           5910      3.36993e+7 
           5930       3.3392e+7 
           5950      3.30402e+7 
           5970      3.28277e+7 
           5990      3.23201e+7 
           6010       3.1709e+7 
           6030       3.1727e+7 
           6050       3.1497e+7 
           6070      3.14513e+7 
           6090      3.09982e+7 
           6110      3.05524e+7 
           6130      2.99253e+7 
           6150       2.9208e+7 
           6170      2.92318e+7 
           6190      2.96891e+7 
           6210      2.94318e+7 
           6230      2.89422e+7 
           6250      2.79703e+7 
           6270      2.87342e+7 
           6290      2.84984e+7 
           6310      2.78449e+7 
           6330      2.77501e+7 
           6350      2.71804e+7 
           6370      2.70768e+7 
           6390      2.70626e+7 
           6410      2.65208e+7 
           6430      2.65055e+7 
           6450      2.58071e+7 
           6470      2.59457e+7 
           6490      2.53066e+7 
           6510      2.51194e+7 
           6530      2.41733e+7 
           6550      2.06372e+7 
           6570      1.63941e+7 
           6590      2.26048e+7 
           6610      2.39676e+7 
           6630      2.41917e+7 
           6650      2.41129e+7 
           6670      2.38618e+7 
           6690       2.3838e+7 
           6710      2.36384e+7 
           6730      2.34449e+7 
           6750      2.30523e+7 
           6770       2.3167e+7 
           6790      2.29319e+7 
           6810      2.27446e+7 
           6830      2.24824e+7 
           6850      2.22886e+7 
           6870      2.22085e+7 
           6890      2.20322e+7 
           6910      2.18291e+7 
           6930      2.16154e+7 
           6950      2.14701e+7 
           6970      2.12587e+7 
           6990       2.1148e+7 
           7010      2.06403e+7 
           7030      2.06938e+7 
           7050      2.05735e+7 
           7070      2.04422e+7 
           7090      2.02829e+7 
           7110      1.95764e+7 
           7130      1.97506e+7 
           7150      1.96469e+7 
           7170      1.94752e+7 
           7190      1.92759e+7 
           7210      1.92155e+7 
           7230      1.90293e+7 
           7250      1.87847e+7 
           7270       1.8829e+7 
           7290      1.85075e+7 
           7310      1.84508e+7 
           7330      1.83264e+7 
           7350      1.82568e+7 
           7370      1.81329e+7 
           7390      1.78534e+7 
           7410      1.76056e+7 
           7430      1.73696e+7 
           7450      1.73491e+7 
           7470      1.71119e+7 
           7490      1.71005e+7 
           7510      1.70577e+7 
           7530      1.69619e+7 
           7550       1.6927e+7 
           7570      1.67357e+7 
           7590      1.66457e+7 
           7610      1.65017e+7 
           7630      1.63946e+7 
           7650      1.62112e+7 
           7670      1.59513e+7 
           7690      1.58945e+7 
           7710      1.58109e+7 
           7730      1.57582e+7 
           7750      1.55854e+7 
           7770      1.51284e+7 
           7790      1.54562e+7 
           7810      1.52987e+7 
           7830      1.50731e+7 
           7850      1.48882e+7 
           7870      1.48339e+7 
           7890      1.46668e+7 
           7910      1.45289e+7 
           7930       1.4406e+7 
           7950      1.42615e+7 
           7970      1.44255e+7 
           7990      1.40978e+7 
           8010      1.41549e+7 
           8030      1.39875e+7 
           8050      1.39437e+7 
           8070      1.38266e+7 
           8090       1.3714e+7 
           8110      1.36872e+7 
           8130      1.36188e+7 
           8150      1.35129e+7 
           8170      1.34197e+7 
           8190      1.30313e+7 
           8210      1.29533e+7 
           8230      1.28693e+7 
           8250      1.28469e+7 
           8270      1.29809e+7 
           8290      1.28586e+7 
           8310      1.27247e+7 
           8330      1.25101e+7 
           8350      1.25756e+7 
           8370      1.25365e+7 
           8390      1.23853e+7 
           8410      1.23318e+7 
           8430        1.218e+7 
           8450      1.18745e+7 
           8470       1.1872e+7 
           8490      1.19139e+7 
           8510      1.12462e+7 
           8530      1.18211e+7 
           8550      1.02404e+7 
           8570      1.19064e+7 
           8590       1.1125e+7 
           8610       1.0865e+7 
           8630      1.18365e+7 
           8650      1.13619e+7 
           8670      9.24822e+6 
           8690      1.12461e+7 
           8710       1.1846e+7 
           8730      1.13474e+7 
           8750      9.08727e+6 
           8770      1.08704e+7 
           8790      1.17557e+7 
           8810      1.18126e+7 
           8830      1.12933e+7 
           8850      1.01255e+7 
           8870      8.63955e+6 
           8890      1.08673e+7 
           8910      1.14217e+7 
           8930      1.14689e+7 
           8950      1.15771e+7 
           8970      1.12629e+7 
           8990      1.06619e+7 
           9010      8.43951e+6 
           9030      9.28276e+6 
           9050      1.06843e+7 
           9070      1.07205e+7 
           9090      1.06151e+7 
           9110      1.09153e+7 
           9130      1.09715e+7 
           9150      1.09654e+7 
           9170      1.07353e+7 
           9190      1.03438e+7 
           9210      9.47418e+6 
           9230      7.38221e+6 
           9250      9.05736e+6 
           9270      9.76097e+6 
           9290      1.03222e+7 
           9310       1.0397e+7 
           9330      1.03317e+7 
           9350      1.03324e+7 
           9370      1.02991e+7 
