# Kurucz ODFNEW /NOVER (2003)
# teff = 24000 K (value for the effective temperature for the model. Temperatures are given in K)
# logg = 3.5 log(cm/s2) (value for Log(G) for the model.)
# meta = -2.5  (value for the Metallicity for the model.)
# lh = 1.25  (l/Hp where l is the  mixing length of the convective element and Hp is the pressure scale height)
# vtur = 2 km/s (Microturbulence velocity)
# alpha = 0  (Alpha)
#
# column 1: WAVELENGTH (ANGSTROM), Wavelength in Angstrom
# column 2: FLUX (ERG/CM2/S/A), Flux in erg/cm2/s/A
          147.2     1.37594e-14 
            151     7.10302e-14 
          155.2     3.95263e-13 
          158.8      1.5982e-12 
            162      5.2424e-12 
            166     2.16473e-11 
          170.3     9.20076e-11 
          173.4     2.49048e-10 
          176.8     7.12006e-10 
          180.2       1.9536e-9 
          181.7      3.01202e-9 
          186.1      1.02827e-8 
            191      3.76492e-8 
          193.9      7.84958e-8 
          198.4      2.34751e-7 
          201.8      5.19211e-7 
            205      1.06874e-6 
          210.5      3.50456e-6 
          216.2      1.12167e-5 
          219.8      2.26122e-5 
            223       4.1332e-5 
          226.8      8.26504e-5 
            230     0.000371531 
            234     0.000832704 
            240      0.00210772 
          246.5      0.00547837 
          252.4       0.0125587 
          256.8       0.0216505 
            260       0.0340411 
            264       0.0561505 
          268.5       0.0967165 
          273.5        0.173069 
          278.5         0.30341 
            284        0.549055 
            290         1.02017 
            296         1.84396 
            301         2.95218 
            308         5.43626 
            318         13.2547 
            328         29.5857 
            338          62.819 
            348         127.312 
            357          231.75 
            366         409.167 
            375         699.906 
            385         1232.65 
            395         2102.05 
            405         3483.76 
            414         5366.87 
            422         7740.46 
            430         10990.4 
            441         17432.2 
            451         25924.6 
            460         36433.8 
            470           52297 
            480         73771.3 
            490          102465 
            500          140169 
            506          910380 
            512      2.55072e+6 
            520      3.04811e+6 
            530      4.03593e+6 
            540      4.32761e+6 
            550      5.84049e+6 
            560      6.81008e+6 
            570      8.05893e+6 
            580      8.10864e+6 
            590      1.03371e+7 
            600      1.23651e+7 
            610      1.42471e+7 
            620      1.61325e+7 
            630       1.8359e+7 
            640      2.03982e+7 
            650      2.31423e+7 
            658      2.54762e+7 
            665      2.74736e+7 
            675      3.00689e+7 
            685      3.30777e+7 
            695      3.74893e+7 
            705      4.09091e+7 
            716       4.5412e+7 
            726      4.95396e+7 
            735      5.39391e+7 
            745      5.89158e+7 
            755      6.39936e+7 
            765      6.91693e+7 
            775      7.49288e+7 
            785      8.08205e+7 
            795      8.66861e+7 
            805      9.30276e+7 
            815      9.93174e+7 
            825      1.06378e+8 
            835      1.11723e+8 
            845      1.20227e+8 
            855      1.27295e+8 
            865      1.35456e+8 
            875      1.43803e+8 
            885      1.52072e+8 
            895       1.6038e+8 
            905      1.67495e+8 
            915      3.13632e+8 
            925      3.71708e+9 
            935      9.20983e+9 
            945     1.88499e+10 
            955     2.17882e+10 
            965     2.61551e+10 
            975     1.35335e+10 
            985      2.6125e+10 
            995     2.49484e+10 
           1005     2.57486e+10 
           1015     2.43182e+10 
           1025     1.27987e+10 
           1035     2.27703e+10 
           1045     2.49836e+10 
           1055     2.44056e+10 
           1065     2.28315e+10 
           1075     2.32266e+10 
           1085     2.18164e+10 
           1095     2.27302e+10 
           1105     2.19362e+10 
           1115     2.16015e+10 
           1125     2.05224e+10 
           1135     2.09259e+10 
           1145     2.02281e+10 
           1155      2.0291e+10 
           1165     1.99742e+10 
           1175      1.7779e+10 
           1185     1.91197e+10 
           1195     1.83014e+10 
           1205     1.68622e+10 
           1215      8.65299e+9 
           1225      1.6811e+10 
           1235     1.74159e+10 
           1245     1.70388e+10 
           1255     1.68944e+10 
           1265     1.65163e+10 
           1275     1.63605e+10 
           1285      1.6058e+10 
           1295     1.51478e+10 
           1305      1.5149e+10 
           1315     1.52016e+10 
           1325     1.47615e+10 
           1335     1.42934e+10 
           1345     1.43526e+10 
           1355     1.41649e+10 
           1365      1.3868e+10 
           1375     1.36229e+10 
           1385     1.34016e+10 
           1395     1.28446e+10 
           1405     1.27144e+10 
           1415     1.26738e+10 
           1425     1.24653e+10 
           1435     1.22833e+10 
           1442     1.21603e+10 
           1447     1.20462e+10 
           1455     1.18739e+10 
           1465     1.16588e+10 
           1475     1.14619e+10 
           1485     1.12669e+10 
           1495     1.10715e+10 
           1505     1.08314e+10 
           1512     1.06992e+10 
           1517     1.06276e+10 
           1525     1.04751e+10 
           1535      1.0156e+10 
           1545       9.9994e+9 
           1555      9.78894e+9 
           1565      9.76899e+9 
           1575      9.64974e+9 
           1585      9.49912e+9 
           1595      9.35239e+9 
           1605      9.10021e+9 
           1615      8.94973e+9 
           1625      8.86916e+9 
           1635      8.74226e+9 
           1645       8.4613e+9 
           1655      8.48356e+9 
           1665      8.36049e+9 
           1672      8.24616e+9 
           1677      8.23242e+9 
           1685      8.11768e+9 
           1695      7.97052e+9 
           1705      7.82909e+9 
           1715      7.67273e+9 
           1725      7.57289e+9 
           1735      7.47746e+9 
           1745      7.35427e+9 
           1755      7.26238e+9 
           1765      7.08043e+9 
           1775      7.00793e+9 
           1785      6.93117e+9 
           1795      6.83428e+9 
           1805      6.74546e+9 
           1815      6.62125e+9 
           1825      6.52943e+9 
           1835      6.43396e+9 
           1845      6.26712e+9 
           1855      6.10415e+9 
           1865      6.05869e+9 
           1875      6.04278e+9 
           1885      5.85892e+9 
           1895      5.71164e+9 
           1905      5.74267e+9 
           1915      5.57981e+9 
           1925      5.49322e+9 
           1935       5.4709e+9 
           1945       5.4366e+9 
           1955      5.25653e+9 
           1967      5.26533e+9 
           1976      5.23523e+9 
           1984      5.12313e+9 
           1995       4.9851e+9 
           2005      5.00354e+9 
           2015      4.95993e+9 
           2025      4.90546e+9 
           2035      4.81098e+9 
           2045      4.74359e+9 
           2055      4.61109e+9 
           2065      4.53695e+9 
           2074      4.55765e+9 
           2078      4.47216e+9 
           2085      4.47866e+9 
           2095      4.39644e+9 
           2105      4.37883e+9 
           2115      4.33465e+9 
           2125      4.28786e+9 
           2135      4.22746e+9 
           2145      4.16234e+9 
           2155       4.1165e+9 
           2165      4.06401e+9 
           2175      4.00881e+9 
           2185      3.95808e+9 
           2195       3.9099e+9 
           2205      3.85871e+9 
           2215      3.80813e+9 
           2225      3.75822e+9 
           2235      3.70875e+9 
           2245       3.6645e+9 
           2255      3.61481e+9 
           2265      3.57187e+9 
           2275      3.52664e+9 
           2285      3.48292e+9 
           2295        3.409e+9 
           2305      3.39438e+9 
           2315      3.35155e+9 
           2325      3.31024e+9 
           2335      3.26723e+9 
           2345       3.2286e+9 
           2355      3.18975e+9 
           2365      3.15031e+9 
           2375      3.11128e+9 
           2385      3.07187e+9 
           2395      3.03543e+9 
           2405      2.99904e+9 
           2415      2.96179e+9 
           2425      2.92761e+9 
           2435      2.89167e+9 
           2445      2.85735e+9 
           2455       2.8238e+9 
           2465       2.7899e+9 
           2475       2.7567e+9 
           2485      2.72388e+9 
           2495      2.65713e+9 
           2505      2.65973e+9 
           2513      2.62713e+9 
           2518      2.61909e+9 
           2525      2.59803e+9 
           2535      2.56772e+9 
           2545      2.53409e+9 
           2555      2.50811e+9 
           2565      2.47949e+9 
           2575      2.45152e+9 
           2585       2.4234e+9 
           2595      2.39575e+9 
           2605      2.38522e+9 
           2615      2.35803e+9 
           2625       2.3295e+9 
           2635      2.29785e+9 
           2645      2.27318e+9 
           2655      2.24508e+9 
           2665      2.21734e+9 
           2675      2.19132e+9 
           2685      2.17879e+9 
           2695      2.14029e+9 
           2705      2.13047e+9 
           2715      2.10688e+9 
           2725      2.06897e+9 
           2735      2.06006e+9 
           2745      2.03728e+9 
           2755      2.01537e+9 
           2765      1.97835e+9 
           2775      1.97224e+9 
           2785      1.95067e+9 
           2795      1.92328e+9 
           2805      1.90715e+9 
           2815       1.8884e+9 
           2825      1.85135e+9 
           2835      1.84019e+9 
           2845      1.82853e+9 
           2855        1.809e+9 
           2865      1.78992e+9 
           2875      1.77102e+9 
           2885      1.75238e+9 
           2895      1.73396e+9 
           2910       1.7067e+9 
           2930      1.67132e+9 
           2950      1.62679e+9 
           2970      1.60337e+9 
           2990      1.57057e+9 
           3010      1.53863e+9 
           3030      1.50784e+9 
           3050       1.4776e+9 
           3070      1.44814e+9 
           3090      1.41895e+9 
           3110      1.39134e+9 
           3130       1.3655e+9 
           3150      1.33865e+9 
           3170       1.3121e+9 
           3190      1.27697e+9 
           3210      1.26172e+9 
           3230      1.23748e+9 
           3250       1.2137e+9 
           3270      1.19207e+9 
           3290      1.16794e+9 
           3310      1.14771e+9 
           3330      1.12633e+9 
           3350      1.10338e+9 
           3370      1.08502e+9 
           3390      1.06511e+9 
           3410      1.04565e+9 
           3430      1.02177e+9 
           3450      9.99706e+8 
           3470      9.84711e+8 
           3490      9.67302e+8 
           3510       9.5472e+8 
           3530      9.38581e+8 
           3550      9.22356e+8 
           3570       9.1007e+8 
           3590      8.89581e+8 
           3610      8.75213e+8 
           3630      8.58762e+8 
           3640      8.56382e+8 
           3650      8.47171e+8 
           3670      8.35809e+8 
           3690      8.12303e+8 
           3710      7.92484e+8 
           3730      7.75343e+8 
           3750      8.39534e+8 
           3770      8.42392e+8 
           3790      8.71292e+8 
           3810      9.03018e+8 
           3830      7.99923e+8 
           3850      9.14139e+8 
           3870      9.06652e+8 
           3890      7.63188e+8 
           3910       8.8832e+8 
           3930       8.7074e+8 
           3950      8.58854e+8 
           3970      7.08048e+8 
           3990      8.27143e+8 
           4010      8.14953e+8 
           4030      7.77704e+8 
           4050      7.93997e+8 
           4070      7.79026e+8 
           4090      7.37825e+8 
           4110      6.53809e+8 
           4130      7.33475e+8 
           4150      7.23797e+8 
           4170      7.15983e+8 
           4190      7.05988e+8 
           4210      6.94493e+8 
           4230      6.83183e+8 
           4250      6.72033e+8 
           4270       6.6067e+8 
           4290      6.50491e+8 
           4310      6.38628e+8 
           4330      5.96453e+8 
           4350      5.47141e+8 
           4370      6.07895e+8 
           4390      5.88471e+8 
           4410      5.90835e+8 
           4430      5.79389e+8 
           4450      5.72633e+8 
           4470      5.45837e+8 
           4490      5.54907e+8 
           4510      5.46477e+8 
           4530      5.38083e+8 
           4550      5.29778e+8 
           4570      5.21688e+8 
           4590      5.13807e+8 
           4610      5.06062e+8 
           4630       4.9843e+8 
           4650      4.90667e+8 
           4670      4.83572e+8 
           4690      4.76082e+8 
           4710      4.64134e+8 
           4730      4.62339e+8 
           4750      4.55448e+8 
           4770      4.48905e+8 
           4790       4.4234e+8 
           4810      4.35852e+8 
           4830      4.28423e+8 
           4850      4.05406e+8 
           4870      3.65421e+8 
           4890      4.09387e+8 
           4910      4.05168e+8 
           4930      3.92231e+8 
           4950      3.93865e+8 
           4970      3.88307e+8 
           4990      3.82825e+8 
           5010      3.73456e+8 
           5030      3.72145e+8 
           5050      3.64978e+8 
           5070       3.6184e+8 
           5090      3.56821e+8 
           5110      3.51898e+8 
           5130      3.47041e+8 
           5150      3.42277e+8 
           5170      3.37605e+8 
           5190      3.33008e+8 
           5210      3.28471e+8 
           5230      3.24036e+8 
           5250      3.19658e+8 
           5270      3.15364e+8 
           5290      3.11126e+8 
           5310      3.06983e+8 
           5330      3.02894e+8 
           5350       2.9887e+8 
           5370      2.94923e+8 
           5390       2.9104e+8 
           5410      2.87206e+8 
           5430      2.83458e+8 
           5450      2.79758e+8 
           5470      2.76117e+8 
           5490      2.72547e+8 
           5510      2.69021e+8 
           5530      2.65563e+8 
           5550      2.62148e+8 
           5570        2.588e+8 
           5590      2.55492e+8 
           5610      2.52249e+8 
           5630      2.49058e+8 
           5650      2.45905e+8 
           5670      2.42803e+8 
           5690      2.39737e+8 
           5710      2.36755e+8 
           5730      2.33809e+8 
           5750      2.30886e+8 
           5770      2.28043e+8 
           5790      2.25223e+8 
           5810      2.22448e+8 
           5830      2.19716e+8 
           5850      2.17027e+8 
           5870      2.08838e+8 
           5890      2.11657e+8 
           5910      2.09192e+8 
           5930      2.06669e+8 
           5950      2.04175e+8 
           5970      2.01721e+8 
           5990      1.99305e+8 
           6010      1.96917e+8 
           6030      1.94577e+8 
           6050      1.92263e+8 
           6070      1.89986e+8 
           6090      1.87745e+8 
           6110      1.85539e+8 
           6130      1.83357e+8 
           6150      1.81211e+8 
           6170      1.79098e+8 
           6190      1.77018e+8 
           6210      1.74971e+8 
           6230      1.72947e+8 
           6250      1.70954e+8 
           6270      1.68984e+8 
           6290      1.67054e+8 
           6310      1.65136e+8 
           6330      1.63257e+8 
           6350      1.61399e+8 
           6370       1.5957e+8 
           6390       1.5777e+8 
           6410      1.55998e+8 
           6430      1.54246e+8 
           6450      1.52521e+8 
           6470      1.50815e+8 
           6490      1.49135e+8 
           6510      1.47473e+8 
           6530        1.456e+8 
           6550      1.40971e+8 
           6570        1.267e+8 
           6590      1.40341e+8 
           6610      1.39519e+8 
           6630       1.3801e+8 
           6650      1.36601e+8 
           6670       1.3398e+8 
           6690      1.32549e+8 
           6710      1.32211e+8 
           6730      1.30786e+8 
           6750      1.29376e+8 
           6770      1.27988e+8 
           6790      1.26622e+8 
           6810       1.2527e+8 
           6830       1.2394e+8 
           6850      1.22623e+8 
           6870      1.21328e+8 
           6890      1.20053e+8 
           6910      1.18791e+8 
           6930      1.17541e+8 
           6950      1.16312e+8 
           6970      1.15103e+8 
           6990       1.1389e+8 
           7010       1.1272e+8 
           7030      1.11553e+8 
           7050      1.10398e+8 
           7070      1.07566e+8 
           7090      1.08144e+8 
           7110       1.0703e+8 
           7130      1.05941e+8 
           7150      1.04863e+8 
           7170      1.03773e+8 
           7190      1.02738e+8 
           7210      1.01705e+8 
           7230      1.00631e+8 
           7250      9.96608e+7 
           7270      9.86642e+7 
           7290      9.68901e+7 
           7310      9.66779e+7 
           7330      9.57374e+7 
           7350      9.47847e+7 
           7370      9.38409e+7 
           7390      9.29129e+7 
           7410      9.20004e+7 
           7430      9.10963e+7 
           7450      9.02141e+7 
           7470      8.93266e+7 
           7490       8.8454e+7 
           7510      8.75627e+7 
           7530      8.67461e+7 
           7550      8.59038e+7 
           7570      8.50691e+7 
           7590      8.42487e+7 
           7610      8.34421e+7 
           7630      8.26364e+7 
           7650      8.18444e+7 
           7670      8.10659e+7 
           7690       8.0288e+7 
           7710      7.95235e+7 
           7730       7.8772e+7 
           7750       7.8021e+7 
           7770      7.72892e+7 
           7790      7.65638e+7 
           7810       7.5783e+7 
           7830      7.51322e+7 
           7850      7.45175e+7 
           7870      7.38169e+7 
           7890      7.30861e+7 
           7910       7.2452e+7 
           7930      7.16796e+7 
           7950      7.09499e+7 
           7970      7.02443e+7 
           7990      6.96276e+7 
           8010      6.89573e+7 
           8030      6.83514e+7 
           8050      6.77796e+7 
           8070      6.71953e+7 
           8090      6.64548e+7 
           8110       6.5927e+7 
           8130      6.54206e+7 
           8150      6.46972e+7 
           8170      6.42567e+7 
           8190       6.3595e+7 
           8210      6.29055e+7 
           8230      6.25501e+7 
           8250      6.20036e+7 
           8270      6.11147e+7 
           8290      6.08202e+7 
           8310      6.02987e+7 
           8330      5.97489e+7 
           8350      5.89281e+7 
           8370      5.85554e+7 
           8390       5.8116e+7 
           8410      5.75789e+7 
           8430      5.69879e+7 
           8450       5.6175e+7 
           8470      5.57525e+7 
           8490      5.55686e+7 
           8510      5.45222e+7 
           8530      5.48104e+7 
           8550      5.27764e+7 
           8570       5.4695e+7 
