# Kurucz ODFNEW /NOVER (2003)
# teff = 7500 K (value for the effective temperature for the model. Temperatures are given in K)
# logg = 4.5 log(cm/s2) (value for Log(G) for the model.)
# meta = -2  (value for the Metallicity for the model.)
# lh = 1.25  (l/Hp where l is the  mixing length of the convective element and Hp is the pressure scale height)
# vtur = 2 km/s (Microturbulence velocity)
# alpha = 0  (Alpha)
#
# column 1: WAVELENGTH (ANGSTROM), Wavelength in Angstrom
# column 2: FLUX (ERG/CM2/S/A), Flux in erg/cm2/s/A
            318     5.12953e-24 
            328     1.79817e-22 
            338      1.9246e-21 
            348     1.76083e-20 
            357     5.20774e-21 
            366     2.84524e-20 
            375     1.42443e-19 
            385     7.76638e-19 
            395     3.86231e-18 
            405     1.76549e-17 
            414     6.48566e-17 
            422     1.96071e-16 
            430     5.67233e-16 
            441     2.28462e-15 
            451     7.60549e-15 
            460     2.13984e-14 
            470     6.42572e-14 
            480     1.83557e-13 
            490     5.00873e-13 
            500     1.30724e-12 
            506     3.01827e-12 
            512     5.85004e-12 
            520     1.17594e-11 
            530     2.74547e-11 
            540     6.09033e-11 
            550     1.32559e-10 
            560     2.78126e-10 
            570     5.67019e-10 
            580      1.11202e-9 
            590      2.17499e-9 
            600      4.10353e-9 
            610      7.56456e-9 
            620      1.36403e-8 
            630      2.40864e-8 
            640      4.17143e-8 
            650      7.08893e-8 
            658      1.06937e-7 
            665      1.51842e-7 
            675       2.4701e-7 
            685        3.954e-7 
            695      6.23295e-7 
            705      9.68153e-7 
            716      1.54636e-6 
            726      2.33381e-6 
            735      3.34417e-6 
            745      4.93018e-6 
            755      7.18266e-6 
            765      1.03467e-5 
            775       1.4743e-5 
            785       2.0789e-5 
            795      2.90148e-5 
            805      4.01213e-5 
            815      5.49617e-5 
            825      7.46291e-5 
            835     0.000100485 
            845     0.000134183 
            855     0.000177763 
            865     0.000233693 
            875     0.000304946 
            885     0.000395168 
            895     0.000508545 
            905      0.00065008 
            915        0.619164 
            925         4.70414 
            935         8.41907 
            945         14.8806 
            955          21.055 
            965         27.9615 
            975         23.8333 
            985         45.3873 
            995         54.9326 
           1005         67.7649 
           1015         71.3326 
           1025         55.0092 
           1035         105.761 
           1045         146.069 
           1055         171.823 
           1065         208.213 
           1075         250.939 
           1085         302.507 
           1095         347.973 
           1105         476.564 
           1115         641.142 
           1125         726.089 
           1135          888.64 
           1145         1007.29 
           1155         1067.98 
           1165         1207.92 
           1175         1265.84 
           1185         1473.49 
           1195         1033.14 
           1205         691.567 
           1215         234.027 
           1225         787.162 
           1235         1724.28 
           1245         1373.78 
           1255          3176.2 
           1265         3903.31 
           1275         4722.49 
           1285          6017.5 
           1295         7235.48 
           1305         8559.13 
           1315         10105.4 
           1325         11813.5 
           1335           13580 
           1345           15937 
           1355         17983.5 
           1365           20933 
           1375         23283.7 
           1385         25497.9 
           1395           28719 
           1405         31590.3 
           1415         36861.5 
           1425         39427.5 
           1435         42912.1 
           1442         48966.3 
           1447         47858.4 
           1455         53067.1 
           1465         54741.2 
           1475         60352.9 
           1485         65762.9 
           1495         72565.5 
           1505         79706.1 
           1512           84299 
           1517         82270.9 
           1525         87262.7 
           1535         92515.3 
           1545         95552.9 
           1555         99104.7 
           1565         97405.4 
           1575          106803 
           1585          112989 
           1595          120503 
           1605          126576 
           1615          142743 
           1625          166221 
           1635          232473 
           1645          552824 
           1655          960438 
           1665      2.86492e+6 
           1672      3.41937e+6 
           1677      4.94366e+6 
           1685      6.62137e+6 
           1695      7.67771e+6 
           1705      9.28454e+6 
           1715      1.10363e+7 
           1725      1.16641e+7 
           1735      1.30707e+7 
           1745      1.30636e+7 
           1755      1.42202e+7 
           1765      1.26821e+7 
           1775      1.43272e+7 
           1785      1.47039e+7 
           1795       1.5822e+7 
           1805      1.52402e+7 
           1815      1.54867e+7 
           1825      1.49227e+7 
           1835      1.56936e+7 
           1845      1.45589e+7 
           1855      1.54271e+7 
           1865       1.6186e+7 
           1875      1.62656e+7 
           1885      1.64603e+7 
           1895      1.69732e+7 
           1905      1.65245e+7 
           1915       1.7392e+7 
           1925      1.79397e+7 
           1935      1.70142e+7 
           1945      1.83812e+7 
           1955      1.84283e+7 
           1967      1.91223e+7 
           1976      1.85413e+7 
           1984      1.85673e+7 
           1995      1.86783e+7 
           2005      1.81241e+7 
           2015      1.84754e+7 
           2025      1.75336e+7 
           2035      1.91338e+7 
           2045      1.97318e+7 
           2055      1.93225e+7 
           2065      1.92728e+7 
           2074      2.04073e+7 
           2078      2.03672e+7 
           2085      2.02567e+7 
           2095      1.99024e+7 
           2105       1.9707e+7 
           2115      2.01325e+7 
           2125      2.03372e+7 
           2135      1.90818e+7 
           2145      2.03814e+7 
           2155       2.0144e+7 
           2165      1.94641e+7 
           2175      1.95507e+7 
           2185      2.01778e+7 
           2195      2.11031e+7 
           2205      2.05674e+7 
           2215      1.96065e+7 
           2225      2.02411e+7 
           2235      2.16819e+7 
           2245      2.06953e+7 
           2255       1.9921e+7 
           2265      1.94128e+7 
           2275      2.05957e+7 
           2285      2.09202e+7 
           2295      2.00774e+7 
           2305      2.06239e+7 
           2315      2.07245e+7 
           2325      2.06825e+7 
           2335      2.06923e+7 
           2345      1.90618e+7 
           2355      2.11833e+7 
           2365      1.96999e+7 
           2375      2.06303e+7 
           2385      1.86139e+7 
           2395      2.02235e+7 
           2405       1.9984e+7 
           2415      2.00624e+7 
           2425      2.11196e+7 
           2435      2.05348e+7 
           2445      2.10408e+7 
           2455      2.08966e+7 
           2465      2.07051e+7 
           2475      2.01021e+7 
           2485      2.03414e+7 
           2495      1.99959e+7 
           2505      2.15723e+7 
           2513      2.03232e+7 
           2518      2.00441e+7 
           2525      1.92565e+7 
           2535      1.91934e+7 
           2545      1.90743e+7 
           2555      2.05077e+7 
           2565      2.05932e+7 
           2575      2.15386e+7 
           2585      2.17647e+7 
           2595      2.17438e+7 
           2605      2.11647e+7 
           2615      2.08643e+7 
           2625      2.15586e+7 
           2635      2.17246e+7 
           2645      2.33355e+7 
           2655      2.33134e+7 
           2665      2.23034e+7 
           2675      2.28029e+7 
           2685      2.32887e+7 
           2695      2.24419e+7 
           2705      2.25455e+7 
           2715      2.17036e+7 
           2725      2.17911e+7 
           2735      2.23765e+7 
           2745      2.05973e+7 
           2755       2.1065e+7 
           2765      2.19832e+7 
           2775       2.2599e+7 
           2785         2.23e+7 
           2795      1.83686e+7 
           2805      2.00847e+7 
           2815      2.33823e+7 
           2825      2.31482e+7 
           2835      2.27334e+7 
           2845      2.23742e+7 
           2855      2.13336e+7 
           2865      2.23929e+7 
           2875      2.22566e+7 
           2885      2.27204e+7 
           2895      2.28231e+7 
           2910      2.34541e+7 
           2930      2.29279e+7 
           2950      2.26756e+7 
           2970      2.27821e+7 
           2990      2.28104e+7 
           3010      2.28139e+7 
           3030       2.2874e+7 
           3050      2.28998e+7 
           3070       2.2897e+7 
           3090      2.28864e+7 
           3110      2.27917e+7 
           3130      2.28136e+7 
           3150      2.29462e+7 
           3170      2.28844e+7 
           3190      2.23185e+7 
           3210      2.24785e+7 
           3230      2.21508e+7 
           3250      2.24393e+7 
           3270      2.26935e+7 
           3290      2.27463e+7 
           3310      2.27356e+7 
           3330      2.24552e+7 
           3350      2.21979e+7 
           3370      2.21777e+7 
           3390      2.20391e+7 
           3410      2.21879e+7 
           3430      2.21489e+7 
           3450      2.19695e+7 
           3470      2.19097e+7 
           3490       2.1937e+7 
           3510      2.19969e+7 
           3530      2.19131e+7 
           3550      2.19629e+7 
           3570      2.15989e+7 
           3590      2.15305e+7 
           3610      2.14909e+7 
           3630      2.15395e+7 
           3640       2.1547e+7 
           3650      2.16468e+7 
           3670      2.17066e+7 
           3690      2.08981e+7 
           3710      2.10659e+7 
           3730      2.06419e+7 
           3750      2.43312e+7 
           3770      2.51824e+7 
           3790      2.88053e+7 
           3810      3.23939e+7 
           3830      2.68533e+7 
           3850      3.48657e+7 
           3870       3.7638e+7 
           3890      2.51898e+7 
           3910       3.7722e+7 
           3930      3.82488e+7 
           3950      3.78335e+7 
           3970      2.45147e+7 
           3990      3.68587e+7 
           4010      3.97344e+7 
           4030      3.99116e+7 
           4050      3.95023e+7 
           4070       3.8012e+7 
           4090      3.23105e+7 
           4110       2.6234e+7 
           4130       3.7015e+7 
           4150      3.81378e+7 
           4170      3.83058e+7 
           4190      3.79882e+7 
           4210      3.76749e+7 
           4230      3.72268e+7 
           4250      3.71046e+7 
           4270      3.66524e+7 
           4290      3.62849e+7 
           4310      3.47929e+7 
           4330      2.87115e+7 
           4350      2.52228e+7 
           4370      3.40887e+7 
           4390      3.48735e+7 
           4410      3.49124e+7 
           4430      3.49492e+7 
           4450      3.47156e+7 
           4470      3.45169e+7 
           4490      3.42979e+7 
           4510      3.41055e+7 
           4530      3.37757e+7 
           4550       3.3483e+7 
           4570      3.33656e+7 
           4590      3.30897e+7 
           4610      3.29007e+7 
           4630      3.26241e+7 
           4650      3.24121e+7 
           4670      3.21834e+7 
           4690      3.19112e+7 
           4710      3.15457e+7 
           4730      3.14142e+7 
           4750      3.11552e+7 
           4770      3.08763e+7 
           4790      3.05418e+7 
           4810      3.00653e+7 
           4830      2.90191e+7 
           4850      2.46097e+7 
           4870      2.07737e+7 
           4890      2.78859e+7 
           4910      2.88578e+7 
           4930      2.88256e+7 
           4950      2.88176e+7 
           4970      2.87219e+7 
           4990      2.85163e+7 
           5010      2.82561e+7 
           5030      2.81554e+7 
           5050      2.79299e+7 
           5070      2.77554e+7 
           5090       2.7545e+7 
           5110        2.735e+7 
           5130      2.71372e+7 
           5150      2.69154e+7 
           5170      2.64398e+7 
           5190      2.63469e+7 
           5210      2.62894e+7 
           5230      2.60708e+7 
           5250      2.59846e+7 
           5270      2.56629e+7 
           5290      2.55931e+7 
           5310      2.54034e+7 
           5330      2.51521e+7 
           5350       2.5042e+7 
           5370      2.48258e+7 
           5390      2.46549e+7 
           5410       2.4442e+7 
           5430      2.42917e+7 
           5450       2.4115e+7 
           5470      2.39604e+7 
           5490      2.38011e+7 
           5510      2.36311e+7 
           5530      2.34494e+7 
           5550      2.32942e+7 
           5570      2.31102e+7 
           5590      2.29343e+7 
           5610      2.27782e+7 
           5630      2.26297e+7 
           5650      2.24663e+7 
           5670       2.2301e+7 
           5690      2.21457e+7 
           5710      2.19839e+7 
           5730      2.18353e+7 
           5750      2.16757e+7 
           5770      2.15223e+7 
           5790      2.13682e+7 
           5810      2.12169e+7 
           5830      2.10672e+7 
           5850      2.09135e+7 
           5870      2.07657e+7 
           5890      2.05033e+7 
           5910      2.04726e+7 
           5930      2.03273e+7 
           5950      2.01845e+7 
           5970       2.0041e+7 
           5990       1.9899e+7 
           6010      1.97574e+7 
           6030      1.96162e+7 
           6050      1.94826e+7 
           6070      1.93452e+7 
           6090      1.92092e+7 
           6110      1.90736e+7 
           6130      1.89273e+7 
           6150      1.87994e+7 
           6170      1.86609e+7 
           6190      1.85464e+7 
           6210      1.84173e+7 
           6230      1.82857e+7 
           6250      1.81496e+7 
           6270      1.80359e+7 
           6290      1.79109e+7 
           6310      1.77824e+7 
           6330      1.76617e+7 
           6350      1.75385e+7 
           6370      1.74183e+7 
           6390      1.72993e+7 
           6410      1.71723e+7 
           6430      1.70428e+7 
           6450      1.68866e+7 
           6470      1.67536e+7 
           6490      1.65834e+7 
           6510       1.6367e+7 
           6530      1.59285e+7 
           6550      1.43588e+7 
           6570      1.19412e+7 
           6590      1.52364e+7 
           6610      1.57246e+7 
           6630      1.57867e+7 
           6650      1.57439e+7 
           6670      1.56665e+7 
           6690       1.5584e+7 
           6710      1.55021e+7 
           6730      1.53993e+7 
           6750      1.52941e+7 
           6770      1.51932e+7 
           6790      1.50915e+7 
           6810      1.49892e+7 
           6830      1.48886e+7 
           6850      1.47882e+7 
           6870      1.46902e+7 
           6890      1.45924e+7 
           6910      1.44946e+7 
           6930      1.43985e+7 
           6950      1.43025e+7 
           6970      1.42074e+7 
           6990      1.41131e+7 
           7010      1.40181e+7 
           7030      1.39255e+7 
           7050      1.38344e+7 
           7070      1.37427e+7 
           7090      1.36526e+7 
           7110      1.35572e+7 
           7130      1.34716e+7 
           7150      1.33824e+7 
           7170      1.32954e+7 
           7190      1.32069e+7 
           7210      1.31207e+7 
           7230      1.30367e+7 
           7250      1.29512e+7 
           7270      1.28673e+7 
           7290      1.27819e+7 
           7310      1.26993e+7 
           7330      1.26161e+7 
           7350      1.25357e+7 
           7370      1.24546e+7 
           7390      1.23728e+7 
           7410      1.22896e+7 
           7430      1.22126e+7 
           7450      1.21342e+7 
           7470      1.20558e+7 
           7490      1.19774e+7 
           7510      1.19017e+7 
           7530      1.18259e+7 
           7550      1.17508e+7 
           7570       1.1675e+7 
           7590      1.16005e+7 
           7610      1.15266e+7 
           7630      1.14526e+7 
           7650      1.13793e+7 
           7670      1.13053e+7 
           7690      1.12351e+7 
           7710      1.11629e+7 
           7730      1.10933e+7 
           7750      1.10223e+7 
           7770      1.09357e+7 
           7790      1.08846e+7 
           7810      1.08159e+7 
           7830      1.07466e+7 
           7850      1.06791e+7 
           7870      1.06121e+7 
           7890      1.05456e+7 
           7910      1.04803e+7 
           7930       1.0412e+7 
           7950      1.03477e+7 
           7970      1.02858e+7 
           7990      1.02208e+7 
           8010      1.01569e+7 
           8030      1.00941e+7 
           8050      1.00312e+7 
           8070      9.96997e+6 
           8090      9.90749e+6 
           8110      9.84666e+6 
           8130      9.78573e+6 
           8150      9.72586e+6 
           8170      9.66531e+6 
           8190      9.59851e+6 
           8210      9.55012e+6 
           8230      9.49153e+6 
           8250      9.43671e+6 
           8270      9.38451e+6 
           8290      9.32887e+6 
           8310      9.27365e+6 
           8330        9.208e+6 
           8350      9.16286e+6 
           8370      9.10568e+6 
           8390      9.04573e+6 
           8410      8.98891e+6 
           8430      8.93571e+6 
           8450      8.87763e+6 
           8470      8.78587e+6 
           8490      8.78947e+6 
           8510      8.58486e+6 
           8530      8.70102e+6 
           8550      8.34445e+6 
           8570      8.63742e+6 
           8590      8.39711e+6 
           8610       8.2809e+6 
           8630      8.53797e+6 
           8650       8.3782e+6 
           8670      7.70259e+6 
           8690      8.36261e+6 
           8710      8.41413e+6 
           8730      8.25451e+6 
           8750      7.33998e+6 
           8770      8.03195e+6 
           8790      8.25387e+6 
           8810      8.23876e+6 
           8830      8.13867e+6 
           8850      7.70558e+6 
           8870      6.94927e+6 
           8890      7.88379e+6 
           8910      8.01738e+6 
           8930      8.01835e+6 
           8950      7.97927e+6 
           8970      7.88801e+6 
           8990      7.67675e+6 
           9010      6.68209e+6 
           9030      7.12193e+6 
           9050      7.61301e+6 
           9070       7.6729e+6 
           9090      7.64966e+6 
           9110      7.65015e+6 
           9130      7.61757e+6 
           9150      7.56541e+6 
           9170      7.49347e+6 
           9190      7.37391e+6 
           9210      7.07366e+6 
           9230      6.02021e+6 
           9250      6.91091e+6 
           9270      7.18537e+6 
           9290      7.23784e+6 
           9310      7.23111e+6 
           9330      7.20491e+6 
           9350      7.17153e+6 
