# Kurucz ODFNEW /NOVER (2003)
# teff = 27000 K (value for the effective temperature for the model. Temperatures are given in K)
# logg = 5 log(cm/s2) (value for Log(G) for the model.)
# meta = -2.5  (value for the Metallicity for the model.)
# lh = 1.25  (l/Hp where l is the  mixing length of the convective element and Hp is the pressure scale height)
# vtur = 2 km/s (Microturbulence velocity)
# alpha = 0.4  (Alpha)
#
# column 1: WAVELENGTH (ANGSTROM), Wavelength in Angstrom
# column 2: FLUX (ERG/CM2/S/A), Flux in erg/cm2/s/A
          147.2     6.89482e-12 
            151     2.94315e-11 
          155.2     1.34931e-10 
          158.8     4.66806e-10 
            162      1.34357e-9 
            166      4.75615e-9 
          170.3       1.7314e-8 
          173.4      4.22142e-8 
          176.8      1.08215e-7 
          180.2      2.67546e-7 
          181.7      3.94372e-7 
          186.1      1.18632e-6 
            191      3.80416e-6 
          193.9      7.36741e-6 
          198.4      1.97464e-5 
          201.8      4.03629e-5 
            205      7.73602e-5 
          210.5     0.000225348 
          216.2     0.000642623 
          219.8      0.00120952 
            223      0.00208414 
          226.8      0.00389413 
            230        0.030587 
            234       0.0672768 
            240        0.151634 
          246.5        0.349435 
          252.4        0.724887 
          256.8         1.16659 
            260         1.73541 
            264         2.68926 
          268.5          4.3282 
          273.5         7.19995 
          278.5         11.7683 
            284         19.7748 
            290         33.9885 
            296         57.0065 
            301         86.1229 
            308         146.015 
            318         319.336 
            328         643.162 
            338         1240.88 
            348         2296.92 
            357         3870.78 
            366          6355.6 
            375         10134.3 
            385           16585 
            395         26364.4 
            405         40880.4 
            414           59511 
            422         81718.1 
            430          110631 
            441          165140 
            451          232982 
            460          312671 
            470          427449 
            480          575379 
            490          764191 
            500      1.00151e+6 
            506       5.0716e+6 
            512      1.81579e+7 
            520       2.1028e+7 
            530      2.70725e+7 
            540      2.78271e+7 
            550      3.55159e+7 
            560      3.96503e+7 
            570      4.50614e+7 
            580      4.49992e+7 
            590      5.46945e+7 
            600      6.20808e+7 
            610      6.91123e+7 
            620      7.58222e+7 
            630      8.38458e+7 
            640        9.084e+7 
            650      1.00518e+8 
            658       1.0786e+8 
            665      1.14307e+8 
            675      1.22579e+8 
            685      1.31648e+8 
            695      1.45451e+8 
            705      1.55308e+8 
            716      1.68452e+8 
            726       1.8044e+8 
            735      1.93321e+8 
            745      2.06825e+8 
            755      2.20536e+8 
            765      2.34242e+8 
            775      2.49349e+8 
            785      2.64397e+8 
            795      2.79085e+8 
            805      2.95117e+8 
            815      3.10901e+8 
            825      3.27575e+8 
            835      3.39158e+8 
            845       3.6073e+8 
            855      3.77134e+8 
            865      3.95578e+8 
            875      4.13621e+8 
            885      4.31864e+8 
            895      4.49997e+8 
            905      4.64895e+8 
            915      5.81141e+8 
            925      2.59304e+9 
            935      6.62037e+9 
            945     2.08444e+10 
            955      3.2233e+10 
            965     4.47111e+10 
            975     1.79019e+10 
            985     5.51761e+10 
            995     5.31518e+10 
           1005      5.5624e+10 
           1015     4.72016e+10 
           1025     1.25785e+10 
           1035      4.1836e+10 
           1045     5.14369e+10 
           1055     5.07981e+10 
           1065     4.78458e+10 
           1075     4.76998e+10 
           1085     4.37588e+10 
           1095     4.59732e+10 
           1105     4.39663e+10 
           1115     4.28842e+10 
           1125     4.06786e+10 
           1135     4.11142e+10 
           1145     3.92555e+10 
           1155     3.89092e+10 
           1165     3.80137e+10 
           1175     3.39394e+10 
           1185     3.57728e+10 
           1195     3.34249e+10 
           1205     2.79584e+10 
           1215       8.7811e+9 
           1225     2.61693e+10 
           1235     3.08897e+10 
           1245     3.05632e+10 
           1255     3.02359e+10 
           1265     2.94067e+10 
           1275     2.90283e+10 
           1285     2.83478e+10 
           1295     2.66043e+10 
           1305     2.64039e+10 
           1315     2.63916e+10 
           1325      2.5557e+10 
           1335      2.4702e+10 
           1345     2.45298e+10 
           1355     2.40931e+10 
           1365       2.343e+10 
           1375     2.29809e+10 
           1385      2.2499e+10 
           1395     2.14148e+10 
           1405     2.11035e+10 
           1415      2.0985e+10 
           1425     2.05746e+10 
           1435     2.01516e+10 
           1442     1.98912e+10 
           1447      1.9673e+10 
           1455     1.93345e+10 
           1465     1.89205e+10 
           1475      1.8528e+10 
           1485     1.81427e+10 
           1495     1.77676e+10 
           1505     1.72944e+10 
           1512       1.711e+10 
           1517     1.69499e+10 
           1525     1.66624e+10 
           1535     1.62061e+10 
           1545     1.58487e+10 
           1555     1.55073e+10 
           1565     1.53593e+10 
           1575     1.50904e+10 
           1585     1.47997e+10 
           1595     1.45256e+10 
           1605     1.41666e+10 
           1615     1.38897e+10 
           1625     1.36833e+10 
           1635     1.34136e+10 
           1645     1.29221e+10 
           1655     1.29563e+10 
           1665     1.27243e+10 
           1672     1.25455e+10 
           1677     1.24648e+10 
           1685     1.22768e+10 
           1695     1.20426e+10 
           1705     1.18132e+10 
           1715     1.15779e+10 
           1725     1.13707e+10 
           1735     1.11959e+10 
           1745     1.09935e+10 
           1755     1.08113e+10 
           1765     1.05634e+10 
           1775     1.04079e+10 
           1785     1.02405e+10 
           1795     1.00844e+10 
           1805      9.91838e+9 
           1815      9.73723e+9 
           1825      9.57765e+9 
           1835      9.41514e+9 
           1845      9.20712e+9 
           1855      8.96623e+9 
           1865      8.85333e+9 
           1875      8.79161e+9 
           1885      8.58704e+9 
           1895        8.378e+9 
           1905      8.34249e+9 
           1915      8.12923e+9 
           1925      7.99945e+9 
           1935      7.91346e+9 
           1945      7.82901e+9 
           1955      7.62916e+9 
           1967      7.55944e+9 
           1976      7.47819e+9 
           1984      7.34756e+9 
           1995      7.17315e+9 
           2005      7.13532e+9 
           2015      7.03962e+9 
           2025      6.94032e+9 
           2035       6.8197e+9 
           2045       6.7156e+9 
           2055       6.5347e+9 
           2065      6.42368e+9 
           2074      6.39143e+9 
           2078      6.29077e+9 
           2085      6.27789e+9 
           2095      6.17699e+9 
           2105      6.13901e+9 
           2115      6.06156e+9 
           2125      5.97862e+9 
           2135      5.88993e+9 
           2145      5.80067e+9 
           2155      5.72068e+9 
           2165      5.63966e+9 
           2175      5.55782e+9 
           2185      5.47928e+9 
           2195      5.40336e+9 
           2205      5.32703e+9 
           2215      5.25163e+9 
           2225      5.17789e+9 
           2235      5.10504e+9 
           2245      5.03567e+9 
           2255      4.96362e+9 
           2265      4.89763e+9 
           2275      4.83043e+9 
           2285      4.76458e+9 
           2295       4.6685e+9 
           2305      4.63397e+9 
           2315      4.57258e+9 
           2325      4.51124e+9 
           2335      4.44974e+9 
           2345      4.39105e+9 
           2355      4.33352e+9 
           2365      4.27594e+9 
           2375      4.21904e+9 
           2385      4.16174e+9 
           2395      4.10893e+9 
           2405      4.05562e+9 
           2415      4.00214e+9 
           2425      3.95133e+9 
           2435      3.89956e+9 
           2445      3.84977e+9 
           2455      3.80072e+9 
           2465      3.75221e+9 
           2475      3.70443e+9 
           2485      3.65741e+9 
           2495      3.56902e+9 
           2505      3.56526e+9 
           2513      3.52171e+9 
           2518      3.50667e+9 
           2525      3.47686e+9 
           2535      3.43359e+9 
           2545      3.38636e+9 
           2555      3.34837e+9 
           2565      3.30759e+9 
           2575      3.26775e+9 
           2585      3.22791e+9 
           2595      3.18859e+9 
           2605      3.17088e+9 
           2615      3.13251e+9 
           2625      3.09464e+9 
           2635      3.05563e+9 
           2645      3.01738e+9 
           2655      2.97775e+9 
           2665      2.93571e+9 
           2675      2.89469e+9 
           2685      2.87939e+9 
           2695      2.82165e+9 
           2705      2.81179e+9 
           2715      2.77875e+9 
           2725      2.72029e+9 
           2735      2.71318e+9 
           2745      2.68194e+9 
           2755      2.65114e+9 
           2765       2.5947e+9 
           2775      2.59071e+9 
           2785      2.56082e+9 
           2795      2.52001e+9 
           2805      2.49949e+9 
           2815       2.4743e+9 
           2825      2.41489e+9 
           2835       2.3992e+9 
           2845      2.39134e+9 
           2855      2.36445e+9 
           2865      2.33797e+9 
           2875      2.31189e+9 
           2885      2.28621e+9 
           2895      2.26082e+9 
           2910      2.22342e+9 
           2930       2.1747e+9 
           2950      2.10787e+9 
           2970      2.08171e+9 
           2990      2.03689e+9 
           3010      1.99344e+9 
           3030      1.95129e+9 
           3050      1.91015e+9 
           3070      1.87012e+9 
           3090       1.8304e+9 
           3110      1.79311e+9 
           3130      1.75792e+9 
           3150      1.72185e+9 
           3170      1.68658e+9 
           3190        1.635e+9 
           3210      1.61812e+9 
           3230      1.58533e+9 
           3250      1.55332e+9 
           3270      1.52444e+9 
           3290      1.49201e+9 
           3310      1.46509e+9 
           3330       1.4365e+9 
           3350      1.40577e+9 
           3370      1.38141e+9 
           3390       1.3549e+9 
           3410      1.32901e+9 
           3430      1.29789e+9 
           3450      1.26839e+9 
           3470      1.24843e+9 
           3490       1.2251e+9 
           3510      1.20384e+9 
           3530      1.18292e+9 
           3550      1.16195e+9 
           3570      1.14891e+9 
           3590      1.11805e+9 
           3610      1.10309e+9 
           3630      1.07828e+9 
           3640       1.0783e+9 
           3650      1.06618e+9 
           3670      1.05196e+9 
           3690      1.03376e+9 
           3710       9.9965e+8 
           3730      9.63966e+8 
           3750      9.54944e+8 
           3770      9.29386e+8 
           3790      9.70431e+8 
           3810      1.01425e+9 
           3830      8.77637e+8 
           3850      1.05006e+9 
           3870      1.07757e+9 
           3890      8.21769e+8 
           3910      1.06113e+9 
           3930      1.06351e+9 
           3950      1.02908e+9 
           3970       7.6379e+8 
           3990      9.81525e+8 
           4010      9.92165e+8 
           4030      9.19364e+8 
           4050      9.74111e+8 
           4070      9.49505e+8 
           4090      8.41263e+8 
           4110      7.25041e+8 
           4130      8.84945e+8 
           4150      8.83239e+8 
           4170      8.79141e+8 
           4190      8.67722e+8 
           4210      8.53227e+8 
           4230      8.38713e+8 
           4250      8.24393e+8 
           4270      8.09023e+8 
           4290      7.93473e+8 
           4310      7.71687e+8 
           4330      6.72466e+8 
           4350      6.09895e+8 
           4370      7.30145e+8 
           4390      7.01438e+8 
           4410      7.19304e+8 
           4430      7.05951e+8 
           4450      6.97204e+8 
           4470      6.42561e+8 
           4490      6.74036e+8 
           4510       6.6533e+8 
           4530      6.54768e+8 
           4550      6.44293e+8 
           4570      6.34103e+8 
           4590      6.24172e+8 
           4610      6.14478e+8 
           4630       6.0491e+8 
           4650      5.95084e+8 
           4670      5.86249e+8 
           4690      5.76858e+8 
           4710      5.59471e+8 
           4730      5.59717e+8 
           4750      5.51139e+8 
           4770      5.42918e+8 
           4790      5.33829e+8 
           4810      5.24074e+8 
           4830      5.10571e+8 
           4850      4.55727e+8 
           4870       4.0402e+8 
           4890       4.8427e+8 
           4910      4.84349e+8 
           4930      4.63687e+8 
           4950      4.74093e+8 
           4970      4.67524e+8 
           4990      4.60728e+8 
           5010      4.46955e+8 
           5030      4.47414e+8 
           5050      4.37864e+8 
           5070      4.34754e+8 
           5090      4.28538e+8 
           5110      4.22448e+8 
           5130       4.1647e+8 
           5150      4.10585e+8 
           5170      4.04807e+8 
           5190      3.99134e+8 
           5210      3.93549e+8 
           5230      3.88093e+8 
           5250      3.82709e+8 
           5270      3.77423e+8 
           5290      3.72232e+8 
           5310      3.67121e+8 
           5330      3.62104e+8 
           5350      3.57164e+8 
           5370      3.52327e+8 
           5390      3.47552e+8 
           5410      3.42876e+8 
           5430      3.38259e+8 
           5450      3.33739e+8 
           5470      3.29288e+8 
           5490      3.24906e+8 
           5510      3.20604e+8 
           5530      3.16367e+8 
           5550      3.12208e+8 
           5570      3.08112e+8 
           5590      3.04078e+8 
           5610      3.00119e+8 
           5630      2.96219e+8 
           5650      2.92379e+8 
           5670      2.88609e+8 
           5690      2.84885e+8 
           5710      2.81252e+8 
           5730      2.77651e+8 
           5750      2.74105e+8 
           5770      2.70635e+8 
           5790      2.67218e+8 
           5810      2.63842e+8 
           5830      2.60527e+8 
           5850      2.57252e+8 
           5870      2.44032e+8 
           5890      2.50034e+8 
           5910      2.47762e+8 
           5930      2.44701e+8 
           5950      2.41675e+8 
           5970      2.38706e+8 
           5990      2.35781e+8 
           6010        2.329e+8 
           6030      2.30062e+8 
           6050      2.27268e+8 
           6070      2.24525e+8 
           6090      2.21813e+8 
           6110      2.19143e+8 
           6130      2.16522e+8 
           6150      2.13931e+8 
           6170      2.11378e+8 
           6190      2.08864e+8 
           6210      2.06398e+8 
           6230      2.03958e+8 
           6250      2.01556e+8 
           6270      1.99189e+8 
           6290      1.96858e+8 
           6310      1.94562e+8 
           6330        1.923e+8 
           6350      1.90053e+8 
           6370      1.87859e+8 
           6390      1.85698e+8 
           6410       1.8356e+8 
           6430      1.81463e+8 
           6450      1.79388e+8 
           6470      1.77336e+8 
           6490      1.75216e+8 
           6510      1.72728e+8 
           6530      1.69604e+8 
           6550      1.58937e+8 
           6570      1.39896e+8 
           6590      1.62227e+8 
           6610      1.62937e+8 
           6630      1.61647e+8 
           6650      1.60276e+8 
           6670      1.56217e+8 
           6690      1.54568e+8 
           6710      1.55037e+8 
           6730      1.53327e+8 
           6750      1.51651e+8 
           6770      1.49992e+8 
           6790      1.48358e+8 
           6810      1.46748e+8 
           6830      1.45155e+8 
           6850      1.43586e+8 
           6870      1.42041e+8 
           6890      1.40511e+8 
           6910      1.39005e+8 
           6930      1.37521e+8 
           6950      1.36052e+8 
           6970      1.34606e+8 
           6990      1.33174e+8 
           7010      1.31771e+8 
           7030      1.30382e+8 
           7050      1.29006e+8 
           7070      1.25263e+8 
           7090      1.26318e+8 
           7110      1.24997e+8 
           7130      1.23697e+8 
           7150      1.22416e+8 
           7170      1.21133e+8 
           7190      1.19899e+8 
           7210      1.18663e+8 
           7230      1.17409e+8 
           7250      1.16239e+8 
           7270      1.15051e+8 
           7290      1.12805e+8 
           7310      1.12703e+8 
           7330      1.11577e+8 
           7350      1.10447e+8 
           7370      1.09335e+8 
           7390      1.08234e+8 
           7410       1.0715e+8 
           7430      1.06075e+8 
           7450      1.05032e+8 
           7470      1.03984e+8 
           7490      1.02952e+8 
           7510      1.01897e+8 
           7530      1.00925e+8 
           7550      9.99281e+7 
           7570      9.89471e+7 
           7590      9.79751e+7 
           7610       9.7012e+7 
           7630       9.6064e+7 
           7650      9.51311e+7 
           7670      9.42065e+7 
           7690      9.32903e+7 
           7710      9.23887e+7 
           7730      9.15014e+7 
           7750      9.06158e+7 
           7770      8.97443e+7 
           7790      8.88867e+7 
           7810      8.79874e+7 
           7830      8.72005e+7 
           7850      8.64633e+7 
           7870      8.56351e+7 
           7890      8.47779e+7 
           7910      8.40306e+7 
           7930      8.32418e+7 
           7950       8.2454e+7 
           7970      8.15425e+7 
           7990      8.07807e+7 
           8010      7.99785e+7 
           8030      7.92242e+7 
           8050      7.84823e+7 
           8070      7.77582e+7 
           8090      7.69656e+7 
           8110      7.63057e+7 
           8130      7.56743e+7 
           8150       7.4929e+7 
           8170       7.4303e+7 
           8190       7.3553e+7 
           8210      7.28262e+7 
           8230      7.23392e+7 
           8250      7.17011e+7 
           8270      7.07377e+7 
           8290      7.03859e+7 
           8310      6.97911e+7 
           8330      6.91197e+7 
           8350       6.8173e+7 
           8370      6.77992e+7 
           8390      6.72998e+7 
           8410      6.67031e+7 
           8430      6.60636e+7 
           8450      6.50231e+7 
           8470      6.49107e+7 
           8490      6.41819e+7 
           8510      6.37297e+7 
           8530       6.3017e+7 
           8550      6.23721e+7 
           8570      6.22301e+7 
