# Kurucz ODFNEW /NOVER (2003)
# teff = 34000 K (value for the effective temperature for the model. Temperatures are given in K)
# logg = 5 log(cm/s2) (value for Log(G) for the model.)
# meta = -0.5  (value for the Metallicity for the model.)
# lh = 1.25  (l/Hp where l is the  mixing length of the convective element and Hp is the pressure scale height)
# vtur = 2 km/s (Microturbulence velocity)
# alpha = 0.4  (Alpha)
#
# column 1: WAVELENGTH (ANGSTROM), Wavelength in Angstrom
# column 2: FLUX (ERG/CM2/S/A), Flux in erg/cm2/s/A
          147.2      3.63553e-5 
            151      9.33257e-5 
          155.2     0.000251231 
          158.8     0.000564166 
            162      0.00112537 
            166      0.00257542 
          170.3       0.0060058 
          173.4        0.010807 
          176.8       0.0201259 
          180.2       0.0365777 
          181.7       0.0473849 
          186.1       0.0983996 
            191        0.213753 
          193.9        0.332148 
          198.4        0.642743 
          201.8         1.03722 
            205         1.60445 
          210.5         3.29592 
          216.2         6.67036 
          219.8         10.2604 
            223         14.8415 
          226.8         22.7349 
            230         9361.98 
            234         24752.7 
            240         39389.8 
          246.5         64846.4 
          252.4          103517 
          256.8          129621 
            260          196234 
            264          260223 
          268.5          372809 
          273.5          506807 
          278.5          637789 
            284      1.18111e+6 
            290       1.6418e+6 
            296      2.13024e+6 
            301      2.68332e+6 
            308      4.90808e+6 
            318       9.7498e+6 
            328      1.36336e+7 
            338      2.16935e+7 
            348      3.12479e+7 
            357      5.44806e+7 
            366      9.01776e+7 
            375      1.07266e+8 
            385      1.45985e+8 
            395      2.09752e+8 
            405      2.51796e+8 
            414       3.1537e+8 
            422      3.46004e+8 
            430      3.93763e+8 
            441      4.75171e+8 
            451      5.53941e+8 
            460       6.0453e+8 
            470      7.01239e+8 
            480      8.00403e+8 
            490      8.84475e+8 
            500      1.03693e+9 
            506      2.10865e+9 
            512      1.2073e+10 
            520     1.12652e+10 
            530     1.06482e+10 
            540      9.72236e+9 
            550     1.10775e+10 
            560     1.27735e+10 
            570     1.31362e+10 
            580      1.2106e+10 
            590     1.29025e+10 
            600      1.1372e+10 
            610     1.26758e+10 
            620     1.40323e+10 
            630     1.38286e+10 
            640     1.35415e+10 
            650      1.3754e+10 
            658     1.24757e+10 
            665     1.34983e+10 
            675     1.40315e+10 
            685     1.25522e+10 
            695     1.44468e+10 
            705     1.27513e+10 
            716     1.49492e+10 
            726     1.46396e+10 
            735     1.47798e+10 
            745     1.45581e+10 
            755     1.44618e+10 
            765     1.47248e+10 
            775     1.48841e+10 
            785     1.51988e+10 
            795     1.50871e+10 
            805     1.47855e+10 
            815     1.48066e+10 
            825      1.5238e+10 
            835     1.34979e+10 
            845     1.49278e+10 
            855     1.48599e+10 
            865     1.51311e+10 
            875     1.51469e+10 
            885     1.52481e+10 
            895     1.53236e+10 
            905     1.49988e+10 
            915     1.48442e+10 
            925     3.66125e+10 
            935     5.97613e+10 
            945     9.55676e+10 
            955     1.09926e+11 
            965     1.36306e+11 
            975     6.48222e+10 
            985     1.26206e+11 
            995     1.12297e+11 
           1005     1.17018e+11 
           1015     1.16998e+11 
           1025     7.23751e+10 
           1035     1.10227e+11 
           1045     1.23773e+11 
           1055     1.19437e+11 
           1065      1.0446e+11 
           1075     1.07709e+11 
           1085     9.78221e+10 
           1095     1.05982e+11 
           1105     1.00542e+11 
           1115     9.82471e+10 
           1125     8.29735e+10 
           1135     9.40957e+10 
           1145     8.78731e+10 
           1155     8.54346e+10 
           1165     8.39187e+10 
           1175     6.41514e+10 
           1185     7.72708e+10 
           1195     7.44239e+10 
           1205      6.9206e+10 
           1215     4.54558e+10 
           1225     6.73312e+10 
           1235     7.14075e+10 
           1245     6.91907e+10 
           1255     6.86928e+10 
           1265     6.85975e+10 
           1275     6.82533e+10 
           1285     6.73549e+10 
           1295     6.19179e+10 
           1305     6.21605e+10 
           1315     6.36718e+10 
           1325     6.10878e+10 
           1335     5.94088e+10 
           1345     5.82517e+10 
           1355     5.76987e+10 
           1365     5.50731e+10 
           1375     5.41016e+10 
           1385     5.25926e+10 
           1395     4.33466e+10 
           1405     4.41497e+10 
           1415     4.91387e+10 
           1425      4.5496e+10 
           1435     4.68162e+10 
           1442     4.68085e+10 
           1447     4.61797e+10 
           1455     4.45575e+10 
           1465     4.36371e+10 
           1475     4.28604e+10 
           1485     4.25721e+10 
           1495     4.12746e+10 
           1505      3.9863e+10 
           1512      3.9447e+10 
           1517     3.91448e+10 
           1525      3.8199e+10 
           1535     3.46155e+10 
           1545     3.19025e+10 
           1555     3.14312e+10 
           1565     3.26028e+10 
           1575     3.32334e+10 
           1585     3.30254e+10 
           1595     3.27888e+10 
           1605     3.10302e+10 
           1615     2.98151e+10 
           1625     2.99458e+10 
           1635     2.97243e+10 
           1645      2.8867e+10 
           1655     2.95907e+10 
           1665     2.88599e+10 
           1672     2.75878e+10 
           1677     2.97102e+10 
           1685     2.87918e+10 
           1695     2.79916e+10 
           1705     2.72896e+10 
           1715     2.65112e+10 
           1725     2.55426e+10 
           1735     2.60925e+10 
           1745     2.56854e+10 
           1755     2.51404e+10 
           1765     2.46507e+10 
           1775     2.41155e+10 
           1785     2.39737e+10 
           1795     2.35413e+10 
           1805     2.33552e+10 
           1815     2.27383e+10 
           1825      2.2371e+10 
           1835     2.21693e+10 
           1845     2.11206e+10 
           1855     2.09023e+10 
           1865     2.07924e+10 
           1875     2.04169e+10 
           1885     1.96209e+10 
           1895     1.91553e+10 
           1905      1.9399e+10 
           1915     1.87747e+10 
           1925     1.79549e+10 
           1935     1.83987e+10 
           1945     1.84081e+10 
           1955     1.73214e+10 
           1967     1.75702e+10 
           1976     1.76981e+10 
           1984     1.71087e+10 
           1995     1.66337e+10 
           2005     1.67409e+10 
           2015     1.66021e+10 
           2025       1.641e+10 
           2035     1.59362e+10 
           2045     1.56898e+10 
           2055     1.33045e+10 
           2065     1.28571e+10 
           2074     1.29945e+10 
           2078     1.28389e+10 
           2085     1.30882e+10 
           2095     1.34666e+10 
           2105     1.41594e+10 
           2115     1.42414e+10 
           2125     1.39442e+10 
           2135     1.38097e+10 
           2145     1.35699e+10 
           2155     1.34613e+10 
           2165     1.30326e+10 
           2175     1.30898e+10 
           2185     1.27217e+10 
           2195     1.27679e+10 
           2205     1.25834e+10 
           2215     1.21422e+10 
           2225     1.21878e+10 
           2235     1.20058e+10 
           2245     1.18266e+10 
           2255     1.14159e+10 
           2265     1.14872e+10 
           2275     1.13274e+10 
           2285     1.10698e+10 
           2295     1.04886e+10 
           2305     1.05765e+10 
           2315     1.05992e+10 
           2325     1.04866e+10 
           2335     1.03306e+10 
           2345     1.02023e+10 
           2355     1.00438e+10 
           2365      9.89708e+9 
           2375      9.72776e+9 
           2385      9.35958e+9 
           2395      9.38536e+9 
           2405      9.33157e+9 
           2415      9.17629e+9 
           2425      9.07194e+9 
           2435      8.90926e+9 
           2445      8.80817e+9 
           2455      8.67593e+9 
           2465      8.57778e+9 
           2475      8.45141e+9 
           2485      8.30056e+9 
           2495      7.08491e+9 
           2505      8.00044e+9 
           2513      7.63162e+9 
           2518      7.75167e+9 
           2525      7.88543e+9 
           2535       7.7952e+9 
           2545      7.62181e+9 
           2555      7.54379e+9 
           2565      7.45531e+9 
           2575      7.37309e+9 
           2585      7.28176e+9 
           2595      7.16869e+9 
           2605      7.10987e+9 
           2615       7.0016e+9 
           2625      6.92102e+9 
           2635      6.82898e+9 
           2645      6.73383e+9 
           2655      6.64365e+9 
           2665      6.52546e+9 
           2675       6.4199e+9 
           2685      6.38784e+9 
           2695      6.25857e+9 
           2705      6.20775e+9 
           2715      6.12837e+9 
           2725      6.01955e+9 
           2735      5.88546e+9 
           2745      5.90866e+9 
           2755      5.83358e+9 
           2765      5.72444e+9 
           2775      5.70283e+9 
           2785      5.61726e+9 
           2795      5.45706e+9 
           2805      5.45701e+9 
           2815      5.42116e+9 
           2825      5.31959e+9 
           2835      5.23947e+9 
           2845      5.22784e+9 
           2855      5.14968e+9 
           2865      5.08442e+9 
           2875      5.02222e+9 
           2885      4.96665e+9 
           2895      4.90273e+9 
           2910      4.79759e+9 
           2930      4.70424e+9 
           2950      4.56058e+9 
           2970      4.47886e+9 
           2990      4.36226e+9 
           3010      4.24544e+9 
           3030      4.14321e+9 
           3050      4.06677e+9 
           3070      3.99038e+9 
           3090        3.864e+9 
           3110      3.80679e+9 
           3130      3.71046e+9 
           3150      3.63183e+9 
           3170      3.55072e+9 
           3190      3.45869e+9 
           3210      3.38231e+9 
           3230       3.3226e+9 
           3250       3.2594e+9 
           3270      3.17681e+9 
           3290      3.11498e+9 
           3310      3.05039e+9 
           3330      2.97887e+9 
           3350      2.91346e+9 
           3370      2.85567e+9 
           3390      2.80588e+9 
           3410      2.74652e+9 
           3430      2.68798e+9 
           3450      2.62161e+9 
           3470      2.57368e+9 
           3490      2.52131e+9 
           3510      2.47318e+9 
           3530      2.42828e+9 
           3550      2.37813e+9 
           3570      2.33979e+9 
           3590      2.27769e+9 
           3610       2.2431e+9 
           3630      2.19041e+9 
           3640      2.17756e+9 
           3650      2.10722e+9 
           3670      2.07495e+9 
           3690      2.03664e+9 
           3710      1.97043e+9 
           3730      1.93059e+9 
           3750      1.89668e+9 
           3770      1.83534e+9 
           3790      1.86724e+9 
           3810      1.90917e+9 
           3830      1.71724e+9 
           3850      1.91746e+9 
           3870      1.90896e+9 
           3890      1.60418e+9 
           3910      1.88548e+9 
           3930        1.858e+9 
           3950      1.80224e+9 
           3970      1.48104e+9 
           3990      1.74449e+9 
           4010      1.73437e+9 
           4030      1.64703e+9 
           4050      1.69066e+9 
           4070      1.62514e+9 
           4090      1.50081e+9 
           4110      1.35668e+9 
           4130      1.54125e+9 
           4150      1.52862e+9 
           4170      1.51993e+9 
           4190      1.48833e+9 
           4210      1.46419e+9 
           4230      1.44412e+9 
           4250      1.40845e+9 
           4270       1.3775e+9 
           4290      1.35394e+9 
           4310      1.31865e+9 
           4330       1.2086e+9 
           4350      1.11887e+9 
           4370      1.25517e+9 
           4390      1.22198e+9 
           4410      1.22322e+9 
           4430      1.21032e+9 
           4450      1.18919e+9 
           4470      1.12712e+9 
           4490      1.14975e+9 
           4510      1.13426e+9 
           4530      1.11747e+9 
           4550      1.09229e+9 
           4570      1.08019e+9 
           4590      1.06021e+9 
           4610      1.04139e+9 
           4630      1.02162e+9 
           4650      9.84871e+8 
           4670      9.90774e+8 
           4690      9.66568e+8 
           4710      9.47593e+8 
           4730      9.51973e+8 
           4750      9.35758e+8 
           4770      9.23805e+8 
           4790      9.09161e+8 
           4810      8.91651e+8 
           4830      8.70717e+8 
           4850      8.08569e+8 
           4870      7.35814e+8 
           4890      8.29772e+8 
           4910      8.22885e+8 
           4930      7.95436e+8 
           4950      7.99062e+8 
           4970      7.91423e+8 
           4990      7.79388e+8 
           5010      7.56713e+8 
           5030      7.54593e+8 
           5050      7.41227e+8 
           5070      7.34116e+8 
           5090      7.22774e+8 
           5110      7.12121e+8 
           5130      7.01512e+8 
           5150       6.9133e+8 
           5170      6.80932e+8 
           5190       6.7168e+8 
           5210      6.62119e+8 
           5230      6.52726e+8 
           5250      6.43047e+8 
           5270      6.33699e+8 
           5290      6.25174e+8 
           5310      6.16265e+8 
           5330      6.07591e+8 
           5350      5.99003e+8 
           5370      5.90695e+8 
           5390      5.82144e+8 
           5410      5.70756e+8 
           5430      5.66316e+8 
           5450      5.58375e+8 
           5470      5.50673e+8 
           5490      5.43169e+8 
           5510      5.35758e+8 
           5530      5.28428e+8 
           5550      5.21337e+8 
           5570      5.14248e+8 
           5590      5.06874e+8 
           5610      5.00501e+8 
           5630      4.93825e+8 
           5650      4.87114e+8 
           5670      4.80285e+8 
           5690      4.71608e+8 
           5710      4.63781e+8 
           5730      4.57979e+8 
           5750       4.5138e+8 
           5770      4.46276e+8 
           5790      4.40423e+8 
           5810      4.34684e+8 
           5830      4.28803e+8 
           5850      4.23641e+8 
           5870      4.07213e+8 
           5890      4.11858e+8 
           5910       4.0791e+8 
           5930      4.03053e+8 
           5950      3.98188e+8 
           5970      3.93748e+8 
           5990      3.88887e+8 
           6010      3.84572e+8 
           6030      3.80129e+8 
           6050      3.75551e+8 
           6070      3.70974e+8 
           6090      3.66368e+8 
           6110      3.61813e+8 
           6130      3.57371e+8 
           6150       3.5271e+8 
           6170      3.48418e+8 
           6190      3.44341e+8 
           6210      3.40154e+8 
           6230      3.36003e+8 
           6250       3.3185e+8 
           6270      3.27896e+8 
           6290      3.23948e+8 
           6310      3.19977e+8 
           6330      3.16209e+8 
           6350      3.12343e+8 
           6370      3.08713e+8 
           6390      3.05022e+8 
           6410      3.01397e+8 
           6430      2.97867e+8 
           6450      2.94338e+8 
           6470      2.90623e+8 
           6490      2.87251e+8 
           6510      2.83524e+8 
           6530      2.78928e+8 
           6550      2.66935e+8 
           6570      2.40805e+8 
           6590      2.67747e+8 
           6610      2.67233e+8 
           6630       2.6492e+8 
           6650      2.61839e+8 
           6670      2.56155e+8 
           6690      2.53313e+8 
           6710      2.52876e+8 
           6730      2.49945e+8 
           6750      2.47416e+8 
           6770      2.44698e+8 
           6790       2.4169e+8 
           6810      2.39225e+8 
           6830      2.36477e+8 
           6850      2.33926e+8 
           6870      2.31321e+8 
           6890      2.28496e+8 
           6910      2.25897e+8 
           6930      2.23787e+8 
           6950      2.21331e+8 
           6970      2.18915e+8 
           6990      2.16523e+8 
           7010      2.14116e+8 
           7030      2.11733e+8 
           7050      2.09465e+8 
           7070       2.0449e+8 
           7090      2.05047e+8 
           7110      2.02785e+8 
           7130      2.00648e+8 
           7150       1.9854e+8 
           7170       1.9632e+8 
           7190      1.94296e+8 
           7210      1.92278e+8 
           7230      1.89579e+8 
           7250      1.88069e+8 
           7270      1.86259e+8 
           7290      1.83062e+8 
           7310      1.82365e+8 
           7330      1.80466e+8 
           7350      1.78586e+8 
           7370      1.76744e+8 
           7390       1.7492e+8 
           7410      1.73112e+8 
           7430      1.71328e+8 
           7450      1.69568e+8 
           7470      1.67588e+8 
           7490      1.66023e+8 
           7510      1.64398e+8 
           7530      1.62729e+8 
           7550      1.61114e+8 
           7570      1.59488e+8 
           7590       1.5772e+8 
           7610      1.56157e+8 
           7630      1.54712e+8 
           7650      1.53144e+8 
           7670      1.51642e+8 
           7690      1.50058e+8 
           7710      1.48622e+8 
           7730      1.47028e+8 
           7750      1.45705e+8 
           7770      1.44264e+8 
           7790      1.42859e+8 
           7810      1.41412e+8 
           7830       1.4007e+8 
           7850      1.38783e+8 
           7870      1.37294e+8 
           7890      1.35939e+8 
           7910      1.34771e+8 
           7930      1.33451e+8 
           7950       1.3219e+8 
           7970      1.30851e+8 
           7990       1.2963e+8 
           8010      1.28397e+8 
           8030      1.27162e+8 
           8050      1.25967e+8 
           8070      1.24759e+8 
           8090       1.2347e+8 
           8110      1.21956e+8 
           8130       1.2122e+8 
           8150      1.19996e+8 
           8170      1.18947e+8 
           8190       1.1749e+8 
           8210      1.16058e+8 
           8230       1.1495e+8 
           8250      1.14077e+8 
           8270      1.12573e+8 
           8290      1.11987e+8 
           8310      1.11029e+8 
           8330      1.09931e+8 
           8350      1.08617e+8 
           8370      1.07835e+8 
           8390         1.07e+8 
           8410      1.05996e+8 
           8430      1.05033e+8 
           8450      1.03639e+8 
           8470      1.03156e+8 
           8490      1.02095e+8 
           8510      1.01179e+8 
           8530      1.00192e+8 
           8550      9.93068e+7 
           8570      9.86746e+7 
