# Kurucz ODFNEW /NOVER (2003)
# teff = 22000 K (value for the effective temperature for the model. Temperatures are given in K)
# logg = 4.5 log(cm/s2) (value for Log(G) for the model.)
# meta = 0.5  (value for the Metallicity for the model.)
# lh = 1.25  (l/Hp where l is the  mixing length of the convective element and Hp is the pressure scale height)
# vtur = 2 km/s (Microturbulence velocity)
# alpha = 0  (Alpha)
#
# column 1: WAVELENGTH (ANGSTROM), Wavelength in Angstrom
# column 2: FLUX (ERG/CM2/S/A), Flux in erg/cm2/s/A
          147.2     9.06692e-17 
            151     4.36359e-16 
          155.2     2.27113e-15 
          158.8       8.729e-15 
            162     2.75441e-14 
            166     1.09069e-13 
          170.3     4.44911e-13 
          173.4     1.18354e-12 
          176.8     3.31868e-12 
          180.2     8.96518e-12 
          181.7     1.37319e-11 
          186.1     4.63205e-11 
            191     1.68677e-10 
          193.9     3.51988e-10 
          198.4      1.05805e-9 
          201.8      2.35585e-9 
            205      4.89269e-9 
          210.5      1.63572e-8 
          216.2       5.3746e-8 
          219.8      1.10566e-7 
            223       2.0605e-7 
          226.8        4.224e-7 
            230      6.98132e-6 
            234      1.67587e-5 
            240      4.46967e-5 
          246.5      0.00012198 
          252.4     0.000293125 
          256.8     0.000532901 
            260     0.000865475 
            264      0.00147073 
          268.5      0.00262203 
          273.5      0.00485201 
          278.5      0.00887834 
            284       0.0172741 
            290       0.0334196 
            296       0.0630305 
            301        0.104622 
            308         0.21112 
            318        0.545811 
            328         1.27151 
            338         2.94771 
            348         6.34477 
            357         15.4881 
            366          29.462 
            375         51.0637 
            385          93.526 
            395         168.748 
            405         288.131 
            414         462.043 
            422          681.22 
            430         1010.77 
            441         1666.66 
            451         2551.34 
            460         3662.25 
            470         5478.52 
            480         7972.14 
            490         11515.9 
            500         16285.3 
            506         85031.8 
            512       1.1034e+6 
            520      1.33106e+6 
            530      1.72271e+6 
            540      1.96168e+6 
            550      2.89839e+6 
            560      3.43345e+6 
            570      4.36746e+6 
            580      4.36531e+6 
            590      5.91836e+6 
            600      6.99095e+6 
            610      8.54187e+6 
            620      9.41765e+6 
            630      1.02825e+7 
            640       9.5608e+6 
            650      6.59861e+6 
            658      1.12506e+7 
            665      1.46747e+7 
            675      1.69089e+7 
            685      1.81635e+7 
            695      2.35011e+7 
            705      2.49796e+7 
            716      2.85456e+7 
            726      3.06672e+7 
            735       3.2561e+7 
            745      3.75423e+7 
            755      4.11694e+7 
            765      4.52938e+7 
            775      4.96082e+7 
            785      5.38502e+7 
            795       5.6751e+7 
            805      6.02221e+7 
            815      6.38068e+7 
            825      7.02453e+7 
            835      6.66331e+7 
            845      7.56545e+7 
            855      7.93269e+7 
            865      8.59823e+7 
            875      9.28212e+7 
            885      1.01875e+8 
            895      1.08091e+8 
            905      1.06323e+8 
            915      1.56496e+8 
            925      8.15739e+8 
            935      1.95707e+9 
            945      4.64212e+9 
            955      7.65789e+9 
            965      9.38521e+9 
            975      1.47315e+9 
            985      8.47406e+9 
            995      9.06411e+9 
           1005     1.20166e+10 
           1015      1.1777e+10 
           1025      4.18208e+9 
           1035      7.88609e+9 
           1045     1.62387e+10 
           1055     1.52648e+10 
           1065     1.10412e+10 
           1075     1.41394e+10 
           1085     1.22601e+10 
           1095     1.46714e+10 
           1105     1.25713e+10 
           1115     1.13547e+10 
           1125      9.49723e+9 
           1135     1.36909e+10 
           1145     1.16195e+10 
           1155      1.2616e+10 
           1165     1.26901e+10 
           1175      7.36445e+9 
           1185      1.2667e+10 
           1195       9.8961e+9 
           1205      5.08031e+9 
           1215      3.93847e+9 
           1225      8.85799e+9 
           1235     1.27207e+10 
           1245      1.2673e+10 
           1255     1.23503e+10 
           1265     1.21789e+10 
           1275     1.27448e+10 
           1285      1.3087e+10 
           1295      7.40531e+9 
           1305      7.52231e+9 
           1315     1.24132e+10 
           1325     1.12796e+10 
           1335     1.03247e+10 
           1345     1.15735e+10 
           1355     1.12231e+10 
           1365      9.58734e+9 
           1375      9.51236e+9 
           1385      9.45562e+9 
           1395      7.06562e+9 
           1405      7.67362e+9 
           1415      8.07601e+9 
           1425      8.32817e+9 
           1435      8.55132e+9 
           1442      8.93774e+9 
           1447      8.77478e+9 
           1455      8.49526e+9 
           1465      7.62911e+9 
           1475      7.87632e+9 
           1485      7.73318e+9 
           1495       7.6385e+9 
           1505      6.71536e+9 
           1512      5.91359e+9 
           1517      6.22532e+9 
           1525      6.54831e+9 
           1535      5.50139e+9 
           1545      5.44555e+9 
           1555       5.3142e+9 
           1565      5.66627e+9 
           1575      6.07141e+9 
           1585      6.19823e+9 
           1595      6.11883e+9 
           1605      6.31952e+9 
           1615      6.28396e+9 
           1625      6.02011e+9 
           1635      6.52266e+9 
           1645      6.49414e+9 
           1655      6.21316e+9 
           1665      6.65542e+9 
           1672      6.32329e+9 
           1677      6.69889e+9 
           1685      6.71876e+9 
           1695      6.24909e+9 
           1705       6.0017e+9 
           1715      5.59044e+9 
           1725        5.511e+9 
           1735      5.89444e+9 
           1745      5.64582e+9 
           1755      5.80134e+9 
           1765      5.52428e+9 
           1775      5.27197e+9 
           1785      5.42518e+9 
           1795      5.75975e+9 
           1805      5.84354e+9 
           1815      5.00625e+9 
           1825      5.33532e+9 
           1835      5.04227e+9 
           1845      4.54839e+9 
           1855      4.45536e+9 
           1865      4.55772e+9 
           1875      5.06164e+9 
           1885       4.3926e+9 
           1895      4.07297e+9 
           1905      4.54304e+9 
           1915      4.11634e+9 
           1925       3.9522e+9 
           1935      4.24781e+9 
           1945      4.31628e+9 
           1955      3.87461e+9 
           1967      4.33857e+9 
           1976      4.51806e+9 
           1984      4.13514e+9 
           1995      4.04963e+9 
           2005      4.29338e+9 
           2015      4.10594e+9 
           2025       4.3694e+9 
           2035      3.91173e+9 
           2045      4.05536e+9 
           2055      3.90028e+9 
           2065       3.8959e+9 
           2074      4.13831e+9 
           2078      3.65502e+9 
           2085      3.93661e+9 
           2095      3.66702e+9 
           2105      3.80927e+9 
           2115      3.83465e+9 
           2125      3.87214e+9 
           2135      3.75281e+9 
           2145      3.58165e+9 
           2155        3.765e+9 
           2165      3.74316e+9 
           2175      3.70118e+9 
           2185       3.5281e+9 
           2195      3.62786e+9 
           2205      3.58495e+9 
           2215      3.48923e+9 
           2225      3.36464e+9 
           2235      3.39901e+9 
           2245      3.41066e+9 
           2255      3.24193e+9 
           2265       3.3512e+9 
           2275      3.31344e+9 
           2285      3.33594e+9 
           2295      3.06789e+9 
           2305      3.17726e+9 
           2315      3.04358e+9 
           2325      2.99739e+9 
           2335      2.85437e+9 
           2345      2.86872e+9 
           2355      2.88279e+9 
           2365      2.81993e+9 
           2375      2.79697e+9 
           2385      2.74734e+9 
           2395      2.79255e+9 
           2405      2.67148e+9 
           2415       2.7056e+9 
           2425      2.71524e+9 
           2435      2.59609e+9 
           2445      2.64901e+9 
           2455      2.64978e+9 
           2465       2.5879e+9 
           2475      2.53487e+9 
           2485      2.54757e+9 
           2495      2.34546e+9 
           2505      2.49271e+9 
           2513      2.33477e+9 
           2518      2.46264e+9 
           2525      2.37609e+9 
           2535      2.35058e+9 
           2545      2.25519e+9 
           2555      2.32968e+9 
           2565      2.29758e+9 
           2575      2.33437e+9 
           2585      2.31707e+9 
           2595      2.29729e+9 
           2605      2.26348e+9 
           2615      2.24041e+9 
           2625      2.22327e+9 
           2635      2.21635e+9 
           2645      2.21352e+9 
           2655      2.21377e+9 
           2665       2.1008e+9 
           2675      2.13772e+9 
           2685         2.12e+9 
           2695      2.04319e+9 
           2705      2.01025e+9 
           2715      2.00175e+9 
           2725      1.99216e+9 
           2735      2.00356e+9 
           2745      1.90944e+9 
           2755      1.91228e+9 
           2765      1.90458e+9 
           2775       1.9377e+9 
           2785      1.90686e+9 
           2795      1.81921e+9 
           2805      1.85386e+9 
           2815      1.86396e+9 
           2825       1.8345e+9 
           2835      1.73716e+9 
           2845      1.75997e+9 
           2855       1.7473e+9 
           2865      1.76748e+9 
           2875      1.74121e+9 
           2885      1.72187e+9 
           2895      1.69935e+9 
           2910      1.67618e+9 
           2930      1.64749e+9 
           2950      1.59609e+9 
           2970      1.58056e+9 
           2990      1.54268e+9 
           3010      1.50054e+9 
           3030      1.49984e+9 
           3050      1.46885e+9 
           3070      1.44418e+9 
           3090      1.39591e+9 
           3110      1.38269e+9 
           3130      1.35496e+9 
           3150      1.33208e+9 
           3170      1.29467e+9 
           3190      1.26445e+9 
           3210      1.25416e+9 
           3230       1.2291e+9 
           3250      1.21024e+9 
           3270      1.18594e+9 
           3290      1.16296e+9 
           3310      1.14397e+9 
           3330      1.11984e+9 
           3350      1.09902e+9 
           3370      1.07845e+9 
           3390      1.06206e+9 
           3410      1.04335e+9 
           3430      1.01876e+9 
           3450       9.9711e+8 
           3470      9.80925e+8 
           3490      9.62291e+8 
           3510      9.46525e+8 
           3530      9.34228e+8 
           3550      9.18171e+8 
           3570      9.07468e+8 
           3590      8.77742e+8 
           3610      8.64661e+8 
           3630      8.53702e+8 
           3640      8.54448e+8 
           3650      8.41996e+8 
           3670      8.33292e+8 
           3690      8.18196e+8 
           3710      7.85833e+8 
           3730      7.51813e+8 
           3750      7.75346e+8 
           3770      7.69129e+8 
           3790      8.17658e+8 
           3810      8.57653e+8 
           3830      7.37438e+8 
           3850      8.80209e+8 
           3870      8.88843e+8 
           3890      6.93429e+8 
           3910      8.91967e+8 
           3930      8.64276e+8 
           3950      8.56632e+8 
           3970      6.45208e+8 
           3990       8.2021e+8 
           4010       8.2723e+8 
           4030      7.67984e+8 
           4050      8.03414e+8 
           4070      7.63152e+8 
           4090      7.00778e+8 
           4110      6.10297e+8 
           4130      7.25148e+8 
           4150      7.24038e+8 
           4170      7.23154e+8 
           4190      7.18262e+8 
           4210      7.12496e+8 
           4230      6.96068e+8 
           4250      6.77081e+8 
           4270      6.53066e+8 
           4290      6.52129e+8 
           4310      6.30029e+8 
           4330      5.61832e+8 
           4350      5.10907e+8 
           4370      5.95053e+8 
           4390      5.87825e+8 
           4410      5.92521e+8 
           4430      5.85167e+8 
           4450      5.80204e+8 
           4470      5.43254e+8 
           4490      5.58289e+8 
           4510       5.5859e+8 
           4530      5.46784e+8 
           4550      5.40769e+8 
           4570      5.32132e+8 
           4590      5.23571e+8 
           4610      5.10281e+8 
           4630      5.01119e+8 
           4650      4.90598e+8 
           4670      4.89669e+8 
           4690       4.8617e+8 
           4710      4.63675e+8 
           4730      4.64713e+8 
           4750       4.5842e+8 
           4770      4.60214e+8 
           4790      4.50468e+8 
           4810      4.38506e+8 
           4830      4.30328e+8 
           4850       3.9144e+8 
           4870      3.44914e+8 
           4890       4.1216e+8 
           4910      4.10091e+8 
           4930      3.92882e+8 
           4950      3.99462e+8 
           4970       3.9665e+8 
           4990      3.89467e+8 
           5010      3.69043e+8 
           5030      3.76314e+8 
           5050      3.64875e+8 
           5070      3.67849e+8 
           5090      3.61794e+8 
           5110      3.54769e+8 
           5130      3.44522e+8 
           5150      3.41269e+8 
           5170      3.41932e+8 
           5190      3.37483e+8 
           5210      3.29026e+8 
           5230      3.27988e+8 
           5250      3.23936e+8 
           5270      3.18362e+8 
           5290      3.15798e+8 
           5310      3.10898e+8 
           5330      3.06129e+8 
           5350      3.00778e+8 
           5370      2.99208e+8 
           5390      2.95021e+8 
           5410      2.91016e+8 
           5430      2.86154e+8 
           5450      2.82599e+8 
           5470      2.78459e+8 
           5490      2.75722e+8 
           5510      2.72607e+8 
           5530      2.68446e+8 
           5550      2.65866e+8 
           5570      2.62042e+8 
           5590      2.59218e+8 
           5610      2.55314e+8 
           5630      2.52885e+8 
           5650      2.46106e+8 
           5670      2.42404e+8 
           5690      2.40098e+8 
           5710      2.38927e+8 
           5730      2.36402e+8 
           5750       2.3296e+8 
           5770      2.31099e+8 
           5790      2.27999e+8 
           5810      2.25082e+8 
           5830      2.21833e+8 
           5850      2.19438e+8 
           5870      2.08925e+8 
           5890      2.10854e+8 
           5910      2.10572e+8 
           5930      2.07965e+8 
           5950      2.04558e+8 
           5970      2.04099e+8 
           5990      2.00502e+8 
           6010      1.99138e+8 
           6030      1.96296e+8 
           6050      1.94146e+8 
           6070      1.92102e+8 
           6090      1.89624e+8 
           6110      1.87517e+8 
           6130      1.85523e+8 
           6150       1.8135e+8 
           6170      1.80483e+8 
           6190      1.78896e+8 
           6210      1.76896e+8 
           6230       1.7483e+8 
           6250      1.71793e+8 
           6270      1.70402e+8 
           6290      1.68625e+8 
           6310      1.66413e+8 
           6330       1.6494e+8 
           6350      1.61744e+8 
           6370      1.60563e+8 
           6390      1.59025e+8 
           6410      1.57254e+8 
           6430      1.55868e+8 
           6450      1.53843e+8 
           6470      1.51435e+8 
           6490      1.49985e+8 
           6510      1.48202e+8 
           6530      1.45715e+8 
           6550      1.37353e+8 
           6570      1.19203e+8 
           6590      1.38363e+8 
           6610      1.39915e+8 
           6630      1.38995e+8 
           6650      1.37581e+8 
           6670       1.3442e+8 
           6690      1.33087e+8 
           6710      1.33241e+8 
           6730      1.31527e+8 
           6750      1.30476e+8 
           6770      1.29089e+8 
           6790      1.25985e+8 
           6810       1.2592e+8 
           6830      1.24651e+8 
           6850      1.23563e+8 
           6870      1.22254e+8 
           6890      1.20862e+8 
           6910      1.19548e+8 
           6930      1.18216e+8 
           6950      1.17178e+8 
           6970      1.15971e+8 
           6990      1.14699e+8 
           7010      1.13456e+8 
           7030      1.12277e+8 
           7050      1.10936e+8 
           7070      1.07657e+8 
           7090      1.08504e+8 
           7110      1.06575e+8 
           7130      1.05556e+8 
           7150      1.05077e+8 
           7170      1.04308e+8 
           7190      1.03408e+8 
           7210      1.02371e+8 
           7230      9.92472e+7 
           7250      1.00091e+8 
           7270      9.92701e+7 
           7290      9.73722e+7 
           7310       9.7256e+7 
           7330      9.62703e+7 
           7350      9.53705e+7 
           7370      9.44166e+7 
           7390      9.34717e+7 
           7410      9.25492e+7 
           7430      9.14443e+7 
           7450      9.06553e+7 
           7470      8.93874e+7 
           7490      8.88099e+7 
           7510      8.79301e+7 
           7530      8.70251e+7 
           7550      8.63267e+7 
           7570       8.5503e+7 
           7590      8.46214e+7 
           7610      8.37999e+7 
           7630      8.30182e+7 
           7650      8.22306e+7 
           7670      8.14373e+7 
           7690      8.06511e+7 
           7710       7.9872e+7 
           7730       7.9081e+7 
           7750       7.8366e+7 
           7770      7.68087e+7 
           7790      7.68866e+7 
           7810      7.61166e+7 
           7830      7.54517e+7 
           7850      7.45114e+7 
           7870      7.38351e+7 
           7890      7.28682e+7 
           7910      7.25785e+7 
           7930      7.19432e+7 
           7950      7.09141e+7 
           7970      7.04816e+7 
           7990      6.94741e+7 
           8010      6.91981e+7 
           8030      6.85383e+7 
           8050      6.78901e+7 
           8070      6.72995e+7 
           8090      6.66217e+7 
           8110      6.59041e+7 
           8130      6.54947e+7 
           8150      6.48787e+7 
           8170      6.43922e+7 
           8190      6.35838e+7 
           8210      6.28999e+7 
           8230      6.22052e+7 
           8250      6.20701e+7 
           8270      6.10266e+7 
           8290      6.09134e+7 
           8310      6.03969e+7 
           8330        5.989e+7 
           8350      5.90307e+7 
           8370      5.86575e+7 
           8390      5.83354e+7 
           8410      5.77919e+7 
           8430      5.72318e+7 
           8450      5.59587e+7 
           8470      5.62199e+7 
           8490      5.55111e+7 
           8510      5.50372e+7 
           8530      5.46189e+7 
           8550      5.35855e+7 
           8570      5.42025e+7 
