# Kurucz ODFNEW /NOVER (2003)
# teff = 29000 K (value for the effective temperature for the model. Temperatures are given in K)
# logg = 4 log(cm/s2) (value for Log(G) for the model.)
# meta = -0.5  (value for the Metallicity for the model.)
# lh = 1.25  (l/Hp where l is the  mixing length of the convective element and Hp is the pressure scale height)
# vtur = 2 km/s (Microturbulence velocity)
# alpha = 0.4  (Alpha)
#
# column 1: WAVELENGTH (ANGSTROM), Wavelength in Angstrom
# column 2: FLUX (ERG/CM2/S/A), Flux in erg/cm2/s/A
          147.2      3.7209e-10 
            151      1.29029e-9 
          155.2      4.77562e-9 
          158.8       1.3934e-8 
            162      3.47934e-8 
            166      1.04224e-7 
          170.3        3.206e-7 
          173.4      6.98315e-7 
          176.8      1.58956e-6 
          180.2      3.51078e-6 
          181.7      4.93339e-6 
          186.1      1.29912e-5 
            191      3.62778e-5 
          193.9      6.50137e-5 
          198.4     0.000155429 
          201.8     0.000292636 
            205      0.00052068 
          210.5      0.00134613 
          216.2      0.00341997 
          219.8      0.00601042 
            223      0.00976653 
          226.8        0.017201 
            230         3.96242 
            234         8.82654 
            240         16.9561 
          246.5         34.0017 
          252.4         62.5066 
          256.8         88.7293 
            260         138.142 
            264         192.986 
          268.5         299.367 
          273.5         460.719 
          278.5         676.743 
            284         1276.11 
            290         1995.77 
            296         3025.93 
            301         4153.38 
            308         7436.18 
            318         15934.4 
            328         27279.5 
            338           49754 
            348         83739.4 
            357          261097 
            366          498712 
            375          683511 
            385      1.06336e+6 
            395       1.8711e+6 
            405      2.53932e+6 
            414      3.57616e+6 
            422      4.31046e+6 
            430      5.48591e+6 
            441      7.36137e+6 
            451      9.44949e+6 
            460      1.13288e+7 
            470      1.44743e+7 
            480      1.78914e+7 
            490      2.20938e+7 
            500       2.7447e+7 
            506      1.01917e+8 
            512      5.75706e+8 
            520      5.64676e+8 
            530       5.7235e+8 
            540       5.4357e+8 
            550      7.01028e+8 
            560      8.10677e+8 
            570      8.76299e+8 
            580      8.06855e+8 
            590      9.47202e+8 
            600      9.08326e+8 
            610      1.04808e+9 
            620       1.1592e+9 
            630       1.1879e+9 
            640      1.14711e+9 
            650      1.18101e+9 
            658      1.21251e+9 
            665        1.331e+9 
            675      1.36884e+9 
            685      1.30532e+9 
            695      1.59263e+9 
            705      1.46538e+9 
            716      1.73243e+9 
            726      1.72334e+9 
            735      1.77728e+9 
            745       1.8877e+9 
            755      1.92309e+9 
            765      2.01746e+9 
            775      2.10053e+9 
            785      2.20282e+9 
            795      2.22744e+9 
            805      2.24709e+9 
            815      2.26432e+9 
            825      2.40122e+9 
            835       2.0949e+9 
            845       2.4208e+9 
            855      2.45314e+9 
            865      2.54704e+9 
            875      2.62482e+9 
            885      2.73269e+9 
            895        2.803e+9 
            905      2.78417e+9 
            915      3.53225e+9 
            925     1.86704e+10 
            935     3.40085e+10 
            945     5.24285e+10 
            955     5.79867e+10 
            965     6.65772e+10 
            975     2.49584e+10 
            985     5.79252e+10 
            995     5.33154e+10 
           1005     5.61872e+10 
           1015     5.72431e+10 
           1025     3.87872e+10 
           1035     5.22035e+10 
           1045     6.26833e+10 
           1055     5.93682e+10 
           1065     5.07056e+10 
           1075     5.41773e+10 
           1085     5.01719e+10 
           1095     5.40418e+10 
           1105     5.06708e+10 
           1115      4.9472e+10 
           1125     4.02351e+10 
           1135     4.86095e+10 
           1145     4.48072e+10 
           1155     4.46814e+10 
           1165     4.44312e+10 
           1175     3.11534e+10 
           1185     4.10231e+10 
           1195     3.91523e+10 
           1205     3.39803e+10 
           1215     2.56117e+10 
           1225     3.65928e+10 
           1235     3.88752e+10 
           1245     3.75459e+10 
           1255     3.72944e+10 
           1265     3.74063e+10 
           1275     3.77535e+10 
           1285      3.7191e+10 
           1295     3.18699e+10 
           1305      3.3007e+10 
           1315     3.56049e+10 
           1325     3.39773e+10 
           1335     3.29967e+10 
           1345     3.25391e+10 
           1355     3.24894e+10 
           1365     3.07474e+10 
           1375     3.00606e+10 
           1385     2.92746e+10 
           1395      2.1469e+10 
           1405     2.30291e+10 
           1415      2.7211e+10 
           1425     2.54836e+10 
           1435     2.63499e+10 
           1442     2.66273e+10 
           1447     2.62259e+10 
           1455     2.52941e+10 
           1465     2.44199e+10 
           1475     2.43635e+10 
           1485     2.40775e+10 
           1495     2.33957e+10 
           1505     2.21827e+10 
           1512     2.12692e+10 
           1517     2.14779e+10 
           1525     2.12143e+10 
           1535     1.87499e+10 
           1545     1.78215e+10 
           1555     1.72565e+10 
           1565     1.83041e+10 
           1575     1.90049e+10 
           1585     1.88303e+10 
           1595     1.87415e+10 
           1605      1.7912e+10 
           1615     1.72836e+10 
           1625     1.73654e+10 
           1635     1.76328e+10 
           1645     1.73007e+10 
           1655     1.73866e+10 
           1665     1.70901e+10 
           1672     1.63638e+10 
           1677     1.78323e+10 
           1685     1.71751e+10 
           1695     1.65429e+10 
           1705     1.61317e+10 
           1715     1.55381e+10 
           1725     1.50761e+10 
           1735     1.53959e+10 
           1745     1.51656e+10 
           1755     1.50079e+10 
           1765      1.4721e+10 
           1775     1.41981e+10 
           1785     1.42239e+10 
           1795     1.41512e+10 
           1805     1.41417e+10 
           1815     1.34362e+10 
           1825     1.34568e+10 
           1835     1.32445e+10 
           1845     1.22558e+10 
           1855     1.23539e+10 
           1865      1.2446e+10 
           1875     1.23736e+10 
           1885     1.14931e+10 
           1895     1.09084e+10 
           1905     1.14201e+10 
           1915     1.09683e+10 
           1925     1.04541e+10 
           1935     1.09219e+10 
           1945     1.10748e+10 
           1955     1.01377e+10 
           1967     1.05723e+10 
           1976     1.09365e+10 
           1984     1.02943e+10 
           1995      1.0058e+10 
           2005     1.01763e+10 
           2015      1.0173e+10 
           2025     1.02188e+10 
           2035      9.64742e+9 
           2045      9.59204e+9 
           2055      8.67195e+9 
           2065      8.54717e+9 
           2074      8.85361e+9 
           2078      8.52284e+9 
           2085       8.7717e+9 
           2095      8.71048e+9 
           2105      8.91273e+9 
           2115       8.8994e+9 
           2125      8.85671e+9 
           2135      8.71526e+9 
           2145       8.4606e+9 
           2155      8.53396e+9 
           2165      8.36449e+9 
           2175      8.29332e+9 
           2185      8.13552e+9 
           2195      8.13584e+9 
           2205       8.0227e+9 
           2215      7.86519e+9 
           2225      7.75965e+9 
           2235      7.62249e+9 
           2245      7.57716e+9 
           2255      7.39771e+9 
           2265       7.3705e+9 
           2275      7.27484e+9 
           2285      7.14579e+9 
           2295      6.66315e+9 
           2305      6.90731e+9 
           2315      6.81902e+9 
           2325      6.74431e+9 
           2335      6.61951e+9 
           2345      6.59606e+9 
           2355      6.50497e+9 
           2365      6.42199e+9 
           2375      6.30578e+9 
           2385      6.18089e+9 
           2395       6.1167e+9 
           2405      6.06601e+9 
           2415      5.95897e+9 
           2425      5.90819e+9 
           2435       5.7879e+9 
           2445      5.73751e+9 
           2455      5.67542e+9 
           2465      5.60739e+9 
           2475      5.51353e+9 
           2485      5.40915e+9 
           2495      4.41083e+9 
           2505      5.20335e+9 
           2513      5.07274e+9 
           2518      5.12932e+9 
           2525      5.17106e+9 
           2535       5.1219e+9 
           2545      4.96749e+9 
           2555      4.95015e+9 
           2565      4.89268e+9 
           2575      4.85657e+9 
           2585      4.79995e+9 
           2595      4.73825e+9 
           2605      4.70144e+9 
           2615      4.63228e+9 
           2625       4.5819e+9 
           2635      4.52109e+9 
           2645      4.46005e+9 
           2655      4.40284e+9 
           2665      4.30881e+9 
           2675       4.2638e+9 
           2685      4.24888e+9 
           2695      4.13981e+9 
           2705      4.10709e+9 
           2715      4.06877e+9 
           2725      4.00644e+9 
           2735      3.95907e+9 
           2745      3.93077e+9 
           2755       3.8878e+9 
           2765      3.81823e+9 
           2775      3.81361e+9 
           2785      3.75368e+9 
           2795      3.63524e+9 
           2805      3.64906e+9 
           2815       3.6355e+9 
           2825      3.57006e+9 
           2835      3.50039e+9 
           2845      3.51003e+9 
           2855      3.45207e+9 
           2865      3.41672e+9 
           2875      3.37618e+9 
           2885      3.34277e+9 
           2895      3.29993e+9 
           2910      3.22841e+9 
           2930      3.17185e+9 
           2950      3.07847e+9 
           2970      3.02779e+9 
           2990      2.95434e+9 
           3010      2.86598e+9 
           3030      2.81444e+9 
           3050      2.76623e+9 
           3070      2.71692e+9 
           3090      2.61802e+9 
           3110      2.59583e+9 
           3130      2.52904e+9 
           3150      2.48127e+9 
           3170       2.4273e+9 
           3190      2.36727e+9 
           3210      2.32821e+9 
           3230      2.27394e+9 
           3250      2.23602e+9 
           3270      2.18472e+9 
           3290      2.14004e+9 
           3310      2.09916e+9 
           3330      2.05149e+9 
           3350      2.01109e+9 
           3370      1.97011e+9 
           3390      1.93792e+9 
           3410      1.89977e+9 
           3430      1.85869e+9 
           3450      1.81501e+9 
           3470       1.7816e+9 
           3490      1.74568e+9 
           3510      1.71722e+9 
           3530      1.69017e+9 
           3550      1.65623e+9 
           3570      1.63007e+9 
           3590      1.58752e+9 
           3610      1.56331e+9 
           3630      1.53052e+9 
           3640      1.52544e+9 
           3650      1.48879e+9 
           3670      1.46959e+9 
           3690      1.43909e+9 
           3710      1.38711e+9 
           3730      1.33818e+9 
           3750      1.37254e+9 
           3770       1.3534e+9 
           3790      1.39799e+9 
           3810      1.43491e+9 
           3830      1.28547e+9 
           3850      1.43929e+9 
           3870      1.41572e+9 
           3890      1.21844e+9 
           3910      1.39972e+9 
           3930      1.36116e+9 
           3950      1.33853e+9 
           3970      1.12737e+9 
           3990      1.29779e+9 
           4010      1.28179e+9 
           4030      1.22685e+9 
           4050      1.24499e+9 
           4070      1.19424e+9 
           4090      1.12833e+9 
           4110      1.02538e+9 
           4130      1.13717e+9 
           4150      1.12718e+9 
           4170      1.11969e+9 
           4190      1.09943e+9 
           4210      1.08574e+9 
           4230      1.06625e+9 
           4250      1.03918e+9 
           4270      1.01395e+9 
           4290       9.9852e+8 
           4310       9.7451e+8 
           4330      9.15556e+8 
           4350      8.44603e+8 
           4370      9.30061e+8 
           4390      9.11324e+8 
           4410      9.06331e+8 
           4430      8.97667e+8 
           4450      8.81321e+8 
           4470      8.44794e+8 
           4490      8.53822e+8 
           4510      8.43692e+8 
           4530      8.31485e+8 
           4550      8.15766e+8 
           4570      8.02851e+8 
           4590      7.88628e+8 
           4610      7.74763e+8 
           4630      7.63233e+8 
           4650       7.3567e+8 
           4670      7.38002e+8 
           4690      7.27765e+8 
           4710       7.0543e+8 
           4730      7.09816e+8 
           4750      6.97223e+8 
           4770      6.91008e+8 
           4790      6.80159e+8 
           4810      6.67855e+8 
           4830      6.53938e+8 
           4850      6.21153e+8 
           4870       5.6466e+8 
           4890       6.2611e+8 
           4910      6.18941e+8 
           4930      5.99515e+8 
           4950       5.9857e+8 
           4970      5.94189e+8 
           4990      5.85199e+8 
           5010      5.67358e+8 
           5030      5.67263e+8 
           5050      5.56663e+8 
           5070      5.52031e+8 
           5090      5.43353e+8 
           5110      5.35473e+8 
           5130      5.27383e+8 
           5150          5.2e+8 
           5170      5.12517e+8 
           5190      5.06001e+8 
           5210      4.98709e+8 
           5230      4.92024e+8 
           5250       4.8507e+8 
           5270      4.77991e+8 
           5290      4.71772e+8 
           5310      4.65111e+8 
           5330       4.5879e+8 
           5350      4.52365e+8 
           5370      4.46376e+8 
           5390      4.39763e+8 
           5410      4.33582e+8 
           5430      4.28299e+8 
           5450      4.22307e+8 
           5470      4.16669e+8 
           5490      4.11164e+8 
           5510      4.05827e+8 
           5530      4.00236e+8 
           5550      3.95106e+8 
           5570      3.89821e+8 
           5590      3.84589e+8 
           5610      3.79613e+8 
           5630      3.74734e+8 
           5650      3.69513e+8 
           5670       3.6418e+8 
           5690       3.5825e+8 
           5710      3.54624e+8 
           5730      3.50432e+8 
           5750       3.4491e+8 
           5770      3.41788e+8 
           5790      3.37273e+8 
           5810      3.32991e+8 
           5830      3.28471e+8 
           5850      3.24633e+8 
           5870      3.12749e+8 
           5890      3.15471e+8 
           5910      3.12261e+8 
           5930      3.08316e+8 
           5950      3.04448e+8 
           5970      3.01239e+8 
           5990      2.97109e+8 
           6010      2.93727e+8 
           6030      2.89938e+8 
           6050       2.8649e+8 
           6070      2.83092e+8 
           6090      2.79662e+8 
           6110       2.7627e+8 
           6130      2.72946e+8 
           6150      2.69291e+8 
           6170      2.66143e+8 
           6190      2.63148e+8 
           6210      2.60058e+8 
           6230      2.56955e+8 
           6250       2.5377e+8 
           6270      2.50831e+8 
           6290      2.47905e+8 
           6310      2.44879e+8 
           6330      2.42103e+8 
           6350      2.39094e+8 
           6370      2.36453e+8 
           6390      2.33675e+8 
           6410      2.30944e+8 
           6430      2.28325e+8 
           6450      2.25671e+8 
           6470      2.22739e+8 
           6490      2.20268e+8 
           6510      2.17868e+8 
           6530      2.14715e+8 
           6550      2.08111e+8 
           6570      1.87567e+8 
           6590      2.06417e+8 
           6610      2.05695e+8 
           6630      2.03513e+8 
           6650       2.0109e+8 
           6670      1.97354e+8 
           6690      1.95199e+8 
           6710      1.94564e+8 
           6730      1.92096e+8 
           6750      1.90372e+8 
           6770      1.88287e+8 
           6790      1.85807e+8 
           6810        1.841e+8 
           6830      1.81973e+8 
           6850      1.80125e+8 
           6870      1.78152e+8 
           6890      1.76024e+8 
           6910      1.73949e+8 
           6930      1.72445e+8 
           6950      1.70604e+8 
           6970      1.68773e+8 
           6990      1.66945e+8 
           7010       1.6515e+8 
           7030      1.63358e+8 
           7050      1.61644e+8 
           7070      1.57709e+8 
           7090      1.58252e+8 
           7110      1.56431e+8 
           7130      1.54851e+8 
           7150      1.53308e+8 
           7170      1.51677e+8 
           7190      1.50127e+8 
           7210      1.48564e+8 
           7230      1.46057e+8 
           7250      1.45245e+8 
           7270       1.4399e+8 
           7290      1.41472e+8 
           7310      1.41016e+8 
           7330      1.39574e+8 
           7350      1.38153e+8 
           7370      1.36759e+8 
           7390      1.35365e+8 
           7410       1.3399e+8 
           7430      1.32628e+8 
           7450      1.31293e+8 
           7470      1.29585e+8 
           7490      1.28625e+8 
           7510       1.2734e+8 
           7530      1.26053e+8 
           7550      1.24857e+8 
           7570      1.23613e+8 
           7590      1.22361e+8 
           7610      1.21029e+8 
           7630      1.19968e+8 
           7650      1.18775e+8 
           7670      1.17625e+8 
           7690      1.16454e+8 
           7710      1.15324e+8 
           7730      1.14155e+8 
           7750      1.13096e+8 
           7770      1.11915e+8 
           7790      1.10919e+8 
           7810      1.09796e+8 
           7830      1.08787e+8 
           7850      1.07812e+8 
           7870       1.0665e+8 
           7890      1.05553e+8 
           7910      1.04737e+8 
           7930      1.03706e+8 
           7950       1.0272e+8 
           7970      1.01666e+8 
           7990      1.00732e+8 
           8010      9.97427e+7 
           8030      9.87966e+7 
           8050      9.78994e+7 
           8070       9.7004e+7 
           8090      9.59666e+7 
           8110      9.47378e+7 
           8130      9.43407e+7 
           8150      9.33507e+7 
           8170       9.2629e+7 
           8190      9.14358e+7 
           8210       9.0471e+7 
           8230      8.97426e+7 
           8250      8.91033e+7 
           8270      8.76372e+7 
           8290      8.73793e+7 
           8310      8.66483e+7 
           8330      8.58364e+7 
           8350      8.47016e+7 
           8370      8.41199e+7 
           8390      8.35052e+7 
           8410      8.27197e+7 
           8430      8.19407e+7 
           8450      8.07249e+7 
           8470      8.03809e+7 
           8490      7.96054e+7 
           8510      7.87063e+7 
           8530      7.82651e+7 
           8550      7.66987e+7 
           8570      7.75875e+7 
