# Kurucz ODFNEW /NOVER (2003)
# teff = 18000 K (value for the effective temperature for the model. Temperatures are given in K)
# logg = 4.5 log(cm/s2) (value for Log(G) for the model.)
# meta = 0.5  (value for the Metallicity for the model.)
# lh = 1.25  (l/Hp where l is the  mixing length of the convective element and Hp is the pressure scale height)
# vtur = 2 km/s (Microturbulence velocity)
# alpha = 0.4  (Alpha)
#
# column 1: WAVELENGTH (ANGSTROM), Wavelength in Angstrom
# column 2: FLUX (ERG/CM2/S/A), Flux in erg/cm2/s/A
          147.2     2.81715e-23 
            151     5.12759e-22 
          155.2     4.22899e-21 
          158.8     2.31991e-20 
            162     9.88405e-20 
            166     5.60131e-19 
          170.3     3.28913e-18 
          173.4     1.12572e-17 
          176.8     4.11063e-17 
          180.2     1.43014e-16 
          181.7     2.43942e-16 
          186.1     1.11594e-15 
            191     5.59595e-15 
          193.9      1.3926e-14 
          198.4     5.44193e-14 
          201.8     1.46822e-13 
            205     3.63381e-13 
          210.5     1.60723e-12 
          216.2      6.9327e-12 
          219.8      1.6788e-11 
            223      3.5873e-11 
          226.8     8.61073e-11 
            230     1.99631e-10 
            234     5.21178e-10 
            240      1.83172e-9 
          246.5       6.6012e-9 
          252.4      1.99785e-8 
          256.8      4.37065e-8 
            260      7.74134e-8 
            264      1.52792e-7 
          268.5      3.19815e-7 
          273.5      7.04382e-7 
          278.5      1.51693e-6 
            284      3.44477e-6 
            290      8.02555e-6 
            296      1.80255e-5 
            301      3.45677e-5 
            308       8.3174e-5 
            318     0.000273811 
            328     0.000818038 
            338      0.00234528 
            348      0.00624181 
            357       0.0153959 
            366       0.0342402 
            375       0.0715284 
            385        0.157244 
            395         0.33002 
            405        0.667904 
            414         1.22728 
            422         2.03886 
            430          3.3382 
            441         6.40154 
            451         11.2435 
            460         18.1599 
            470         30.3686 
            480         49.5242 
            490         79.2277 
            500         124.226 
            506         1176.41 
            512         7346.21 
            520          9602.7 
            530         13843.4 
            540         17107.9 
            550         26326.2 
            560         34245.6 
            570         46727.7 
            580         64648.7 
            590         93799.2 
            600          119350 
            610          155734 
            620          185307 
            630          224889 
            640          253253 
            650          263506 
            658          364901 
            665          403832 
            675          469166 
            685          545153 
            695          668976 
            705          756294 
            716          893367 
            726      1.01745e+6 
            735      1.13439e+6 
            745      1.32976e+6 
            755      1.52397e+6 
            765      1.73911e+6 
            775      1.98462e+6 
            785      2.24286e+6 
            795      2.45896e+6 
            805      2.72985e+6 
            815      3.01644e+6 
            825      3.39968e+6 
            835       3.5205e+6 
            845      4.00723e+6 
            855       4.4318e+6 
            865      4.89556e+6 
            875      5.38997e+6 
            885      6.05913e+6 
            895      6.61255e+6 
            905      6.80852e+6 
            915      1.38227e+7 
            925       6.3077e+7 
            935      1.41716e+8 
            945      3.97116e+8 
            955      8.04163e+8 
            965      1.21532e+9 
            975      2.97607e+8 
            985      1.57366e+9 
            995      1.45463e+9 
           1005      1.91023e+9 
           1015      1.88097e+9 
           1025      4.25845e+8 
           1035      1.13104e+9 
           1045      2.92631e+9 
           1055      2.98967e+9 
           1065      2.27554e+9 
           1075      3.06371e+9 
           1085      2.75792e+9 
           1095      3.33425e+9 
           1105      2.66874e+9 
           1115      2.54133e+9 
           1125      2.72094e+9 
           1135      3.79091e+9 
           1145      3.15573e+9 
           1155      3.62744e+9 
           1165      3.96624e+9 
           1175      3.08151e+9 
           1185      3.98024e+9 
           1195      1.45162e+9 
           1205      8.12782e+8 
           1215      5.04067e+8 
           1225      1.50757e+9 
           1235      4.05499e+9 
           1245      4.60234e+9 
           1255      4.47858e+9 
           1265      3.68084e+9 
           1275      4.16097e+9 
           1285       4.9445e+9 
           1295      2.38255e+9 
           1305      1.58284e+9 
           1315      4.36788e+9 
           1325       4.3773e+9 
           1335      3.76301e+9 
           1345      4.54318e+9 
           1355      4.39778e+9 
           1365      3.64451e+9 
           1375      3.87146e+9 
           1385      3.93654e+9 
           1395       3.2823e+9 
           1405      3.46762e+9 
           1415      3.46959e+9 
           1425      3.78394e+9 
           1435      3.74328e+9 
           1442      4.13949e+9 
           1447      4.14206e+9 
           1455      4.03418e+9 
           1465      3.73337e+9 
           1475      3.64587e+9 
           1485      3.60855e+9 
           1495      3.73556e+9 
           1505      3.32217e+9 
           1512      3.00228e+9 
           1517      3.28357e+9 
           1525      3.29197e+9 
           1535       2.8615e+9 
           1545        3.046e+9 
           1555      2.86579e+9 
           1565      2.89097e+9 
           1575      3.11483e+9 
           1585      3.20071e+9 
           1595      3.25118e+9 
           1605      3.19164e+9 
           1615      3.24598e+9 
           1625      3.03723e+9 
           1635      3.25344e+9 
           1645      3.26259e+9 
           1655      2.96677e+9 
           1665      3.27111e+9 
           1672       3.1105e+9 
           1677      3.21294e+9 
           1685      3.34425e+9 
           1695      3.11871e+9 
           1705      2.93061e+9 
           1715      2.68353e+9 
           1725      2.67099e+9 
           1735      2.84466e+9 
           1745      2.75833e+9 
           1755      2.88893e+9 
           1765      2.64526e+9 
           1775      2.62498e+9 
           1785      2.69155e+9 
           1795      2.89712e+9 
           1805      2.89159e+9 
           1815      2.54109e+9 
           1825      2.66647e+9 
           1835      2.49641e+9 
           1845      2.28449e+9 
           1855      2.18044e+9 
           1865      2.24344e+9 
           1875      2.54041e+9 
           1885      2.26543e+9 
           1895      2.11873e+9 
           1905      2.31631e+9 
           1915      2.15135e+9 
           1925      2.09937e+9 
           1935       2.2217e+9 
           1945      2.21276e+9 
           1955      2.04647e+9 
           1967      2.28885e+9 
           1976       2.3874e+9 
           1984      2.18883e+9 
           1995      2.12652e+9 
           2005        2.221e+9 
           2015      2.02588e+9 
           2025      2.27133e+9 
           2035      2.05602e+9 
           2045      2.11839e+9 
           2055      1.98408e+9 
           2065      2.04434e+9 
           2074      2.13077e+9 
           2078      1.96815e+9 
           2085      2.07697e+9 
           2095      1.92947e+9 
           2105      1.97801e+9 
           2115      1.98714e+9 
           2125      2.00761e+9 
           2135      1.88727e+9 
           2145      1.88577e+9 
           2155      1.96719e+9 
           2165      1.91458e+9 
           2175      1.88849e+9 
           2185      1.80749e+9 
           2195       1.8583e+9 
           2205      1.81258e+9 
           2215      1.75287e+9 
           2225      1.66113e+9 
           2235      1.74555e+9 
           2245      1.69684e+9 
           2255      1.60426e+9 
           2265      1.66613e+9 
           2275      1.69249e+9 
           2285      1.70282e+9 
           2295      1.61542e+9 
           2305      1.57448e+9 
           2315      1.50243e+9 
           2325       1.4758e+9 
           2335      1.39202e+9 
           2345      1.38736e+9 
           2355      1.40176e+9 
           2365      1.33712e+9 
           2375      1.36102e+9 
           2385      1.30181e+9 
           2395      1.38403e+9 
           2405      1.30435e+9 
           2415      1.32793e+9 
           2425      1.34968e+9 
           2435      1.28187e+9 
           2445      1.33594e+9 
           2455      1.30595e+9 
           2465      1.30214e+9 
           2475      1.25566e+9 
           2485       1.3092e+9 
           2495      1.24717e+9 
           2505      1.29498e+9 
           2513      1.20914e+9 
           2518      1.26442e+9 
           2525      1.19827e+9 
           2535      1.20349e+9 
           2545      1.13914e+9 
           2555      1.19141e+9 
           2565      1.17745e+9 
           2575      1.22633e+9 
           2585      1.21799e+9 
           2595      1.21964e+9 
           2605      1.18081e+9 
           2615      1.17186e+9 
           2625      1.17016e+9 
           2635      1.17323e+9 
           2645      1.19276e+9 
           2655      1.18288e+9 
           2665      1.11477e+9 
           2675      1.14994e+9 
           2685      1.13345e+9 
           2695      1.10498e+9 
           2705      1.10784e+9 
           2715      1.08191e+9 
           2725      1.06774e+9 
           2735      1.09586e+9 
           2745      1.02049e+9 
           2755      1.01612e+9 
           2765      1.02495e+9 
           2775      1.04688e+9 
           2785      1.04035e+9 
           2795      9.44039e+8 
           2805      9.93293e+8 
           2815      1.02034e+9 
           2825      1.00392e+9 
           2835      9.50586e+8 
           2845      9.42658e+8 
           2855      9.49932e+8 
           2865      9.68877e+8 
           2875      9.49113e+8 
           2885      9.45713e+8 
           2895      9.38022e+8 
           2910      9.38609e+8 
           2930      9.13859e+8 
           2950      8.93848e+8 
           2970      8.85267e+8 
           2990      8.66594e+8 
           3010      8.59358e+8 
           3030      8.51456e+8 
           3050      8.30728e+8 
           3070      8.15223e+8 
           3090      8.00522e+8 
           3110      7.83443e+8 
           3130       7.7377e+8 
           3150      7.60976e+8 
           3170      7.43832e+8 
           3190      7.17874e+8 
           3210       7.1605e+8 
           3230      7.04826e+8 
           3250      6.95429e+8 
           3270      6.85363e+8 
           3290      6.74132e+8 
           3310      6.65047e+8 
           3330      6.51171e+8 
           3350      6.37343e+8 
           3370      6.27976e+8 
           3390      6.18163e+8 
           3410      6.09734e+8 
           3430      5.97553e+8 
           3450      5.86245e+8 
           3470      5.76503e+8 
           3490      5.67688e+8 
           3510      5.59585e+8 
           3530       5.5163e+8 
           3550      5.43309e+8 
           3570        5.365e+8 
           3590       5.2291e+8 
           3610      5.15773e+8 
           3630      5.08561e+8 
           3640      5.07648e+8 
           3650      5.02636e+8 
           3670      4.96697e+8 
           3690      4.87343e+8 
           3710      4.70005e+8 
           3730      4.47703e+8 
           3750      4.75972e+8 
           3770      4.79205e+8 
           3790      5.27454e+8 
           3810      5.64441e+8 
           3830      4.75583e+8 
           3850      5.87035e+8 
           3870      6.13381e+8 
           3890      4.41307e+8 
           3910       6.1536e+8 
           3930      6.01478e+8 
           3950      5.93737e+8 
           3970      4.12275e+8 
           3990      5.62701e+8 
           4010      5.78984e+8 
           4030      5.36624e+8 
           4050      5.68545e+8 
           4070      5.41957e+8 
           4090      4.80278e+8 
           4110      4.03244e+8 
           4130      5.06071e+8 
           4150      5.11267e+8 
           4170      5.10448e+8 
           4190      5.05822e+8 
           4210      5.02133e+8 
           4230      4.92595e+8 
           4250      4.80858e+8 
           4270      4.63347e+8 
           4290      4.64707e+8 
           4310      4.50893e+8 
           4330      3.83664e+8 
           4350      3.42894e+8 
           4370      4.25221e+8 
           4390      4.13966e+8 
           4410      4.23334e+8 
           4430      4.13915e+8 
           4450      4.14141e+8 
           4470      3.85065e+8 
           4490      3.93658e+8 
           4510       3.9749e+8 
           4530      3.87691e+8 
           4550      3.83217e+8 
           4570      3.79094e+8 
           4590       3.7249e+8 
           4610      3.66269e+8 
           4630      3.57839e+8 
           4650      3.52956e+8 
           4670       3.4949e+8 
           4690      3.46721e+8 
           4710      3.30078e+8 
           4730       3.3258e+8 
           4750      3.27348e+8 
           4770      3.28168e+8 
           4790      3.21033e+8 
           4810       3.1236e+8 
           4830      3.04256e+8 
           4850      2.67302e+8 
           4870      2.32167e+8 
           4890      2.91116e+8 
           4910      2.91109e+8 
           4930      2.79855e+8 
           4950       2.8587e+8 
           4970      2.83772e+8 
           4990      2.78642e+8 
           5010      2.65075e+8 
           5030      2.68213e+8 
           5050      2.58337e+8 
           5070      2.63059e+8 
           5090      2.58582e+8 
           5110      2.53605e+8 
           5130      2.49412e+8 
           5150      2.45419e+8 
           5170      2.44652e+8 
           5190      2.40868e+8 
           5210      2.33248e+8 
           5230      2.35062e+8 
           5250        2.324e+8 
           5270      2.27764e+8 
           5290       2.2727e+8 
           5310      2.23397e+8 
           5330      2.19376e+8 
           5350      2.16146e+8 
           5370      2.15232e+8 
           5390      2.12483e+8 
           5410      2.08508e+8 
           5430      2.05314e+8 
           5450      2.03188e+8 
           5470      1.99326e+8 
           5490      1.99088e+8 
           5510      1.96194e+8 
           5530      1.93632e+8 
           5550      1.91468e+8 
           5570      1.88687e+8 
           5590      1.86905e+8 
           5610      1.84282e+8 
           5630      1.82868e+8 
           5650      1.76997e+8 
           5670      1.75282e+8 
           5690      1.74703e+8 
           5710      1.73424e+8 
           5730       1.7163e+8 
           5750      1.69288e+8 
           5770      1.67528e+8 
           5790      1.65372e+8 
           5810      1.62974e+8 
           5830      1.61082e+8 
           5850      1.59234e+8 
           5870      1.52017e+8 
           5890      1.53832e+8 
           5910      1.53148e+8 
           5930      1.51892e+8 
           5950      1.48542e+8 
           5970      1.48119e+8 
           5990      1.45893e+8 
           6010      1.45059e+8 
           6030      1.43145e+8 
           6050      1.41552e+8 
           6070      1.39813e+8 
           6090      1.37901e+8 
           6110      1.36747e+8 
           6130      1.35225e+8 
           6150      1.31677e+8 
           6170      1.31716e+8 
           6190        1.306e+8 
           6210      1.28979e+8 
           6230      1.27444e+8 
           6250      1.25077e+8 
           6270      1.24366e+8 
           6290      1.22958e+8 
           6310      1.21271e+8 
           6330      1.20318e+8 
           6350      1.17216e+8 
           6370      1.16806e+8 
           6390      1.16039e+8 
           6410      1.14748e+8 
           6430      1.14026e+8 
           6450      1.12251e+8 
           6470      1.11144e+8 
           6490      1.09817e+8 
           6510      1.08067e+8 
           6530      1.06028e+8 
           6550      9.79439e+7 
           6570      8.43792e+7 
           6590      1.00888e+8 
           6610      1.02382e+8 
           6630      1.01817e+8 
           6650       1.0089e+8 
           6670      9.86261e+7 
           6690      9.77764e+7 
           6710      9.76713e+7 
           6730      9.66591e+7 
           6750      9.57813e+7 
           6770      9.48463e+7 
           6790      9.32098e+7 
           6810      9.26875e+7 
           6830      9.14186e+7 
           6850      9.08615e+7 
           6870      8.99421e+7 
           6890      8.89842e+7 
           6910      8.80596e+7 
           6930       8.6799e+7 
           6950      8.63001e+7 
           6970      8.54488e+7 
           6990      8.44825e+7 
           7010      8.34645e+7 
           7030       8.2693e+7 
           7050      8.16939e+7 
           7070      7.98079e+7 
           7090       8.0355e+7 
           7110      7.92627e+7 
           7130      7.85074e+7 
           7150      7.77224e+7 
           7170      7.70476e+7 
           7190      7.63645e+7 
           7210      7.56516e+7 
           7230      7.39291e+7 
           7250      7.38658e+7 
           7270      7.34172e+7 
           7290      7.22281e+7 
           7310      7.19391e+7 
           7330      7.12596e+7 
           7350      7.06213e+7 
           7370      6.99264e+7 
           7390       6.9238e+7 
           7410      6.85711e+7 
           7430       6.7563e+7 
           7450      6.70915e+7 
           7470      6.62263e+7 
           7490      6.57053e+7 
           7510      6.52215e+7 
           7530      6.45931e+7 
           7550       6.4026e+7 
           7570      6.34607e+7 
           7590      6.27356e+7 
           7610      6.22814e+7 
           7630      6.16764e+7 
           7650      6.10923e+7 
           7670      6.05205e+7 
           7690      5.99424e+7 
           7710       5.9403e+7 
           7730       5.8789e+7 
           7750      5.82846e+7 
           7770      5.68374e+7 
           7790      5.72133e+7 
           7810       5.6686e+7 
           7830      5.61811e+7 
           7850      5.51835e+7 
           7870       5.4842e+7 
           7890      5.40723e+7 
           7910      5.40467e+7 
           7930      5.36576e+7 
           7950       5.2656e+7 
           7970      5.26322e+7 
           7990      5.15412e+7 
           8010      5.17362e+7 
           8030      5.12434e+7 
           8050      5.06932e+7 
           8070      5.03375e+7 
           8090      4.98414e+7 
           8110       4.9361e+7 
           8130      4.89116e+7 
           8150      4.85408e+7 
           8170      4.81533e+7 
           8190      4.76095e+7 
           8210      4.69665e+7 
           8230      4.62512e+7 
           8250      4.64125e+7 
           8270      4.58908e+7 
           8290       4.5594e+7 
           8310      4.51746e+7 
           8330      4.48667e+7 
           8350       4.4356e+7 
           8370      4.39743e+7 
           8390      4.37681e+7 
           8410      4.33717e+7 
           8430      4.29175e+7 
           8450      4.19896e+7 
           8470      4.21497e+7 
           8490      4.16654e+7 
           8510      4.11447e+7 
           8530      4.11109e+7 
           8550      3.99263e+7 
           8570      4.07865e+7 
