# Kurucz ODFNEW /NOVER (2003)
# teff = 30000 K (value for the effective temperature for the model. Temperatures are given in K)
# logg = 4 log(cm/s2) (value for Log(G) for the model.)
# meta = 0  (value for the Metallicity for the model.)
# lh = 1.25  (l/Hp where l is the  mixing length of the convective element and Hp is the pressure scale height)
# vtur = 2 km/s (Microturbulence velocity)
# alpha = 0.4  (Alpha)
#
# column 1: WAVELENGTH (ANGSTROM), Wavelength in Angstrom
# column 2: FLUX (ERG/CM2/S/A), Flux in erg/cm2/s/A
          147.2      3.98691e-9 
            151      1.27068e-8 
          155.2      4.30094e-8 
          158.8      1.16632e-7 
            162      2.73676e-7 
            166      7.60855e-7 
          170.3      2.16201e-6 
          173.4      4.47639e-6 
          176.8      9.64161e-6 
          180.2      2.01938e-5 
          181.7      2.77764e-5 
          186.1       6.8635e-5 
            191      0.00017951 
          193.9     0.000310033 
          198.4      0.00070234 
          201.8      0.00127238 
            205      0.00218705 
          210.5      0.00534977 
          216.2       0.0128737 
          219.8       0.0219688 
            223       0.0347851 
          226.8       0.0608581 
            230         9.22809 
            234         19.8073 
            240         36.7671 
          246.5         71.4061 
          252.4         128.898 
          256.8         186.593 
            260         295.225 
            264         418.545 
          268.5         650.229 
          273.5         985.662 
          278.5         1410.46 
            284         3090.73 
            290         4794.45 
            296          7078.3 
            301         9674.69 
            308         22926.1 
            318         48650.3 
            328         79702.7 
            338          144982 
            348          239319 
            357          819796 
            366       1.8103e+6 
            375      2.38013e+6 
            385      3.77225e+6 
            395      8.34636e+6 
            405      1.08847e+7 
            414      1.64795e+7 
            422      1.92536e+7 
            430      2.38915e+7 
            441       3.1073e+7 
            451       3.7645e+7 
            460       4.2658e+7 
            470       5.3779e+7 
            480      6.52246e+7 
            490       7.7428e+7 
            500       9.5305e+7 
            506      2.11792e+8 
            512      1.70197e+9 
            520      1.62144e+9 
            530      1.53307e+9 
            540      1.48483e+9 
            550      1.90083e+9 
            560      2.36789e+9 
            570      2.51199e+9 
            580      2.25299e+9 
            590       2.5647e+9 
            600      2.08645e+9 
            610      2.69411e+9 
            620      3.09753e+9 
            630      3.06082e+9 
            640      2.84892e+9 
            650      2.72306e+9 
            658      2.50655e+9 
            665      3.04425e+9 
            675      3.33713e+9 
            685      2.83359e+9 
            695      3.80493e+9 
            705      3.03142e+9 
            716      4.14945e+9 
            726      4.00398e+9 
            735       4.1188e+9 
            745      4.12768e+9 
            755      4.17338e+9 
            765      4.43836e+9 
            775      4.64576e+9 
            785      4.84495e+9 
            795      4.83887e+9 
            805       4.7108e+9 
            815      4.69045e+9 
            825      5.06059e+9 
            835      3.95627e+9 
            845      4.91794e+9 
            855       4.9101e+9 
            865      5.10345e+9 
            875      5.20889e+9 
            885       5.4093e+9 
            895      5.50873e+9 
            905      5.36743e+9 
            915      6.64656e+9 
            925     2.85696e+10 
            935      4.7273e+10 
            945     6.34727e+10 
            955     6.88049e+10 
            965     7.63633e+10 
            975     2.59741e+10 
            985      6.0418e+10 
            995     5.62416e+10 
           1005     5.98388e+10 
           1015     6.31853e+10 
           1025     4.84975e+10 
           1035     5.86428e+10 
           1045     7.12044e+10 
           1055     6.68045e+10 
           1065     5.52161e+10 
           1075     5.94585e+10 
           1085     5.53882e+10 
           1095      5.9424e+10 
           1105     5.58017e+10 
           1115     5.42447e+10 
           1125     4.01428e+10 
           1135     5.27066e+10 
           1145     4.94911e+10 
           1155     4.78612e+10 
           1165     4.76649e+10 
           1175       2.989e+10 
           1185     4.33786e+10 
           1195     4.15899e+10 
           1205     3.68602e+10 
           1215     3.06748e+10 
           1225     3.92489e+10 
           1235     4.21233e+10 
           1245     4.02972e+10 
           1255     4.02341e+10 
           1265     4.09659e+10 
           1275      4.2101e+10 
           1285     4.17745e+10 
           1295     3.57831e+10 
           1305     3.70729e+10 
           1315     4.06723e+10 
           1325     3.87754e+10 
           1335     3.76407e+10 
           1345      3.7158e+10 
           1355     3.68742e+10 
           1365     3.48701e+10 
           1375     3.37031e+10 
           1385     3.21243e+10 
           1395     2.07547e+10 
           1405     2.32752e+10 
           1415     3.03024e+10 
           1425     2.78657e+10 
           1435     2.95387e+10 
           1442     2.96801e+10 
           1447     2.93836e+10 
           1455     2.79794e+10 
           1465     2.68247e+10 
           1475     2.72137e+10 
           1485      2.6956e+10 
           1495     2.61365e+10 
           1505     2.46759e+10 
           1512     2.36603e+10 
           1517     2.40088e+10 
           1525     2.35243e+10 
           1535     2.02433e+10 
           1545     1.81592e+10 
           1555     1.78532e+10 
           1565     1.97453e+10 
           1575     2.08713e+10 
           1585     2.07618e+10 
           1595     2.07244e+10 
           1605     1.98834e+10 
           1615     1.89937e+10 
           1625     1.92415e+10 
           1635     1.96847e+10 
           1645     1.96354e+10 
           1655     1.95295e+10 
           1665     1.92331e+10 
           1672     1.79647e+10 
           1677     2.06829e+10 
           1685     1.96709e+10 
           1695     1.88127e+10 
           1705      1.8502e+10 
           1715     1.76451e+10 
           1725     1.69676e+10 
           1735     1.75272e+10 
           1745     1.73368e+10 
           1755     1.71508e+10 
           1765     1.69183e+10 
           1775     1.61591e+10 
           1785     1.63628e+10 
           1795     1.61985e+10 
           1805     1.62335e+10 
           1815     1.53952e+10 
           1825     1.54226e+10 
           1835     1.52259e+10 
           1845     1.40653e+10 
           1855     1.43782e+10 
           1865      1.4479e+10 
           1875      1.4281e+10 
           1885     1.32785e+10 
           1895     1.26698e+10 
           1905     1.32815e+10 
           1915     1.27456e+10 
           1925     1.20065e+10 
           1935     1.27491e+10 
           1945     1.29888e+10 
           1955     1.16971e+10 
           1967     1.23483e+10 
           1976     1.28459e+10 
           1984     1.20859e+10 
           1995     1.18451e+10 
           2005      1.2044e+10 
           2015     1.20287e+10 
           2025     1.20884e+10 
           2035     1.13659e+10 
           2045      1.1318e+10 
           2055      9.85485e+9 
           2065      9.64391e+9 
           2074     1.00789e+10 
           2078      9.72515e+9 
           2085     1.02025e+10 
           2095     1.02306e+10 
           2105     1.05137e+10 
           2115     1.05636e+10 
           2125     1.04619e+10 
           2135     1.03236e+10 
           2145     1.00212e+10 
           2155     1.01548e+10 
           2165      9.85944e+9 
           2175      9.86057e+9 
           2185      9.63637e+9 
           2195      9.71375e+9 
           2205        9.584e+9 
           2215      9.33871e+9 
           2225      9.24887e+9 
           2235       9.0856e+9 
           2245      9.02651e+9 
           2255      8.78142e+9 
           2265       8.7863e+9 
           2275      8.68084e+9 
           2285      8.47154e+9 
           2295      7.60036e+9 
           2305      8.16491e+9 
           2315      8.05797e+9 
           2325       8.0125e+9 
           2335       7.8611e+9 
           2345      7.84558e+9 
           2355      7.71456e+9 
           2365      7.60838e+9 
           2375      7.44426e+9 
           2385      7.25016e+9 
           2395       7.1996e+9 
           2405      7.17177e+9 
           2415      7.02723e+9 
           2425      6.98733e+9 
           2435      6.84111e+9 
           2445        6.784e+9 
           2455      6.70509e+9 
           2465      6.61856e+9 
           2475      6.49692e+9 
           2485       6.2666e+9 
           2495      4.46131e+9 
           2505       5.9095e+9 
           2513      5.88428e+9 
           2518      5.97032e+9 
           2525      6.09267e+9 
           2535      6.05701e+9 
           2545       5.8542e+9 
           2555      5.85002e+9 
           2565      5.76212e+9 
           2575      5.73563e+9 
           2585      5.67217e+9 
           2595       5.5877e+9 
           2605      5.55321e+9 
           2615      5.44862e+9 
           2625      5.40287e+9 
           2635      5.33378e+9 
           2645       5.2568e+9 
           2655      5.19248e+9 
           2665       5.0494e+9 
           2675      4.98292e+9 
           2685      4.99515e+9 
           2695       4.8554e+9 
           2705      4.79902e+9 
           2715      4.75878e+9 
           2725      4.70621e+9 
           2735      4.63318e+9 
           2745      4.61503e+9 
           2755      4.56337e+9 
           2765      4.48711e+9 
           2775      4.49162e+9 
           2785      4.40575e+9 
           2795      4.24552e+9 
           2805      4.28531e+9 
           2815      4.27583e+9 
           2825      4.21078e+9 
           2835      4.10885e+9 
           2845      4.12618e+9 
           2855      4.04829e+9 
           2865      4.00746e+9 
           2875      3.95402e+9 
           2885      3.91448e+9 
           2895       3.8642e+9 
           2910      3.76115e+9 
           2930      3.72052e+9 
           2950      3.61011e+9 
           2970      3.54299e+9 
           2990      3.44307e+9 
           3010      3.32063e+9 
           3030      3.25798e+9 
           3050      3.21952e+9 
           3070      3.17435e+9 
           3090      3.04332e+9 
           3110      3.03277e+9 
           3130      2.94326e+9 
           3150       2.8958e+9 
           3170      2.82582e+9 
           3190      2.76706e+9 
           3210      2.71053e+9 
           3230      2.64316e+9 
           3250      2.60724e+9 
           3270      2.53482e+9 
           3290      2.48927e+9 
           3310      2.43696e+9 
           3330      2.37652e+9 
           3350      2.32939e+9 
           3370      2.27964e+9 
           3390      2.25121e+9 
           3410       2.2045e+9 
           3430      2.16561e+9 
           3450      2.10981e+9 
           3470      2.07117e+9 
           3490      2.02783e+9 
           3510      1.99286e+9 
           3530      1.96496e+9 
           3550      1.92213e+9 
           3570      1.88739e+9 
           3590      1.83979e+9 
           3610       1.8109e+9 
           3630      1.77319e+9 
           3640      1.76187e+9 
           3650      1.71812e+9 
           3670      1.69517e+9 
           3690      1.66038e+9 
           3710      1.59592e+9 
           3730      1.54914e+9 
           3750      1.57901e+9 
           3770      1.55021e+9 
           3790      1.60232e+9 
           3810      1.63841e+9 
           3830      1.47603e+9 
           3850      1.63019e+9 
           3870       1.5795e+9 
           3890      1.39796e+9 
           3910      1.58394e+9 
           3930      1.53054e+9 
           3950      1.49748e+9 
           3970      1.28855e+9 
           3990      1.46533e+9 
           4010       1.4445e+9 
           4030      1.38805e+9 
           4050      1.39791e+9 
           4070      1.33122e+9 
           4090      1.26076e+9 
           4110      1.15944e+9 
           4130      1.27511e+9 
           4150      1.26276e+9 
           4170      1.25878e+9 
           4190      1.23587e+9 
           4210      1.21894e+9 
           4230        1.197e+9 
           4250      1.16148e+9 
           4270      1.13329e+9 
           4290      1.11059e+9 
           4310      1.08076e+9 
           4330      1.02535e+9 
           4350      9.52072e+8 
           4370      1.03503e+9 
           4390       1.0223e+9 
           4410      1.00999e+9 
           4430      1.00386e+9 
           4450      9.83406e+8 
           4470      9.50379e+8 
           4490      9.55871e+8 
           4510      9.41486e+8 
           4530      9.31263e+8 
           4550      9.13595e+8 
           4570       9.0089e+8 
           4590        8.834e+8 
           4610      8.64389e+8 
           4630      8.49679e+8 
           4650      8.11843e+8 
           4670      8.23353e+8 
           4690      8.11979e+8 
           4710      7.87776e+8 
           4730      7.96535e+8 
           4750      7.81577e+8 
           4770      7.77189e+8 
           4790      7.64588e+8 
           4810      7.49613e+8 
           4830      7.34181e+8 
           4850      7.01216e+8 
           4870      6.38649e+8 
           4890      7.02489e+8 
           4910      6.93715e+8 
           4930      6.73822e+8 
           4950       6.6948e+8 
           4970      6.67336e+8 
           4990      6.56959e+8 
           5010      6.33488e+8 
           5030      6.34417e+8 
           5050       6.2395e+8 
           5070      6.19536e+8 
           5090      6.08948e+8 
           5110      5.99761e+8 
           5130      5.90126e+8 
           5150      5.82185e+8 
           5170      5.73659e+8 
           5190      5.66728e+8 
           5210      5.58791e+8 
           5230      5.51275e+8 
           5250        5.429e+8 
           5270       5.3446e+8 
           5290      5.28434e+8 
           5310      5.20747e+8 
           5330       5.1377e+8 
           5350        5.065e+8 
           5370      4.99677e+8 
           5390      4.91814e+8 
           5410      4.84258e+8 
           5430       4.7942e+8 
           5450       4.7247e+8 
           5470      4.66038e+8 
           5490      4.59836e+8 
           5510      4.53923e+8 
           5530      4.47492e+8 
           5550      4.41985e+8 
           5570      4.35939e+8 
           5590       4.2963e+8 
           5610       4.2449e+8 
           5630      4.19043e+8 
           5650      4.13013e+8 
           5670      4.06483e+8 
           5690      3.98173e+8 
           5710      3.93621e+8 
           5730      3.89237e+8 
           5750      3.82797e+8 
           5770      3.79673e+8 
           5790      3.74571e+8 
           5810      3.69697e+8 
           5830      3.64383e+8 
           5850      3.60663e+8 
           5870       3.4838e+8 
           5890      3.50384e+8 
           5910      3.46992e+8 
           5930      3.42802e+8 
           5950      3.38777e+8 
           5970      3.36035e+8 
           5990      3.31023e+8 
           6010       3.2753e+8 
           6030      3.23061e+8 
           6050      3.19313e+8 
           6070      3.15638e+8 
           6090      3.11831e+8 
           6110      3.07906e+8 
           6130      3.04276e+8 
           6150        2.997e+8 
           6170      2.96227e+8 
           6190      2.93175e+8 
           6210      2.89824e+8 
           6230      2.86326e+8 
           6250      2.82548e+8 
           6270      2.79359e+8 
           6290      2.76148e+8 
           6310      2.72564e+8 
           6330      2.69651e+8 
           6350      2.66095e+8 
           6370      2.63378e+8 
           6390      2.60219e+8 
           6410       2.5714e+8 
           6430      2.54258e+8 
           6450      2.51225e+8 
           6470      2.47533e+8 
           6490      2.44793e+8 
           6510      2.41842e+8 
           6530      2.38525e+8 
           6550      2.32101e+8 
           6570      2.09386e+8 
           6590      2.29526e+8 
           6610      2.28648e+8 
           6630      2.26311e+8 
           6650      2.23444e+8 
           6670       2.1921e+8 
           6690      2.16765e+8 
           6710      2.16043e+8 
           6730      2.13139e+8 
           6750      2.11514e+8 
           6770      2.09264e+8 
           6790       2.0608e+8 
           6810      2.04505e+8 
           6830      2.02017e+8 
           6850      2.00085e+8 
           6870      1.97812e+8 
           6890      1.95197e+8 
           6910      1.92712e+8 
           6930      1.91546e+8 
           6950      1.89486e+8 
           6970      1.87438e+8 
           6990      1.85373e+8 
           7010      1.83289e+8 
           7030      1.81211e+8 
           7050      1.79351e+8 
           7070      1.75036e+8 
           7090      1.75646e+8 
           7110      1.73169e+8 
           7130      1.71465e+8 
           7150      1.70132e+8 
           7170      1.68253e+8 
           7190      1.66568e+8 
           7210      1.64833e+8 
           7230      1.61588e+8 
           7250      1.60941e+8 
           7270      1.59715e+8 
           7290      1.56925e+8 
           7310      1.56371e+8 
           7330      1.54762e+8 
           7350      1.53174e+8 
           7370       1.5163e+8 
           7390      1.50086e+8 
           7410      1.48543e+8 
           7430      1.47021e+8 
           7450      1.45492e+8 
           7470      1.43256e+8 
           7490      1.42371e+8 
           7510      1.41093e+8 
           7530      1.39587e+8 
           7550      1.38333e+8 
           7570      1.36939e+8 
           7590      1.35433e+8 
           7610      1.33896e+8 
           7630      1.32827e+8 
           7650      1.31476e+8 
           7670      1.30266e+8 
           7690      1.28844e+8 
           7710      1.27644e+8 
           7730      1.26203e+8 
           7750      1.25182e+8 
           7770      1.23896e+8 
           7790      1.22783e+8 
           7810      1.21543e+8 
           7830      1.20413e+8 
           7850      1.19299e+8 
           7870      1.17842e+8 
           7890      1.16628e+8 
           7910       1.1581e+8 
           7930      1.14651e+8 
           7950       1.1361e+8 
           7970       1.1243e+8 
           7990      1.11419e+8 
           8010      1.10324e+8 
           8030      1.09243e+8 
           8050      1.08282e+8 
           8070      1.07266e+8 
           8090      1.06149e+8 
           8110      1.04458e+8 
           8130      1.04292e+8 
           8150      1.03208e+8 
           8170      1.02387e+8 
           8190      1.00793e+8 
           8210      9.98887e+7 
           8230      9.89199e+7 
           8250      9.84021e+7 
           8270      9.65387e+7 
           8290      9.64572e+7 
           8310      9.57206e+7 
           8330      9.47946e+7 
           8350      9.35306e+7 
           8370      9.28583e+7 
           8390      9.22502e+7 
           8410      9.13219e+7 
           8430      9.05339e+7 
           8450        8.923e+7 
           8470      8.88249e+7 
           8490      8.79574e+7 
           8510      8.68526e+7 
           8530      8.64769e+7 
           8550      8.48205e+7 
           8570      8.56305e+7 
           8590      8.28377e+7 
