# Kurucz ODFNEW /NOVER (2003)
# teff = 18000 K (value for the effective temperature for the model. Temperatures are given in K)
# logg = 4 log(cm/s2) (value for Log(G) for the model.)
# meta = 0  (value for the Metallicity for the model.)
# lh = 1.25  (l/Hp where l is the  mixing length of the convective element and Hp is the pressure scale height)
# vtur = 2 km/s (Microturbulence velocity)
# alpha = 0.4  (Alpha)
#
# column 1: WAVELENGTH (ANGSTROM), Wavelength in Angstrom
# column 2: FLUX (ERG/CM2/S/A), Flux in erg/cm2/s/A
          147.2     2.34006e-23 
            151     4.69288e-22 
          155.2     3.86739e-21 
          158.8     2.11629e-20 
            162     8.97869e-20 
            166      5.0576e-19 
          170.3     2.95581e-18 
          173.4     1.00327e-17 
          176.8     3.64072e-17 
          180.2      1.2589e-16 
          181.7     2.14331e-16 
          186.1     9.73793e-16 
            191     4.84355e-15 
          193.9     1.20091e-14 
          198.4     4.66995e-14 
          201.8     1.25591e-13 
            205     3.09962e-13 
          210.5     1.36679e-12 
          216.2     5.88494e-12 
          219.8     1.42427e-11 
            223     3.04458e-11 
          226.8     7.31337e-11 
            230     2.25838e-10 
            234     5.99185e-10 
            240      2.10399e-9 
          246.5      7.57337e-9 
          252.4      2.29216e-8 
          256.8      5.00059e-8 
            260      8.86652e-8 
            264      1.75019e-7 
          268.5      3.66355e-7 
          273.5      8.07879e-7 
          278.5      1.73885e-6 
            284      3.92666e-6 
            290      9.15842e-6 
            296      2.05916e-5 
            301      3.95341e-5 
            308      9.44881e-5 
            318     0.000311717 
            328     0.000937376 
            338       0.0026786 
            348      0.00713958 
            357        0.016826 
            366       0.0373816 
            375       0.0786973 
            385        0.173658 
            395        0.365876 
            405        0.743675 
            414         1.36835 
            422         2.28491 
            430         3.74101 
            441         7.20001 
            451         12.6658 
            460         20.5189 
            470         34.3439 
            480         56.0925 
            490         89.7953 
            500         140.808 
            506          1535.1 
            512         7126.48 
            520         9367.52 
            530         13887.6 
            540         16752.6 
            550         26028.6 
            560         33760.3 
            570         45469.6 
            580         51985.1 
            590         75256.1 
            600         98446.7 
            610          127760 
            620          154485 
            630          189836 
            640          220041 
            650          251620 
            658          322135 
            665          356016 
            675          414421 
            685          487410 
            695          595443 
            705          684954 
            716          812974 
            726          928965 
            735       1.0505e+6 
            745      1.23236e+6 
            755      1.41882e+6 
            765      1.61861e+6 
            775      1.85309e+6 
            785      2.10262e+6 
            795      2.33146e+6 
            805      2.61253e+6 
            815      2.89218e+6 
            825      3.26795e+6 
            835      3.46803e+6 
            845      3.91711e+6 
            855      4.33729e+6 
            865      4.80659e+6 
            875      5.32059e+6 
            885      5.94225e+6 
            895      6.50155e+6 
            905       6.8122e+6 
            915      1.34101e+7 
            925      6.24914e+7 
            935      1.91406e+8 
            945      7.97184e+8 
            955      1.77149e+9 
            965      2.60499e+9 
            975      4.11554e+8 
            985      3.32043e+9 
            995      3.19516e+9 
           1005      3.95593e+9 
           1015      3.57186e+9 
           1025      5.99647e+8 
           1035      2.10421e+9 
           1045      5.14403e+9 
           1055      5.03208e+9 
           1065      3.90107e+9 
           1075      4.95645e+9 
           1085      4.38036e+9 
           1095      5.10883e+9 
           1105      4.11864e+9 
           1115      3.76207e+9 
           1125      3.84967e+9 
           1135      5.10075e+9 
           1145      4.32239e+9 
           1155      4.72936e+9 
           1165      5.02852e+9 
           1175      3.87719e+9 
           1185      4.98791e+9 
           1195      2.36768e+9 
           1205      1.15601e+9 
           1215      5.20399e+8 
           1225      2.21716e+9 
           1235      4.65742e+9 
           1245      5.12927e+9 
           1255      4.95792e+9 
           1265      4.21007e+9 
           1275      4.70835e+9 
           1285      5.10261e+9 
           1295      2.76332e+9 
           1305      2.18535e+9 
           1315      4.64522e+9 
           1325      4.53137e+9 
           1335      3.94036e+9 
           1345      4.60774e+9 
           1355      4.45257e+9 
           1365      3.86349e+9 
           1375      3.99361e+9 
           1385      4.05477e+9 
           1395      3.44163e+9 
           1405      3.64549e+9 
           1415      3.62895e+9 
           1425       3.8025e+9 
           1435       3.7817e+9 
           1442      4.02336e+9 
           1447      3.98247e+9 
           1455      3.88363e+9 
           1465      3.64508e+9 
           1475      3.56639e+9 
           1485      3.49989e+9 
           1495      3.53734e+9 
           1505      3.25431e+9 
           1512      2.97195e+9 
           1517      3.15801e+9 
           1525      3.17939e+9 
           1535      2.84071e+9 
           1545      2.97324e+9 
           1555      2.79849e+9 
           1565      2.82452e+9 
           1575       2.9906e+9 
           1585      3.01911e+9 
           1595      3.06726e+9 
           1605      2.98456e+9 
           1615       2.9987e+9 
           1625      2.84292e+9 
           1635      2.98089e+9 
           1645      2.96787e+9 
           1655      2.74725e+9 
           1665      2.96983e+9 
           1672      2.84247e+9 
           1677      2.90632e+9 
           1685      2.96702e+9 
           1695      2.80165e+9 
           1705      2.65497e+9 
           1715      2.48781e+9 
           1725      2.47057e+9 
           1735       2.5906e+9 
           1745      2.50285e+9 
           1755      2.58865e+9 
           1765      2.39844e+9 
           1775      2.41334e+9 
           1785      2.42398e+9 
           1795      2.54179e+9 
           1805      2.52677e+9 
           1815      2.29419e+9 
           1825      2.37668e+9 
           1835      2.25944e+9 
           1845      2.09468e+9 
           1855      2.01556e+9 
           1865      2.05693e+9 
           1875      2.23994e+9 
           1885      2.03408e+9 
           1895      1.90881e+9 
           1905       2.0597e+9 
           1915      1.93983e+9 
           1925      1.88801e+9 
           1935      1.96684e+9 
           1945      1.97236e+9 
           1955      1.83879e+9 
           1967      1.99714e+9 
           1976      2.06524e+9 
           1984      1.92181e+9 
           1995      1.86622e+9 
           2005      1.92131e+9 
           2015      1.82824e+9 
           2025      1.95869e+9 
           2035      1.80749e+9 
           2045      1.83688e+9 
           2055       1.7409e+9 
           2065      1.78796e+9 
           2074      1.85095e+9 
           2078      1.73085e+9 
           2085      1.79888e+9 
           2095      1.69446e+9 
           2105      1.72703e+9 
           2115      1.72404e+9 
           2125      1.74873e+9 
           2135      1.67586e+9 
           2145      1.64479e+9 
           2155      1.69949e+9 
           2165      1.65988e+9 
           2175      1.63931e+9 
           2185      1.59002e+9 
           2195      1.62154e+9 
           2205      1.58246e+9 
           2215      1.54048e+9 
           2225      1.47796e+9 
           2235      1.53083e+9 
           2245      1.50115e+9 
           2255       1.4409e+9 
           2265      1.47263e+9 
           2275       1.4798e+9 
           2285      1.48564e+9 
           2295      1.42351e+9 
           2305      1.40296e+9 
           2315      1.35776e+9 
           2325       1.3422e+9 
           2335      1.27932e+9 
           2345      1.26295e+9 
           2355      1.28098e+9 
           2365      1.23542e+9 
           2375      1.24761e+9 
           2385       1.2024e+9 
           2395      1.24873e+9 
           2405      1.19512e+9 
           2415      1.20249e+9 
           2425      1.21642e+9 
           2435      1.16331e+9 
           2445      1.19295e+9 
           2455      1.17594e+9 
           2465      1.16071e+9 
           2475      1.13272e+9 
           2485      1.16321e+9 
           2495      1.11923e+9 
           2505      1.14849e+9 
           2513      1.09269e+9 
           2518      1.12383e+9 
           2525      1.07784e+9 
           2535      1.07281e+9 
           2545      1.03607e+9 
           2555      1.07005e+9 
           2565      1.05416e+9 
           2575      1.08173e+9 
           2585      1.07704e+9 
           2595      1.07279e+9 
           2605      1.04908e+9 
           2615      1.04035e+9 
           2625      1.03397e+9 
           2635      1.03113e+9 
           2645      1.04876e+9 
           2655       1.0389e+9 
           2665      1.00104e+9 
           2675      1.01558e+9 
           2685      1.00489e+9 
           2695       9.8329e+8 
           2705      9.81542e+8 
           2715      9.62621e+8 
           2725      9.48872e+8 
           2735      9.63149e+8 
           2745      9.14097e+8 
           2755      9.09707e+8 
           2765      9.13684e+8 
           2775      9.25407e+8 
           2785      9.16685e+8 
           2795      8.62058e+8 
           2805      8.89056e+8 
           2815      8.98534e+8 
           2825      8.84348e+8 
           2835      8.51449e+8 
           2845       8.4566e+8 
           2855       8.4839e+8 
           2865      8.57348e+8 
           2875      8.42188e+8 
           2885      8.38849e+8 
           2895      8.32884e+8 
           2910      8.27345e+8 
           2930      8.06697e+8 
           2950      7.89563e+8 
           2970      7.81741e+8 
           2990      7.65671e+8 
           3010      7.57692e+8 
           3030       7.4883e+8 
           3050      7.33493e+8 
           3070       7.2037e+8 
           3090      7.07327e+8 
           3110       6.9413e+8 
           3130      6.84788e+8 
           3150      6.72741e+8 
           3170      6.60417e+8 
           3190      6.41019e+8 
           3210      6.36895e+8 
           3230      6.27262e+8 
           3250      6.18032e+8 
           3270      6.08945e+8 
           3290      5.98919e+8 
           3310      5.90534e+8 
           3330      5.79963e+8 
           3350      5.68862e+8 
           3370      5.60637e+8 
           3390      5.51977e+8 
           3410      5.43901e+8 
           3430       5.3383e+8 
           3450      5.24209e+8 
           3470        5.164e+8 
           3490      5.08426e+8 
           3510      5.01762e+8 
           3530       4.9449e+8 
           3550      4.86991e+8 
           3570       4.8081e+8 
           3590      4.70704e+8 
           3610      4.64028e+8 
           3630      4.57185e+8 
           3640      4.55814e+8 
           3650      4.51962e+8 
           3670      4.46658e+8 
           3690      4.35632e+8 
           3710      4.23831e+8 
           3730      4.11554e+8 
           3750      4.55826e+8 
           3770      4.64335e+8 
           3790      5.04007e+8 
           3810      5.34752e+8 
           3830      4.56578e+8 
           3850      5.53155e+8 
           3870      5.67425e+8 
           3890      4.28386e+8 
           3910      5.64548e+8 
           3930      5.50109e+8 
           3950      5.46218e+8 
           3970      3.99989e+8 
           3990      5.21407e+8 
           4010      5.26129e+8 
           4030      4.94105e+8 
           4050      5.15535e+8 
           4070      4.98496e+8 
           4090      4.52442e+8 
           4110      3.85358e+8 
           4130      4.66536e+8 
           4150      4.66534e+8 
           4170       4.6428e+8 
           4190      4.60201e+8 
           4210      4.55053e+8 
           4230      4.47012e+8 
           4250      4.38581e+8 
           4270      4.25618e+8 
           4290       4.2391e+8 
           4310      4.14205e+8 
           4330      3.64615e+8 
           4350      3.28022e+8 
           4370      3.93125e+8 
           4390      3.81439e+8 
           4410      3.86859e+8 
           4430      3.79188e+8 
           4450      3.77196e+8 
           4470      3.54992e+8 
           4490      3.61255e+8 
           4510      3.61151e+8 
           4530      3.53728e+8 
           4550      3.48969e+8 
           4570      3.44677e+8 
           4590      3.39445e+8 
           4610      3.34272e+8 
           4630       3.2828e+8 
           4650      3.23075e+8 
           4670      3.19657e+8 
           4690      3.16235e+8 
           4710      3.04334e+8 
           4730      3.04577e+8 
           4750      2.99931e+8 
           4770      2.99011e+8 
           4790      2.93842e+8 
           4810       2.8717e+8 
           4830      2.81325e+8 
           4850      2.54506e+8 
           4870      2.23319e+8 
           4890       2.6958e+8 
           4910      2.68122e+8 
           4930      2.58697e+8 
           4950      2.62454e+8 
           4970      2.59629e+8 
           4990      2.55464e+8 
           5010      2.45984e+8 
           5030      2.47382e+8 
           5050      2.40049e+8 
           5070      2.41896e+8 
           5090      2.38254e+8 
           5110      2.34387e+8 
           5130      2.31203e+8 
           5150      2.27863e+8 
           5170       2.2585e+8 
           5190      2.22728e+8 
           5210      2.17024e+8 
           5230       2.1713e+8 
           5250      2.14454e+8 
           5270      2.11093e+8 
           5290      2.09284e+8 
           5310      2.06281e+8 
           5330      2.03065e+8 
           5350       2.0001e+8 
           5370      1.98614e+8 
           5390      1.96106e+8 
           5410      1.93152e+8 
           5430      1.90046e+8 
           5450      1.87994e+8 
           5470      1.85199e+8 
           5490      1.83977e+8 
           5510      1.81353e+8 
           5530      1.79058e+8 
           5550      1.77073e+8 
           5570      1.74662e+8 
           5590      1.72788e+8 
           5610      1.70313e+8 
           5630      1.68879e+8 
           5650      1.64724e+8 
           5670      1.63165e+8 
           5690      1.62078e+8 
           5710      1.60598e+8 
           5730      1.58768e+8 
           5750      1.56754e+8 
           5770      1.55024e+8 
           5790      1.53134e+8 
           5810      1.51133e+8 
           5830      1.49367e+8 
           5850      1.47642e+8 
           5870      1.41849e+8 
           5890      1.43385e+8 
           5910      1.42352e+8 
           5930       1.4089e+8 
           5950      1.38433e+8 
           5970       1.3756e+8 
           5990      1.35593e+8 
           6010      1.34546e+8 
           6030      1.32909e+8 
           6050      1.31414e+8 
           6070      1.29875e+8 
           6090      1.28231e+8 
           6110      1.26999e+8 
           6130       1.2557e+8 
           6150       1.2331e+8 
           6170      1.22611e+8 
           6190      1.21358e+8 
           6210      1.19943e+8 
           6230      1.18582e+8 
           6250       1.1685e+8 
           6270      1.15876e+8 
           6290      1.14559e+8 
           6310      1.13077e+8 
           6330      1.12101e+8 
           6350      1.09957e+8 
           6370      1.09109e+8 
           6390      1.08308e+8 
           6410      1.07064e+8 
           6430      1.06217e+8 
           6450      1.04871e+8 
           6470      1.03783e+8 
           6490       1.0267e+8 
           6510      1.01205e+8 
           6530      9.96669e+7 
           6550      9.38871e+7 
           6570      8.19451e+7 
           6590      9.53706e+7 
           6610      9.59239e+7 
           6630      9.52689e+7 
           6650      9.43219e+7 
           6670      9.24869e+7 
           6690       9.1598e+7 
           6710      9.13456e+7 
           6730      9.04292e+7 
           6750      8.95386e+7 
           6770      8.86323e+7 
           6790      8.74572e+7 
           6810      8.67493e+7 
           6830      8.57413e+7 
           6850      8.50085e+7 
           6870      8.41471e+7 
           6890      8.32863e+7 
           6910      8.24262e+7 
           6930      8.14177e+7 
           6950      8.07704e+7 
           6970       7.9974e+7 
           6990      7.91238e+7 
           7010      7.82896e+7 
           7030      7.75094e+7 
           7050       7.6661e+7 
           7070      7.49458e+7 
           7090      7.52888e+7 
           7110      7.44522e+7 
           7130      7.37291e+7 
           7150       7.2976e+7 
           7170      7.23049e+7 
           7190      7.16284e+7 
           7210      7.09388e+7 
           7230      6.96352e+7 
           7250      6.94451e+7 
           7270      6.88775e+7 
           7290      6.78032e+7 
           7310      6.75335e+7 
           7330      6.68878e+7 
           7350      6.62649e+7 
           7370      6.56255e+7 
           7390      6.49949e+7 
           7410      6.43762e+7 
           7430      6.36268e+7 
           7450      6.30997e+7 
           7470      6.24247e+7 
           7490      6.18742e+7 
           7510       6.1332e+7 
           7530      6.07668e+7 
           7550      6.02106e+7 
           7570      5.96595e+7 
           7590      5.90578e+7 
           7610      5.85552e+7 
           7630      5.80073e+7 
           7650      5.74655e+7 
           7670      5.69363e+7 
           7690      5.64048e+7 
           7710      5.58901e+7 
           7730      5.53554e+7 
           7750      5.48618e+7 
           7770      5.37761e+7 
           7790      5.38647e+7 
           7810       5.3365e+7 
           7830      5.28979e+7 
           7850      5.22063e+7 
           7870      5.17929e+7 
           7890      5.11929e+7 
           7910      5.09964e+7 
           7930      5.05711e+7 
           7950      4.98753e+7 
           7970      4.96265e+7 
           7990       4.8878e+7 
           8010      4.87775e+7 
           8030      4.83291e+7 
           8050      4.78695e+7 
           8070      4.74885e+7 
           8090      4.70249e+7 
           8110      4.66042e+7 
           8130      4.62071e+7 
           8150      4.57934e+7 
           8170      4.54425e+7 
           8190       4.4995e+7 
           8210      4.44553e+7 
           8230       4.3992e+7 
           8250      4.38769e+7 
           8270      4.33802e+7 
           8290      4.31075e+7 
           8310      4.27279e+7 
           8330      4.24024e+7 
           8350      4.19164e+7 
           8370      4.15878e+7 
           8390      4.13245e+7 
           8410      4.09321e+7 
           8430      4.05155e+7 
           8450       3.9781e+7 
           8470      3.96475e+7 
           8490      3.94525e+7 
           8510      3.87107e+7 
           8530      3.89855e+7 
           8550       3.7363e+7 
           8570      3.88538e+7 
           8590      3.69494e+7 
