# Kurucz ODFNEW /NOVER (2003)
# teff = 9750 K (value for the effective temperature for the model. Temperatures are given in K)
# logg = 4 log(cm/s2) (value for Log(G) for the model.)
# meta = -1  (value for the Metallicity for the model.)
# lh = 1.25  (l/Hp where l is the  mixing length of the convective element and Hp is the pressure scale height)
# vtur = 2 km/s (Microturbulence velocity)
# alpha = 0  (Alpha)
#
# column 1: WAVELENGTH (ANGSTROM), Wavelength in Angstrom
# column 2: FLUX (ERG/CM2/S/A), Flux in erg/cm2/s/A
            264     4.01956e-23 
          268.5     1.88547e-22 
          273.5     8.13369e-22 
          278.5     3.28026e-21 
            284     1.43165e-20 
            290     6.69423e-20 
            296     2.93649e-19 
            301     9.63186e-19 
            308     4.75677e-18 
            318     4.11547e-17 
            328     3.11646e-16 
            338     2.08836e-15 
            348     1.25247e-14 
            357     5.75163e-14 
            366     2.44626e-13 
            375     9.68419e-13 
            385     4.13417e-12 
            395     1.63569e-11 
            405     6.03456e-11 
            414      1.8483e-10 
            422     4.79532e-10 
            430      1.19881e-9 
            441      3.99547e-9 
            451      1.13163e-8 
            460      2.77402e-8 
            470      7.20374e-8 
            480      1.79421e-7 
            490       4.2992e-7 
            500      9.92803e-7 
            506      1.76641e-6 
            512      2.94349e-6 
            520      5.40908e-6 
            530      1.12965e-5 
            540      2.27976e-5 
            550      4.50083e-5 
            560      8.64051e-5 
            570     0.000161916 
            580     0.000295706 
            590     0.000531415 
            600     0.000932876 
            610      0.00160624 
            620      0.00271394 
            630      0.00450471 
            640      0.00735202 
            650       0.0118083 
            658       0.0170595 
            665       0.0233556 
            675       0.0361404 
            685       0.0551632 
            695        0.083118 
            705        0.123647 
            716        0.188792 
            726        0.274044 
            735        0.379662 
            745        0.539934 
            755        0.760167 
            765         1.05978 
            775         1.46376 
            785         2.00382 
            795         2.71908 
            805         3.65983 
            815         4.88647 
            825         6.47435 
            835         8.51393 
            845         11.1179 
            855         14.4178 
            865          18.573 
            875         23.7726 
            885         30.2418 
            895         38.2427 
            905         48.0764 
            915          239.13 
            925         1567.37 
            935         2735.11 
            945         5063.14 
            955         7887.14 
            965         10629.2 
            975         7711.93 
            985         17615.2 
            995         22416.7 
           1005         25629.6 
           1015         23467.3 
           1025         13297.1 
           1035         29482.5 
           1045         43778.3 
           1055           70961 
           1065          108549 
           1075          169241 
           1085          225063 
           1095          250543 
           1105       2.6336e+6 
           1115      2.53754e+7 
           1125      3.15046e+7 
           1135      3.57947e+7 
           1145      2.99366e+7 
           1155      2.41594e+7 
           1165      1.69359e+7 
           1175      6.71612e+6 
           1185      3.22556e+6 
           1195          164568 
           1205          114950 
           1215         34630.3 
           1225          123212 
           1235          250433 
           1245          820139 
           1255      6.92525e+6 
           1265      1.67327e+7 
           1275       3.6458e+7 
           1285      6.01795e+7 
           1295      6.99893e+7 
           1305      5.84132e+7 
           1315      8.51703e+7 
           1325        9.652e+7 
           1335      1.00125e+8 
           1345      1.14354e+8 
           1355      1.07914e+8 
           1365      1.02014e+8 
           1375      1.05639e+8 
           1385      1.01236e+8 
           1395      1.01569e+8 
           1405      1.14586e+8 
           1415       1.1902e+8 
           1425       1.2478e+8 
           1435      1.15484e+8 
           1442      1.27294e+8 
           1447      1.31927e+8 
           1455      1.33274e+8 
           1465      1.25733e+8 
           1475      1.22905e+8 
           1485      1.24622e+8 
           1495      1.29199e+8 
           1505      1.30834e+8 
           1512      1.25836e+8 
           1517      1.31243e+8 
           1525      1.25849e+8 
           1535      1.24178e+8 
           1545      1.29124e+8 
           1555      1.17793e+8 
           1565       1.0523e+8 
           1575      1.15476e+8 
           1585      1.21934e+8 
           1595      1.26658e+8 
           1605      1.20301e+8 
           1615      1.20923e+8 
           1625      1.12638e+8 
           1635      1.15955e+8 
           1645       1.2021e+8 
           1655      1.04355e+8 
           1665      1.19109e+8 
           1672      1.02046e+8 
           1677      1.12375e+8 
           1685      1.19619e+8 
           1695      1.12268e+8 
           1705       1.1034e+8 
           1715      1.12248e+8 
           1725      1.10048e+8 
           1735      1.13848e+8 
           1745      1.10889e+8 
           1755      1.15438e+8 
           1765      1.05439e+8 
           1775      1.12916e+8 
           1785      1.11171e+8 
           1795      1.15992e+8 
           1805      1.11671e+8 
           1815      1.10535e+8 
           1825      1.06987e+8 
           1835       1.0618e+8 
           1845      1.01164e+8 
           1855      1.03573e+8 
           1865      1.03824e+8 
           1875      1.06075e+8 
           1885      1.05931e+8 
           1895      1.04283e+8 
           1905      1.01208e+8 
           1915      1.02164e+8 
           1925      1.02874e+8 
           1935      1.00571e+8 
           1945      1.04165e+8 
           1955      1.02994e+8 
           1967      1.03435e+8 
           1976       1.0125e+8 
           1984      9.99761e+7 
           1995      9.85264e+7 
           2005      9.68339e+7 
           2015      9.37318e+7 
           2025       9.3727e+7 
           2035      9.55372e+7 
           2045      9.60105e+7 
           2055      9.27678e+7 
           2065      9.21543e+7 
           2074      9.41588e+7 
           2078      9.53932e+7 
           2085      9.50744e+7 
           2095      9.24866e+7 
           2105      9.19075e+7 
           2115      9.13352e+7 
           2125      9.11868e+7 
           2135      8.44169e+7 
           2145      8.96908e+7 
           2155      8.89739e+7 
           2165      8.58793e+7 
           2175      8.50834e+7 
           2185      8.49613e+7 
           2195       8.8208e+7 
           2205      8.51472e+7 
           2215      8.06253e+7 
           2225      8.02218e+7 
           2235      8.53882e+7 
           2245      8.04358e+7 
           2255      7.88276e+7 
           2265      7.83607e+7 
           2275      8.17932e+7 
           2285      8.27167e+7 
           2295      7.91722e+7 
           2305      7.88271e+7 
           2315      7.75851e+7 
           2325      7.78391e+7 
           2335      7.64345e+7 
           2345      7.15844e+7 
           2355      7.61471e+7 
           2365      7.18269e+7 
           2375      7.42222e+7 
           2385        6.821e+7 
           2395      7.24623e+7 
           2405      7.03499e+7 
           2415      7.11573e+7 
           2425      7.28458e+7 
           2435      7.01139e+7 
           2445      7.28437e+7 
           2455      7.11951e+7 
           2465      7.03086e+7 
           2475      6.82164e+7 
           2485      7.09324e+7 
           2495      6.91061e+7 
           2505      7.25419e+7 
           2513      6.93605e+7 
           2518      6.94181e+7 
           2525      6.60202e+7 
           2535      6.56703e+7 
           2545      6.56671e+7 
           2555      6.84262e+7 
           2565      6.79968e+7 
           2575      7.04071e+7 
           2585      7.05061e+7 
           2595       7.0182e+7 
           2605      6.80786e+7 
           2615      6.76691e+7 
           2625      6.84886e+7 
           2635      6.88812e+7 
           2645      7.26209e+7 
           2655      7.18557e+7 
           2665      6.91745e+7 
           2675      7.02851e+7 
           2685      7.06613e+7 
           2695      6.86493e+7 
           2705      6.88429e+7 
           2715      6.70232e+7 
           2725      6.70091e+7 
           2735      6.92496e+7 
           2745      6.39313e+7 
           2755       6.4019e+7 
           2765      6.57151e+7 
           2775      6.76737e+7 
           2785      6.69894e+7 
           2795      5.97788e+7 
           2805       6.3294e+7 
           2815      6.79938e+7 
           2825      6.74708e+7 
           2835      6.59645e+7 
           2845      6.46358e+7 
           2855      6.35229e+7 
           2865      6.49528e+7 
           2875      6.40961e+7 
           2885      6.50466e+7 
           2895      6.45621e+7 
           2910      6.65986e+7 
           2930      6.47183e+7 
           2950      6.43763e+7 
           2970      6.43023e+7 
           2990      6.40686e+7 
           3010      6.43759e+7 
           3030      6.40172e+7 
           3050      6.33869e+7 
           3070      6.26557e+7 
           3090      6.27074e+7 
           3110      6.19852e+7 
           3130      6.13994e+7 
           3150      6.13056e+7 
           3170      6.09094e+7 
           3190      5.95372e+7 
           3210      5.98944e+7 
           3230      5.91008e+7 
           3250       5.9114e+7 
           3270      5.91012e+7 
           3290      5.89278e+7 
           3310      5.87027e+7 
           3330      5.79079e+7 
           3350      5.71179e+7 
           3370      5.69859e+7 
           3390      5.64991e+7 
           3410      5.66515e+7 
           3430      5.62553e+7 
           3450      5.59721e+7 
           3470      5.54915e+7 
           3490       5.5179e+7 
           3510      5.50167e+7 
           3530      5.47639e+7 
           3550      5.44386e+7 
           3570       5.3916e+7 
           3590      5.35888e+7 
           3610      5.32597e+7 
           3630      5.29289e+7 
           3640      5.27409e+7 
           3650      5.30885e+7 
           3670      5.28219e+7 
           3690      5.09035e+7 
           3710      5.20066e+7 
           3730      5.33593e+7 
           3750      6.79573e+7 
           3770      7.30457e+7 
           3790       9.1024e+7 
           3810      1.08053e+8 
           3830      8.50877e+7 
           3850      1.20289e+8 
           3870      1.37623e+8 
           3890       7.2201e+7 
           3910      1.36411e+8 
           3930      1.45346e+8 
           3950      1.35108e+8 
           3970      6.91125e+7 
           3990      1.27604e+8 
           4010      1.42847e+8 
           4030      1.42446e+8 
           4050      1.40551e+8 
           4070      1.34159e+8 
           4090      1.00803e+8 
           4110      7.57357e+7 
           4130      1.25856e+8 
           4150      1.31103e+8 
           4170       1.3041e+8 
           4190      1.29086e+8 
           4210      1.27465e+8 
           4230      1.25339e+8 
           4250      1.23724e+8 
           4270      1.21652e+8 
           4290      1.19274e+8 
           4310      1.12937e+8 
           4330      8.17119e+7 
           4350      6.89292e+7 
           4370       1.0759e+8 
           4390       1.1088e+8 
           4410      1.10812e+8 
           4430      1.09881e+8 
           4450      1.08796e+8 
           4470      1.07318e+8 
           4490      1.05198e+8 
           4510      1.04624e+8 
           4530      1.03262e+8 
           4550      1.01497e+8 
           4570      1.00804e+8 
           4590      9.93121e+7 
           4610       9.8493e+7 
           4630      9.69164e+7 
           4650      9.60218e+7 
           4670      9.47865e+7 
           4690      9.34386e+7 
           4710      9.15837e+7 
           4730      9.12402e+7 
           4750      8.99659e+7 
           4770      8.87114e+7 
           4790       8.7317e+7 
           4810      8.53923e+7 
           4830      8.11468e+7 
           4850       6.1646e+7 
           4870      4.96277e+7 
           4890      7.61916e+7 
           4910      7.99867e+7 
           4930       7.9773e+7 
           4950       7.9448e+7 
           4970      7.87016e+7 
           4990      7.78662e+7 
           5010      7.67009e+7 
           5030      7.60669e+7 
           5050      7.50253e+7 
           5070      7.43496e+7 
           5090      7.34858e+7 
           5110       7.2626e+7 
           5130       7.1786e+7 
           5150      7.09341e+7 
           5170      6.96393e+7 
           5190      6.90491e+7 
           5210      6.85214e+7 
           5230       6.7603e+7 
           5250      6.70015e+7 
           5270      6.60598e+7 
           5290      6.54926e+7 
           5310      6.46407e+7 
           5330      6.39643e+7 
           5350      6.33303e+7 
           5370      6.25916e+7 
           5390      6.19075e+7 
           5410      6.11881e+7 
           5430       6.0535e+7 
           5450      5.98949e+7 
           5470      5.92361e+7 
           5490      5.85954e+7 
           5510      5.79561e+7 
           5530      5.73048e+7 
           5550      5.67127e+7 
           5570      5.60937e+7 
           5590      5.54905e+7 
           5610      5.49016e+7 
           5630      5.43173e+7 
           5650      5.37305e+7 
           5670      5.31576e+7 
           5690      5.26007e+7 
           5710      5.20445e+7 
           5730      5.14994e+7 
           5750      5.09538e+7 
           5770      5.04201e+7 
           5790      4.98903e+7 
           5810      4.93722e+7 
           5830      4.88589e+7 
           5850      4.83526e+7 
           5870       4.7805e+7 
           5890      4.72702e+7 
           5910       4.6871e+7 
           5930      4.63936e+7 
           5950      4.59088e+7 
           5970      4.54474e+7 
           5990      4.49754e+7 
           6010      4.45253e+7 
           6030      4.40812e+7 
           6050      4.36369e+7 
           6070      4.32005e+7 
           6090      4.27679e+7 
           6110      4.23401e+7 
           6130      4.19159e+7 
           6150      4.14385e+7 
           6170      4.10862e+7 
           6190      4.06854e+7 
           6210       4.0286e+7 
           6230       3.9887e+7 
           6250      3.94634e+7 
           6270      3.91133e+7 
           6290      3.87326e+7 
           6310      3.83465e+7 
           6330      3.79814e+7 
           6350       3.7523e+7 
           6370      3.72023e+7 
           6390      3.68886e+7 
           6410      3.65286e+7 
           6430       3.6175e+7 
           6450      3.57229e+7 
           6470      3.53628e+7 
           6490      3.49127e+7 
           6510      3.43269e+7 
           6530      3.31248e+7 
           6550      2.83865e+7 
           6570      2.28892e+7 
           6590       3.1093e+7 
           6610      3.25167e+7 
           6630      3.26182e+7 
           6650      3.24555e+7 
           6670      3.22121e+7 
           6690       3.1976e+7 
           6710      3.17145e+7 
           6730      3.14165e+7 
           6750      3.11314e+7 
           6770      3.08516e+7 
           6790      3.05696e+7 
           6810      3.02912e+7 
           6830      3.00131e+7 
           6850      2.97417e+7 
           6870      2.94738e+7 
           6890      2.92085e+7 
           6910       2.8945e+7 
           6930      2.86841e+7 
           6950       2.8428e+7 
           6970      2.81743e+7 
           6990      2.79239e+7 
           7010      2.76674e+7 
           7030      2.74271e+7 
           7050      2.71845e+7 
           7070      2.69443e+7 
           7090      2.67093e+7 
           7110      2.64467e+7 
           7130      2.62385e+7 
           7150      2.60087e+7 
           7170      2.57846e+7 
           7190      2.55598e+7 
           7210      2.53377e+7 
           7230       2.5117e+7 
           7250      2.48984e+7 
           7270      2.46874e+7 
           7290      2.44728e+7 
           7310      2.42622e+7 
           7330      2.40556e+7 
           7350      2.38517e+7 
           7370      2.36482e+7 
           7390      2.34466e+7 
           7410      2.32454e+7 
           7430      2.30419e+7 
           7450      2.28505e+7 
           7470      2.26493e+7 
           7490      2.24654e+7 
           7510      2.22804e+7 
           7530      2.20965e+7 
           7550      2.19135e+7 
           7570      2.17308e+7 
           7590      2.15497e+7 
           7610      2.13709e+7 
           7630      2.11943e+7 
           7650      2.10173e+7 
           7670      2.08438e+7 
           7690      2.06737e+7 
           7710      2.05013e+7 
           7730      2.03367e+7 
           7750      2.01704e+7 
           7770      1.98071e+7 
           7790      1.98434e+7 
           7810       1.9682e+7 
           7830      1.95213e+7 
           7850      1.93609e+7 
           7870       1.9189e+7 
           7890      1.90216e+7 
           7910      1.88967e+7 
           7930      1.87475e+7 
           7950      1.85884e+7 
           7970      1.84507e+7 
           7990      1.82688e+7 
           8010      1.81577e+7 
           8030       1.8013e+7 
           8050      1.78713e+7 
           8070      1.77296e+7 
           8090      1.75897e+7 
           8110       1.7452e+7 
           8130      1.73155e+7 
           8150      1.71796e+7 
           8170      1.70454e+7 
           8190      1.68982e+7 
           8210      1.68339e+7 
           8230      1.67093e+7 
           8250      1.65913e+7 
           8270      1.64941e+7 
           8290      1.63751e+7 
           8310      1.62609e+7 
           8330      1.61227e+7 
           8350      1.60196e+7 
           8370      1.58894e+7 
           8390       1.5749e+7 
           8410      1.56028e+7 
           8430      1.54694e+7 
           8450      1.52807e+7 
           8470       1.4997e+7 
           8490      1.51648e+7 
           8510      1.45079e+7 
           8530      1.50752e+7 
           8550       1.3755e+7 
           8570      1.51569e+7 
           8590       1.4025e+7 
           8610      1.36738e+7 
           8630        1.526e+7 
           8650      1.45032e+7 
           8670      1.20949e+7 
           8690      1.48744e+7 
           8710      1.54681e+7 
           8730      1.46944e+7 
           8750      1.14683e+7 
           8770       1.3849e+7 
           8790      1.53463e+7 
           8810      1.55325e+7 
           8830       1.5051e+7 
           8850      1.30687e+7 
           8870      1.10136e+7 
           8890      1.40921e+7 
           8910      1.49637e+7 
           8930      1.50923e+7 
           8950      1.50254e+7 
           8970       1.4701e+7 
           8990      1.37663e+7 
           9010      1.07696e+7 
           9030      1.17716e+7 
           9050       1.3802e+7 
           9070      1.42119e+7 
           9090      1.42142e+7 
           9110      1.42603e+7 
           9130      1.41916e+7 
           9150      1.40576e+7 
           9170      1.38441e+7 
