# Kurucz ODFNEW /NOVER (2003)
# teff = 26000 K (value for the effective temperature for the model. Temperatures are given in K)
# logg = 3.5 log(cm/s2) (value for Log(G) for the model.)
# meta = -1.5  (value for the Metallicity for the model.)
# lh = 1.25  (l/Hp where l is the  mixing length of the convective element and Hp is the pressure scale height)
# vtur = 2 km/s (Microturbulence velocity)
# alpha = 0  (Alpha)
#
# column 1: WAVELENGTH (ANGSTROM), Wavelength in Angstrom
# column 2: FLUX (ERG/CM2/S/A), Flux in erg/cm2/s/A
          147.2     9.76117e-13 
            151     4.20051e-12 
          155.2     1.93784e-11 
          158.8     6.73655e-11 
            162     1.94566e-10 
            166     6.90994e-10 
          170.3      2.52222e-9 
          173.4      6.16122e-9 
          176.8      1.58112e-8 
          180.2      3.91324e-8 
          181.7      5.77323e-8 
          186.1      1.74217e-7 
            191      5.60731e-7 
          193.9      1.08799e-6 
          198.4      2.92607e-6 
          201.8      5.99787e-6 
            205      1.15273e-5 
          210.5      3.37856e-5 
          216.2      9.71192e-5 
          219.8     0.000183756 
            223     0.000318139 
          226.8      0.00059791 
            230       0.0817624 
            234        0.198251 
            240        0.431401 
          246.5        0.974339 
          252.4         1.97934 
          256.8         2.86759 
            260         4.60301 
            264         6.87503 
          268.5         10.9394 
          273.5         17.8448 
          278.5         28.4919 
            284         47.5489 
            290         79.3864 
            296         129.582 
            301         186.728 
            308         293.174 
            318         675.605 
            328         1299.98 
            338         2473.39 
            348         4447.81 
            357         7666.78 
            366         12518.3 
            375         19110.1 
            385         30796.6 
            395         47875.6 
            405         72268.2 
            414          103834 
            422          138349 
            430          184632 
            441          269625 
            451          374375 
            460          490638 
            470          663975 
            480          876910 
            490      1.14859e+6 
            500      1.48941e+6 
            506      1.08127e+7 
            512      3.31757e+7 
            520      3.66433e+7 
            530      4.30147e+7 
            540      4.39543e+7 
            550      5.63052e+7 
            560       6.3352e+7 
            570      7.25642e+7 
            580      7.11743e+7 
            590      8.69714e+7 
            600       9.6471e+7 
            610      1.08048e+8 
            620      1.18262e+8 
            630      1.29677e+8 
            640      1.35369e+8 
            650      1.47268e+8 
            658      1.61494e+8 
            665      1.71776e+8 
            675      1.79391e+8 
            685      1.89206e+8 
            695      2.15856e+8 
            705      2.23843e+8 
            716      2.47037e+8 
            726      2.59527e+8 
            735       2.7448e+8 
            745      2.97352e+8 
            755      3.14767e+8 
            765      3.33673e+8 
            775      3.54723e+8 
            785      3.77582e+8 
            795       3.9412e+8 
            805      4.13805e+8 
            815       4.2881e+8 
            825      4.55767e+8 
            835      4.52578e+8 
            845      4.89536e+8 
            855      5.09325e+8 
            865      5.34463e+8 
            875      5.62615e+8 
            885      5.89415e+8 
            895       6.1239e+8 
            905      6.27633e+8 
            915      1.03984e+9 
            925      9.39859e+9 
            935     1.83378e+10 
            945     2.98831e+10 
            955     3.27787e+10 
            965     3.73256e+10 
            975     1.83022e+10 
            985     3.51846e+10 
            995     3.32891e+10 
           1005     3.46355e+10 
           1015     3.37417e+10 
           1025     2.19901e+10 
           1035     3.10721e+10 
           1045     3.54469e+10 
           1055     3.41249e+10 
           1065      3.0981e+10 
           1075     3.22955e+10 
           1085      3.0082e+10 
           1095     3.19286e+10 
           1105     3.06481e+10 
           1115     3.02559e+10 
           1125      2.7885e+10 
           1135     2.95073e+10 
           1145     2.78211e+10 
           1155     2.82683e+10 
           1165     2.79239e+10 
           1175     2.28413e+10 
           1185     2.64497e+10 
           1195     2.54465e+10 
           1205     2.30769e+10 
           1215     1.54101e+10 
           1225      2.3953e+10 
           1235     2.45833e+10 
           1245     2.39202e+10 
           1255     2.37384e+10 
           1265     2.33476e+10 
           1275      2.3244e+10 
           1285     2.28288e+10 
           1295     2.09011e+10 
           1305     2.11936e+10 
           1315     2.16157e+10 
           1325     2.08898e+10 
           1335     2.01521e+10 
           1345     2.02075e+10 
           1355     2.01141e+10 
           1365     1.94772e+10 
           1375     1.91429e+10 
           1385     1.88675e+10 
           1395     1.71464e+10 
           1405     1.72723e+10 
           1415     1.76966e+10 
           1425     1.71869e+10 
           1435     1.71736e+10 
           1442     1.71517e+10 
           1447     1.69243e+10 
           1455      1.6614e+10 
           1465     1.62298e+10 
           1475     1.59847e+10 
           1485     1.57452e+10 
           1495     1.54113e+10 
           1505      1.4909e+10 
           1512     1.45366e+10 
           1517     1.45456e+10 
           1525     1.43401e+10 
           1535     1.34235e+10 
           1545     1.32463e+10 
           1555     1.28165e+10 
           1565     1.30713e+10 
           1575     1.31464e+10 
           1585     1.29951e+10 
           1595     1.28284e+10 
           1605     1.22951e+10 
           1615     1.20438e+10 
           1625     1.20081e+10 
           1635     1.19863e+10 
           1645     1.15905e+10 
           1655      1.1684e+10 
           1665     1.15221e+10 
           1672      1.1289e+10 
           1677     1.15532e+10 
           1685     1.13075e+10 
           1695     1.10302e+10 
           1705     1.07644e+10 
           1715     1.04505e+10 
           1725     1.03178e+10 
           1735      1.0302e+10 
           1745     1.01177e+10 
           1755     1.00322e+10 
           1765      9.75242e+9 
           1775      9.58162e+9 
           1785      9.54101e+9 
           1795      9.44728e+9 
           1805      9.38382e+9 
           1815      9.07245e+9 
           1825      9.00565e+9 
           1835      8.87286e+9 
           1845      8.39523e+9 
           1855      8.27386e+9 
           1865      8.30712e+9 
           1875      8.31229e+9 
           1885      7.82642e+9 
           1895      7.51093e+9 
           1905      7.74174e+9 
           1915      7.46232e+9 
           1925      7.26015e+9 
           1935      7.39378e+9 
           1945      7.41942e+9 
           1955      6.97379e+9 
           1967      7.13647e+9 
           1976      7.23939e+9 
           1984      6.93717e+9 
           1995      6.73158e+9 
           2005      6.79646e+9 
           2015      6.79514e+9 
           2025      6.78313e+9 
           2035      6.52432e+9 
           2045      6.44427e+9 
           2055      6.10079e+9 
           2065      6.02709e+9 
           2074      6.18342e+9 
           2078      5.99754e+9 
           2085       6.0622e+9 
           2095      5.93785e+9 
           2105      5.99167e+9 
           2115      5.95241e+9 
           2125      5.93114e+9 
           2135      5.83059e+9 
           2145      5.69341e+9 
           2155       5.6789e+9 
           2165      5.60735e+9 
           2175      5.52708e+9 
           2185      5.45443e+9 
           2195       5.4075e+9 
           2205      5.33245e+9 
           2215      5.25754e+9 
           2225      5.18192e+9 
           2235      5.10255e+9 
           2245      5.05697e+9 
           2255      4.97154e+9 
           2265       4.9251e+9 
           2275      4.86239e+9 
           2285       4.8016e+9 
           2295      4.64047e+9 
           2305      4.66652e+9 
           2315      4.60253e+9 
           2325      4.54455e+9 
           2335      4.47558e+9 
           2345      4.43558e+9 
           2355      4.38094e+9 
           2365      4.32598e+9 
           2375      4.26592e+9 
           2385      4.20572e+9 
           2395      4.15635e+9 
           2405      4.10662e+9 
           2415      4.05117e+9 
           2425      4.00745e+9 
           2435      3.94976e+9 
           2445      3.90529e+9 
           2455      3.86054e+9 
           2465      3.81217e+9 
           2475      3.76334e+9 
           2485      3.71609e+9 
           2495      3.51782e+9 
           2505      3.62169e+9 
           2513      3.54367e+9 
           2518       3.5608e+9 
           2525      3.53772e+9 
           2535      3.49556e+9 
           2545      3.42987e+9 
           2555      3.40342e+9 
           2565      3.36875e+9 
           2575      3.33047e+9 
           2585      3.29049e+9 
           2595      3.25175e+9 
           2605      3.23011e+9 
           2615       3.1913e+9 
           2625      3.15303e+9 
           2635      3.11097e+9 
           2645      3.07435e+9 
           2655      3.03659e+9 
           2665      2.99459e+9 
           2675      2.95966e+9 
           2685      2.94079e+9 
           2695      2.88343e+9 
           2705      2.86848e+9 
           2715      2.83727e+9 
           2725      2.78812e+9 
           2735      2.76918e+9 
           2745      2.73964e+9 
           2755      2.71031e+9 
           2765      2.66098e+9 
           2775      2.65127e+9 
           2785      2.62013e+9 
           2795      2.56833e+9 
           2805      2.55465e+9 
           2815      2.53401e+9 
           2825      2.48589e+9 
           2835      2.45807e+9 
           2845      2.45036e+9 
           2855      2.42153e+9 
           2865      2.39594e+9 
           2875      2.36982e+9 
           2885      2.34437e+9 
           2895      2.31813e+9 
           2910      2.27917e+9 
           2930      2.23074e+9 
           2950      2.16994e+9 
           2970      2.13629e+9 
           2990      2.09045e+9 
           3010      2.04388e+9 
           3030      2.00414e+9 
           3050      1.96272e+9 
           3070      1.92232e+9 
           3090      1.87684e+9 
           3110      1.84359e+9 
           3130      1.80657e+9 
           3150      1.77011e+9 
           3170      1.73341e+9 
           3190      1.68712e+9 
           3210      1.66412e+9 
           3230      1.63111e+9 
           3250      1.59908e+9 
           3270       1.5689e+9 
           3290      1.53621e+9 
           3310      1.50849e+9 
           3330      1.47897e+9 
           3350      1.44824e+9 
           3370      1.42267e+9 
           3390      1.39577e+9 
           3410      1.36934e+9 
           3430      1.33734e+9 
           3450      1.30783e+9 
           3470      1.28682e+9 
           3490       1.2629e+9 
           3510      1.24494e+9 
           3530       1.2231e+9 
           3550      1.20096e+9 
           3570      1.18397e+9 
           3590      1.15608e+9 
           3610      1.13663e+9 
           3630       1.1147e+9 
           3640       1.1114e+9 
           3650      1.08934e+9 
           3670      1.07417e+9 
           3690      1.04588e+9 
           3710      1.01741e+9 
           3730      9.90557e+8 
           3750      1.05227e+9 
           3770      1.04935e+9 
           3790       1.0761e+9 
           3810      1.10745e+9 
           3830      9.93515e+8 
           3850      1.11183e+9 
           3870       1.0989e+9 
           3890      9.47369e+8 
           3910      1.07444e+9 
           3930      1.05121e+9 
           3950      1.03743e+9 
           3970      8.78236e+8 
           3990      9.99723e+8 
           4010      9.84106e+8 
           4030      9.43418e+8 
           4050         9.57e+8 
           4070      9.35905e+8 
           4090      8.93151e+8 
           4110      8.03344e+8 
           4130       8.8362e+8 
           4150      8.71799e+8 
           4170      8.62178e+8 
           4190      8.49267e+8 
           4210      8.35733e+8 
           4230      8.22017e+8 
           4250      8.07624e+8 
           4270      7.91915e+8 
           4290      7.81232e+8 
           4310       7.6686e+8 
           4330      7.23021e+8 
           4350      6.67312e+8 
           4370      7.29889e+8 
           4390      7.08964e+8 
           4410       7.0803e+8 
           4430      6.96084e+8 
           4450      6.87102e+8 
           4470      6.58116e+8 
           4490      6.65515e+8 
           4510      6.55643e+8 
           4530      6.45387e+8 
           4550      6.34813e+8 
           4570      6.24903e+8 
           4590      6.15374e+8 
           4610      6.06129e+8 
           4630      5.96914e+8 
           4650      5.84682e+8 
           4670      5.78562e+8 
           4690      5.69271e+8 
           4710      5.55327e+8 
           4730      5.53217e+8 
           4750      5.44611e+8 
           4770      5.37388e+8 
           4790      5.29379e+8 
           4810      5.21388e+8 
           4830       5.1267e+8 
           4850      4.89008e+8 
           4870      4.44971e+8 
           4890      4.90131e+8 
           4910       4.8438e+8 
           4930      4.69732e+8 
           4950      4.70402e+8 
           4970      4.64016e+8 
           4990      4.57339e+8 
           5010      4.45935e+8 
           5030      4.44421e+8 
           5050      4.35974e+8 
           5070      4.31984e+8 
           5090      4.25891e+8 
           5110      4.19938e+8 
           5130      4.13964e+8 
           5150      4.08199e+8 
           5170      4.02651e+8 
           5190       3.9712e+8 
           5210      3.91648e+8 
           5230      3.86289e+8 
           5250      3.81014e+8 
           5270      3.75822e+8 
           5290      3.70737e+8 
           5310      3.65705e+8 
           5330      3.60804e+8 
           5350       3.5594e+8 
           5370      3.51203e+8 
           5390      3.46488e+8 
           5410      3.41807e+8 
           5430      3.37377e+8 
           5450      3.32902e+8 
           5470      3.28533e+8 
           5490      3.24219e+8 
           5510      3.19996e+8 
           5530      3.15813e+8 
           5550      3.11731e+8 
           5570      3.07674e+8 
           5590      3.03717e+8 
           5610      2.99807e+8 
           5630       2.9597e+8 
           5650      2.92155e+8 
           5670      2.88328e+8 
           5690      2.84513e+8 
           5710      2.81148e+8 
           5730      2.77617e+8 
           5750      2.74025e+8 
           5770      2.70715e+8 
           5790      2.67319e+8 
           5810      2.63998e+8 
           5830      2.60682e+8 
           5850      2.57472e+8 
           5870      2.48329e+8 
           5890      2.50957e+8 
           5910      2.48064e+8 
           5930       2.4499e+8 
           5950      2.42005e+8 
           5970      2.39128e+8 
           5990       2.3619e+8 
           6010      2.33359e+8 
           6030      2.30529e+8 
           6050      2.27782e+8 
           6070      2.25067e+8 
           6090      2.22372e+8 
           6110      2.19728e+8 
           6130      2.17124e+8 
           6150      2.14508e+8 
           6170      2.12002e+8 
           6190      2.09523e+8 
           6210      2.07072e+8 
           6230      2.04648e+8 
           6250       2.0226e+8 
           6270      1.99908e+8 
           6290      1.97591e+8 
           6310        1.953e+8 
           6330      1.93052e+8 
           6350       1.9082e+8 
           6370      1.88648e+8 
           6390      1.86491e+8 
           6410      1.84367e+8 
           6430      1.82274e+8 
           6450      1.80203e+8 
           6470      1.78137e+8 
           6490      1.76138e+8 
           6510      1.74177e+8 
           6530      1.72025e+8 
           6550      1.67209e+8 
           6570      1.51408e+8 
           6590       1.6568e+8 
           6610       1.6467e+8 
           6630      1.62872e+8 
           6650      1.61153e+8 
           6670      1.58164e+8 
           6690      1.56462e+8 
           6710      1.55924e+8 
           6730        1.542e+8 
           6750      1.52552e+8 
           6770      1.50896e+8 
           6790      1.49208e+8 
           6810       1.4765e+8 
           6830       1.4606e+8 
           6850      1.44502e+8 
           6870      1.42959e+8 
           6890      1.41424e+8 
           6910       1.3992e+8 
           6930      1.38439e+8 
           6950       1.3698e+8 
           6970      1.35536e+8 
           6990      1.34099e+8 
           7010      1.32698e+8 
           7030      1.31312e+8 
           7050      1.29939e+8 
           7070      1.26732e+8 
           7090      1.27255e+8 
           7110      1.25929e+8 
           7130      1.24631e+8 
           7150      1.23345e+8 
           7170      1.22057e+8 
           7190      1.20825e+8 
           7210       1.1959e+8 
           7230      1.18101e+8 
           7250      1.17156e+8 
           7270      1.15978e+8 
           7290      1.13946e+8 
           7310      1.13626e+8 
           7330      1.12502e+8 
           7350      1.11368e+8 
           7370      1.10258e+8 
           7390      1.09151e+8 
           7410      1.08062e+8 
           7430       1.0699e+8 
           7450      1.05941e+8 
           7470      1.04875e+8 
           7490      1.03859e+8 
           7510      1.02799e+8 
           7530      1.01822e+8 
           7550      1.00827e+8 
           7570      9.98412e+7 
           7590      9.88645e+7 
           7610      9.78967e+7 
           7630      9.69505e+7 
           7650       9.6013e+7 
           7670      9.50839e+7 
           7690      9.41695e+7 
           7710      9.32633e+7 
           7730      9.23715e+7 
           7750      9.14814e+7 
           7770      9.05992e+7 
           7790      8.97497e+7 
           7810      8.88397e+7 
           7830      8.80546e+7 
           7850      8.73008e+7 
           7870      8.64745e+7 
           7890       8.5613e+7 
           7910      8.48615e+7 
           7930      8.40506e+7 
           7950      8.31573e+7 
           7970      8.22838e+7 
           7990      8.15656e+7 
           8010      8.07947e+7 
           8030      8.00656e+7 
           8050      7.93717e+7 
           8070      7.86664e+7 
           8090      7.78175e+7 
           8110       7.7142e+7 
           8130       7.6552e+7 
           8150      7.57174e+7 
           8170      7.51835e+7 
           8190      7.44011e+7 
           8210      7.34801e+7 
           8230      7.30177e+7 
           8250      7.23874e+7 
           8270      7.13767e+7 
           8290      7.10053e+7 
           8310      7.03857e+7 
           8330      6.97387e+7 
           8350      6.88106e+7 
           8370      6.83585e+7 
           8390      6.78296e+7 
           8410      6.71984e+7 
           8430      6.65195e+7 
           8450      6.55929e+7 
           8470      6.51208e+7 
           8490      6.48195e+7 
           8510      6.37141e+7 
           8530      6.38765e+7 
           8550      6.17949e+7 
           8570       6.3574e+7 
