# Kurucz ODFNEW /NOVER (2003)
# teff = 7250 K (value for the effective temperature for the model. Temperatures are given in K)
# logg = 0.5 log(cm/s2) (value for Log(G) for the model.)
# meta = -1.5  (value for the Metallicity for the model.)
# lh = 1.25  (l/Hp where l is the  mixing length of the convective element and Hp is the pressure scale height)
# vtur = 2 km/s (Microturbulence velocity)
# alpha = 0.4  (Alpha)
#
# column 1: WAVELENGTH (ANGSTROM), Wavelength in Angstrom
# column 2: FLUX (ERG/CM2/S/A), Flux in erg/cm2/s/A
            385     3.53131e-24 
            395     7.86007e-23 
            405     5.76423e-22 
            414     3.10205e-21 
            422     1.29906e-20 
            430     5.14789e-20 
            441     3.14217e-19 
            451     1.50313e-18 
            460     5.78928e-18 
            470     2.43262e-17 
            480     9.60644e-17 
            490     3.57932e-16 
            500     1.26268e-15 
            506     2.49416e-15 
            512     5.26945e-15 
            520     1.35092e-14 
            530     4.12069e-14 
            540     1.20396e-13 
            550     3.37749e-13 
            560     9.11743e-13 
            570      2.3732e-12 
            580     5.86977e-12 
            590     1.45237e-11 
            600     3.42667e-11 
            610     7.84936e-11 
            620      1.7483e-10 
            630      3.7914e-10 
            640     8.01562e-10 
            650      1.65404e-9 
            658      2.90393e-9 
            665      4.69667e-9 
            675      9.16553e-9 
            685      1.75212e-8 
            695      3.28416e-8 
            705      6.04094e-8 
            716      1.15667e-7 
            726      2.05027e-7 
            735      3.38399e-7 
            745      5.81671e-7 
            755      9.84675e-7 
            765      1.64281e-6 
            775      2.70248e-6 
            785      4.38601e-6 
            795       6.9108e-6 
            805      1.09335e-5 
            815      1.77757e-7 
            825      2.62494e-7 
            835      3.83556e-7 
            845      5.54839e-7 
            855      7.94661e-7 
            865      1.12748e-6 
            875      1.58461e-6 
            885      2.20903e-6 
            895      3.05268e-6 
            905      4.18235e-6 
            915       0.0243827 
            925       0.0953948 
            935        0.119156 
            945        0.172957 
            955        0.254488 
            965        0.309001 
            975        0.291385 
            985        0.553625 
            995        0.669572 
           1005        0.863062 
           1015        0.862961 
           1025         1.01696 
           1035         1.67463 
           1045         2.27761 
           1055         2.88051 
           1065         3.46662 
           1075         4.33477 
           1085         5.30265 
           1095         6.23774 
           1105          18.605 
           1115         50.0417 
           1125          61.509 
           1135         71.0309 
           1145         73.4565 
           1155         64.8815 
           1165         64.7245 
           1175         54.2054 
           1185         172.903 
           1195         18.3003 
           1205         11.8351 
           1215          3.4735 
           1225         14.2668 
           1235         35.9433 
           1245         70.1167 
           1255          130.15 
           1265         190.638 
           1275         293.296 
           1285         456.098 
           1295         643.823 
           1305         727.323 
           1315         1103.59 
           1325         1450.78 
           1335         1815.72 
           1345         2384.05 
           1355         2842.46 
           1365         3621.87 
           1375         4759.37 
           1385         5998.09 
           1395         7648.52 
           1405         10326.1 
           1415         13148.7 
           1425         20071.8 
           1435         22866.6 
           1442         31595.2 
           1447         37039.4 
           1455         53561.9 
           1465         59046.9 
           1475           71371 
           1485         89763.5 
           1495          119526 
           1505          147292 
           1512          150241 
           1517         95963.1 
           1525          108242 
           1535          274654 
           1545          563510 
           1555          564979 
           1565          521666 
           1575          725097 
           1585          790341 
           1595          990682 
           1605          927936 
           1615          981752 
           1625          998211 
           1635      1.21148e+6 
           1645      1.48421e+6 
           1655      1.01039e+6 
           1665       1.6166e+6 
           1672          817716 
           1677      1.85798e+6 
           1685       2.1494e+6 
           1695      2.18037e+6 
           1705       2.1134e+6 
           1715      2.45925e+6 
           1725      2.50995e+6 
           1735      2.85192e+6 
           1745      2.71985e+6 
           1755      3.18187e+6 
           1765      2.76099e+6 
           1775      3.15039e+6 
           1785      3.13541e+6 
           1795      3.72365e+6 
           1805      3.31977e+6 
           1815        3.582e+6 
           1825      3.23508e+6 
           1835      3.35957e+6 
           1845      3.16322e+6 
           1855       3.4282e+6 
           1865      3.53093e+6 
           1875      3.65872e+6 
           1885      3.79748e+6 
           1895      3.89893e+6 
           1905      3.61591e+6 
           1915      4.01546e+6 
           1925      4.19121e+6 
           1935      3.83227e+6 
           1945      4.43219e+6 
           1955      4.47075e+6 
           1967      4.64752e+6 
           1976       4.5278e+6 
           1984      4.51902e+6 
           1995      4.46261e+6 
           2005      4.40452e+6 
           2015      4.33076e+6 
           2025      4.16204e+6 
           2035      4.57154e+6 
           2045      4.83719e+6 
           2055      4.53473e+6 
           2065      4.51124e+6 
           2074      5.08577e+6 
           2078      5.25457e+6 
           2085      5.13026e+6 
           2095       5.0032e+6 
           2105      4.85715e+6 
           2115      4.92452e+6 
           2125       5.0353e+6 
           2135      4.13332e+6 
           2145      4.84849e+6 
           2155      4.95238e+6 
           2165      4.73497e+6 
           2175      4.77133e+6 
           2185      4.90743e+6 
           2195      5.33916e+6 
           2205      5.15168e+6 
           2215      4.67665e+6 
           2225      4.71385e+6 
           2235      5.43371e+6 
           2245      4.89753e+6 
           2255      4.73632e+6 
           2265      4.71765e+6 
           2275      5.22866e+6 
           2285      5.41252e+6 
           2295      5.06047e+6 
           2305      5.24278e+6 
           2315      5.18802e+6 
           2325      5.11582e+6 
           2335      4.59263e+6 
           2345      3.96417e+6 
           2355      5.14125e+6 
           2365      4.16743e+6 
           2375      4.91404e+6 
           2385      3.66018e+6 
           2395      4.36967e+6 
           2405      4.20471e+6 
           2415      4.55197e+6 
           2425      5.41933e+6 
           2435       5.3075e+6 
           2445      5.61292e+6 
           2455      5.47984e+6 
           2465      5.47322e+6 
           2475      5.20731e+6 
           2485      5.52622e+6 
           2495      5.43922e+6 
           2505       6.1207e+6 
           2513      5.40817e+6 
           2518      5.55968e+6 
           2525      5.11469e+6 
           2535      4.97839e+6 
           2545      5.14361e+6 
           2555       5.5621e+6 
           2565       5.4808e+6 
           2575      5.93506e+6 
           2585      5.84074e+6 
           2595      5.64924e+6 
           2605      5.33348e+6 
           2615      5.22258e+6 
           2625      5.89044e+6 
           2635      6.14098e+6 
           2645      7.23839e+6 
           2655      7.22459e+6 
           2665      6.64162e+6 
           2675      6.92111e+6 
           2685      6.98618e+6 
           2695      6.65382e+6 
           2705      6.81838e+6 
           2715      6.41509e+6 
           2725      6.53196e+6 
           2735      7.06246e+6 
           2745      5.61267e+6 
           2755      6.03063e+6 
           2765      6.37144e+6 
           2775      6.97333e+6 
           2785       6.4386e+6 
           2795      3.08173e+6 
           2805       3.8246e+6 
           2815      7.08321e+6 
           2825      7.46602e+6 
           2835      7.33142e+6 
           2845      7.18641e+6 
           2855      6.81864e+6 
           2865       7.3687e+6 
           2875      7.23913e+6 
           2885       7.4597e+6 
           2895      7.25722e+6 
           2910      8.04878e+6 
           2930       7.8717e+6 
           2950       7.8913e+6 
           2970      8.13772e+6 
           2990      8.27363e+6 
           3010      8.46675e+6 
           3030       8.5043e+6 
           3050      8.48709e+6 
           3070      8.41604e+6 
           3090       8.7099e+6 
           3110      8.54916e+6 
           3130        8.571e+6 
           3150      8.80307e+6 
           3170      8.87717e+6 
           3190      8.54112e+6 
           3210       8.8339e+6 
           3230      8.65948e+6 
           3250      8.90883e+6 
           3270      8.99713e+6 
           3290      9.21106e+6 
           3310      9.33631e+6 
           3330      9.17728e+6 
           3350        9.065e+6 
           3370      9.17135e+6 
           3390      9.23884e+6 
           3410       9.5147e+6 
           3430      9.63686e+6 
           3450      9.60965e+6 
           3470      9.53204e+6 
           3490      9.54466e+6 
           3510      9.75575e+6 
           3530      9.88949e+6 
           3550      9.98583e+6 
           3570      9.80687e+6 
           3590      9.83529e+6 
           3610      9.92896e+6 
           3630      9.99597e+6 
           3640        9.907e+6 
           3650      1.01279e+7 
           3670      1.02338e+7 
           3690      1.16806e+7 
           3710      1.64885e+7 
           3730      2.75055e+7 
           3750      3.98898e+7 
           3770      4.01356e+7 
           3790      4.52156e+7 
           3810      4.93409e+7 
           3830      4.05907e+7 
           3850      5.06847e+7 
           3870      5.16463e+7 
           3890      3.92984e+7 
           3910      5.01539e+7 
           3930      4.13003e+7 
           3950      4.98459e+7 
           3970      3.49363e+7 
           3990      4.94573e+7 
           4010      4.93494e+7 
           4030      4.86822e+7 
           4050      4.83403e+7 
           4070      4.75548e+7 
           4090      4.56653e+7 
           4110      3.70483e+7 
           4130        4.634e+7 
           4150      4.64391e+7 
           4170      4.51151e+7 
           4190       4.5033e+7 
           4210      4.46232e+7 
           4230      4.39832e+7 
           4250      4.36161e+7 
           4270      4.31837e+7 
           4290      4.24852e+7 
           4310       4.0806e+7 
           4330      3.83342e+7 
           4350      3.35329e+7 
           4370      4.11846e+7 
           4390      4.01729e+7 
           4410      3.94723e+7 
           4430      4.00823e+7 
           4450      3.94298e+7 
           4470       3.9091e+7 
           4490      3.86519e+7 
           4510      3.84692e+7 
           4530      3.77686e+7 
           4550      3.68477e+7 
           4570      3.73502e+7 
           4590      3.66803e+7 
           4610      3.71303e+7 
           4630      3.62338e+7 
           4650      3.63131e+7 
           4670      3.59284e+7 
           4690      3.55987e+7 
           4710      3.47621e+7 
           4730      3.49419e+7 
           4750      3.47117e+7 
           4770      3.42424e+7 
           4790      3.38848e+7 
           4810      3.35564e+7 
           4830      3.31224e+7 
           4850      3.03914e+7 
           4870      2.51308e+7 
           4890      3.20515e+7 
           4910       3.1969e+7 
           4930      3.13537e+7 
           4950      3.14037e+7 
           4970      3.11988e+7 
           4990      3.07585e+7 
           5010      3.00437e+7 
           5030       3.0173e+7 
           5050      2.98592e+7 
           5070      2.96783e+7 
           5090      2.94077e+7 
           5110      2.91332e+7 
           5130      2.87247e+7 
           5150      2.84509e+7 
           5170       2.7776e+7 
           5190      2.74798e+7 
           5210      2.76106e+7 
           5230      2.71051e+7 
           5250      2.72175e+7 
           5270      2.65216e+7 
           5290      2.67118e+7 
           5310      2.62438e+7 
           5330      2.59756e+7 
           5350       2.6041e+7 
           5370      2.57128e+7 
           5390      2.54575e+7 
           5410      2.52298e+7 
           5430      2.49561e+7 
           5450       2.4843e+7 
           5470      2.46365e+7 
           5490      2.44148e+7 
           5510       2.4197e+7 
           5530      2.38868e+7 
           5550      2.38042e+7 
           5570      2.35716e+7 
           5590      2.33406e+7 
           5610      2.31553e+7 
           5630      2.29685e+7 
           5650        2.272e+7 
           5670       2.2526e+7 
           5690      2.23598e+7 
           5710       2.2163e+7 
           5730      2.19833e+7 
           5750      2.17828e+7 
           5770      2.15981e+7 
           5790      2.14076e+7 
           5810      2.12236e+7 
           5830      2.10383e+7 
           5850       2.0854e+7 
           5870      2.06728e+7 
           5890      2.03556e+7 
           5910      2.03227e+7 
           5930      2.01484e+7 
           5950      1.99695e+7 
           5970      1.98084e+7 
           5990      1.96228e+7 
           6010      1.94653e+7 
           6030      1.93043e+7 
           6050      1.91409e+7 
           6070      1.89873e+7 
           6090      1.88232e+7 
           6110      1.86588e+7 
           6130      1.84901e+7 
           6150      1.82535e+7 
           6170       1.8174e+7 
           6190      1.80538e+7 
           6210      1.79054e+7 
           6230      1.77441e+7 
           6250      1.75072e+7 
           6270      1.74695e+7 
           6290      1.73272e+7 
           6310      1.71664e+7 
           6330      1.70403e+7 
           6350      1.68369e+7 
           6370      1.67137e+7 
           6390      1.66286e+7 
           6410      1.64745e+7 
           6430      1.63549e+7 
           6450      1.61531e+7 
           6470      1.60939e+7 
           6490      1.59045e+7 
           6510      1.57732e+7 
           6530      1.55742e+7 
           6550      1.44606e+7 
           6570      1.14848e+7 
           6590      1.50586e+7 
           6610      1.51426e+7 
           6630       1.5084e+7 
           6650      1.49917e+7 
           6670      1.48731e+7 
           6690      1.47582e+7 
           6710      1.46427e+7 
           6730      1.45259e+7 
           6750      1.44102e+7 
           6770      1.43079e+7 
           6790      1.41943e+7 
           6810      1.40875e+7 
           6830       1.3972e+7 
           6850      1.38689e+7 
           6870      1.37651e+7 
           6890      1.36599e+7 
           6910      1.35557e+7 
           6930      1.34517e+7 
           6950      1.33502e+7 
           6970      1.32473e+7 
           6990      1.31485e+7 
           7010      1.30322e+7 
           7030       1.2949e+7 
           7050      1.28536e+7 
           7070      1.27569e+7 
           7090      1.26625e+7 
           7110       1.2543e+7 
           7130      1.24697e+7 
           7150      1.23743e+7 
           7170      1.22856e+7 
           7190      1.21925e+7 
           7210      1.20989e+7 
           7230      1.20083e+7 
           7250      1.19242e+7 
           7270      1.18401e+7 
           7290      1.17476e+7 
           7310      1.16559e+7 
           7330      1.15749e+7 
           7350      1.14931e+7 
           7370      1.14156e+7 
           7390      1.13297e+7 
           7410      1.12405e+7 
           7430      1.11589e+7 
           7450      1.10808e+7 
           7470      1.09918e+7 
           7490      1.09198e+7 
           7510      1.08436e+7 
           7530      1.07702e+7 
           7550      1.06967e+7 
           7570      1.06152e+7 
           7590      1.05443e+7 
           7610      1.04695e+7 
           7630      1.03952e+7 
           7650      1.03178e+7 
           7670      1.02448e+7 
           7690      1.01738e+7 
           7710      1.00951e+7 
           7730      1.00328e+7 
           7750      9.96165e+6 
           7770      9.74882e+6 
           7790      9.82485e+6 
           7810      9.75545e+6 
           7830      9.68539e+6 
           7850      9.61532e+6 
           7870      9.53975e+6 
           7890      9.46361e+6 
           7910      9.41822e+6 
           7930       9.3504e+6 
           7950      9.28256e+6 
           7970      9.22891e+6 
           7990      9.14323e+6 
           8010      9.10174e+6 
           8030      9.03893e+6 
           8050      8.97779e+6 
           8070      8.91599e+6 
           8090      8.85584e+6 
           8110      8.79618e+6 
           8130        8.737e+6 
           8150      8.67829e+6 
           8170      8.61949e+6 
           8190      8.54093e+6 
           8210      8.52005e+6 
           8230      8.46479e+6 
           8250      8.39058e+6 
           8270      8.36437e+6 
           8290      8.29391e+6 
           8310      8.19403e+6 
           8330      8.08849e+6 
           8350      8.13354e+6 
           8370      7.89736e+6 
           8390      8.00533e+6 
           8410      7.98061e+6 
           8430      8.22535e+6 
           8450      8.11575e+6 
           8470      7.87267e+6 
           8490      8.56577e+6 
           8510      7.75566e+6 
           8530      8.71966e+6 
           8550      7.49259e+6 
           8570      8.91133e+6 
           8590      8.47523e+6 
           8610      8.23567e+6 
           8630      9.16217e+6 
           8650      9.03224e+6 
           8670      7.41341e+6 
           8690      9.01264e+6 
           8710      9.05572e+6 
           8730      8.92974e+6 
           8750       7.4443e+6 
           8770      8.69859e+6 
           8790      8.81703e+6 
           8810      8.74938e+6 
           8830      8.67451e+6 
           8850      8.36792e+6 
           8870      7.21886e+6 
           8890      8.47154e+6 
           8910      8.42406e+6 
           8930      8.36511e+6 
           8950      8.36727e+6 
           8970      8.30612e+6 
           8990      8.20068e+6 
           9010       7.0552e+6 
           9030      7.70591e+6 
           9050      8.05965e+6 
           9070      7.95499e+6 
           9090      7.84115e+6 
           9110      7.88438e+6 
           9130      7.87157e+6 
           9150       7.8228e+6 
           9170       7.7681e+6 
           9190       7.7031e+6 
           9210      7.52978e+6 
           9230      6.29217e+6 
           9250      7.35297e+6 
           9270      7.39887e+6 
           9290      7.46482e+6 
           9310      7.41714e+6 
           9330      7.36633e+6 
           9350      7.31977e+6 
           9370      7.27268e+6 
           9390      7.21994e+6 
           9410      7.10036e+6 
           9430      7.11688e+6 
           9450      7.08088e+6 
           9470      7.03756e+6 
