# Kurucz ODFNEW /NOVER (2003)
# teff = 8250 K (value for the effective temperature for the model. Temperatures are given in K)
# logg = 3.5 log(cm/s2) (value for Log(G) for the model.)
# meta = -4  (value for the Metallicity for the model.)
# lh = 1.25  (l/Hp where l is the  mixing length of the convective element and Hp is the pressure scale height)
# vtur = 2 km/s (Microturbulence velocity)
# alpha = 0.4  (Alpha)
#
# column 1: WAVELENGTH (ANGSTROM), Wavelength in Angstrom
# column 2: FLUX (ERG/CM2/S/A), Flux in erg/cm2/s/A
          147.2     1.73866e-35 
            151     1.65225e-35 
          155.2     1.56403e-35 
          158.8     1.49392e-35 
            162     1.43549e-35 
            166     1.36714e-35 
          170.3     1.29897e-35 
          173.4     1.25294e-35 
          176.8     1.20522e-35 
          180.2     1.16017e-35 
          181.7     1.14109e-35 
          186.1     1.08777e-35 
            191     1.03267e-35 
          193.9     1.00201e-35 
          198.4     9.57076e-36 
          201.8     9.25097e-36 
            205     8.96441e-36 
          210.5     8.50208e-36 
          216.2     8.05969e-36 
          219.8     7.79784e-36 
            223     7.57565e-36 
          226.8     7.32392e-36 
            230     7.12154e-36 
            234     6.88015e-36 
            240     6.54044e-36 
          246.5     6.20006e-36 
          252.4     5.91358e-36 
          256.8     5.71267e-36 
            260     5.57292e-36 
            264     5.40532e-36 
          268.5     5.22566e-36 
          273.5     5.03634e-36 
          278.5     1.37981e-23 
            284     1.13435e-22 
            290      6.1531e-22 
            296     3.00172e-21 
            301     1.06901e-20 
            308     5.89096e-20 
            318     5.89809e-19 
            328     5.11322e-18 
            338     3.88621e-17 
            348     2.62031e-16 
            357     1.32818e-15 
            366      6.2043e-15 
            375     2.68405e-14 
            385     1.25728e-13 
            395     5.42862e-13 
            405     2.17494e-12 
            414      7.1455e-12 
            422     1.96869e-11 
            430     5.21451e-11 
            441     1.87395e-10 
            451     5.66499e-10 
            460      1.46862e-9 
            470      4.04681e-9 
            480      1.06668e-8 
            490      2.69955e-8 
            500      6.57031e-8 
            506      1.21543e-7 
            512      2.10235e-7 
            520      4.02351e-7 
            530      8.82826e-7 
            540      1.86582e-6 
            550      3.85198e-6 
            560      7.71767e-6 
            570      1.50692e-5 
            580      2.86019e-5 
            590      5.34412e-5 
            600      9.72977e-5 
            610     0.000173462 
            620     0.000303275 
            630     0.000520321 
            640     0.000876733 
            650      0.00145208 
            658      0.00214858 
            665      0.00300225 
            675      0.00477964 
            685      0.00749814 
            695       0.0116024 
            705       0.0177198 
            716       0.0278203 
            726       0.0413899 
            735       0.0585912 
            745       0.0852863 
            755        0.122822 
            765        0.175057 
            775        0.247022 
            785        0.345444 
            795        0.478642 
            805        0.657333 
            815         0.89511 
            825         1.20897 
            835         1.62017 
            845         2.15467 
            855         2.84454 
            865         3.72915 
            875         4.85712 
            885         6.28472 
            895         8.08085 
            905         10.3269 
            915         22.4173 
            925         77.1093 
            935         125.952 
            945         223.049 
            955         341.385 
            965         437.402 
            975         323.128 
            985         904.213 
            995         1332.29 
           1005         1260.56 
           1015         919.897 
           1025         691.802 
           1035         1377.46 
           1045          2619.8 
           1055         4457.36 
           1065         23967.1 
           1075          105554 
           1085          297022 
           1095          388755 
           1105          380548 
           1115          266045 
           1125          170311 
           1135          103191 
           1145         36456.7 
           1155         12937.3 
           1165         9361.71 
           1175         8085.92 
           1185         13183.1 
           1195         8459.91 
           1205          6523.9 
           1215         4050.24 
           1225         7550.53 
           1235           12612 
           1245         11178.7 
           1255         15986.5 
           1265         22681.1 
           1275         31948.3 
           1285         89857.5 
           1295          198482 
           1305          555795 
           1315          943030 
           1325      1.57374e+6 
           1335      2.32351e+6 
           1345      3.24058e+6 
           1355      4.00854e+6 
           1365      4.87222e+6 
           1375      4.51567e+6 
           1385      3.84521e+6 
           1395      3.50474e+6 
           1405      6.43562e+6 
           1415      1.12795e+7 
           1425      1.21427e+7 
           1435      1.32529e+7 
           1442      1.42255e+7 
           1447      1.32753e+7 
           1455      1.51083e+7 
           1465        1.396e+7 
           1475      1.50392e+7 
           1485      1.53772e+7 
           1495      1.58299e+7 
           1505      1.66142e+7 
           1512      1.69979e+7 
           1517      1.54733e+7 
           1525      1.61704e+7 
           1535      1.58392e+7 
           1545      1.45528e+7 
           1555      1.40786e+7 
           1565       1.1879e+7 
           1575       1.1276e+7 
           1585      1.02654e+7 
           1595      9.62576e+6 
           1605       9.5347e+6 
           1615      1.28737e+7 
           1625      1.70444e+7 
           1635      2.11038e+7 
           1645      2.58933e+7 
           1655       2.6181e+7 
           1665      3.06129e+7 
           1672      3.10511e+7 
           1677      3.19526e+7 
           1685      3.25947e+7 
           1695      3.27842e+7 
           1705      3.28258e+7 
           1715      3.33958e+7 
           1725      3.33085e+7 
           1735      3.36566e+7 
           1745      3.32558e+7 
           1755      3.34186e+7 
           1765      3.33155e+7 
           1775      3.33094e+7 
           1785      3.30803e+7 
           1795      3.32541e+7 
           1805      3.26809e+7 
           1815      3.27529e+7 
           1825      3.25092e+7 
           1835      3.27454e+7 
           1845      3.22929e+7 
           1855      3.25051e+7 
           1865      3.25528e+7 
           1875      3.24701e+7 
           1885      3.23916e+7 
           1895      3.23192e+7 
           1905      3.21209e+7 
           1915      3.21284e+7 
           1925       3.2074e+7 
           1935      3.15562e+7 
           1945      3.19147e+7 
           1955      3.18256e+7 
           1967      3.17277e+7 
           1976      3.15908e+7 
           1984      3.14859e+7 
           1995      3.14775e+7 
           2005      3.13433e+7 
           2015      3.12028e+7 
           2025      3.10653e+7 
           2035      3.11356e+7 
           2045      3.10489e+7 
           2055      3.07225e+7 
           2065      3.07313e+7 
           2074      3.08584e+7 
           2078      3.08305e+7 
           2085      3.07668e+7 
           2095      3.06944e+7 
           2105      3.06211e+7 
           2115      3.05411e+7 
           2125      3.03936e+7 
           2135      3.03765e+7 
           2145      3.03535e+7 
           2155      3.02664e+7 
           2165      3.00139e+7 
           2175      3.00324e+7 
           2185      3.00533e+7 
           2195      3.00451e+7 
           2205      2.98895e+7 
           2215      2.95419e+7 
           2225      2.96772e+7 
           2235      2.98308e+7 
           2245      2.97278e+7 
           2255      2.95159e+7 
           2265      2.93638e+7 
           2275      2.94767e+7 
           2285      2.94559e+7 
           2295        2.933e+7 
           2305       2.9366e+7 
           2315      2.92858e+7 
           2325      2.92114e+7 
           2335       2.8834e+7 
           2345      2.82782e+7 
           2355      2.88734e+7 
           2365      2.82398e+7 
           2375      2.86263e+7 
           2385      2.79059e+7 
           2395      2.84431e+7 
           2405      2.84142e+7 
           2415      2.83576e+7 
           2425      2.87866e+7 
           2435      2.86581e+7 
           2445      2.86113e+7 
           2455      2.86549e+7 
           2465       2.8519e+7 
           2475      2.84723e+7 
           2485      2.83827e+7 
           2495      2.82204e+7 
           2505       2.8408e+7 
           2513      2.81743e+7 
           2518      2.81356e+7 
           2525      2.80756e+7 
           2535      2.79717e+7 
           2545      2.81426e+7 
           2555      2.82546e+7 
           2565      2.79322e+7 
           2575      2.80316e+7 
           2585      2.79273e+7 
           2595      2.78322e+7 
           2605      2.77344e+7 
           2615      2.76621e+7 
           2625      2.76442e+7 
           2635      2.76751e+7 
           2645      2.80613e+7 
           2655      2.80235e+7 
           2665      2.79255e+7 
           2675      2.79145e+7 
           2685      2.79259e+7 
           2695      2.78741e+7 
           2705      2.78502e+7 
           2715      2.77088e+7 
           2725      2.76402e+7 
           2735      2.76465e+7 
           2745      2.71019e+7 
           2755      2.72177e+7 
           2765      2.75155e+7 
           2775      2.76306e+7 
           2785      2.75792e+7 
           2795      2.67553e+7 
           2805      2.71352e+7 
           2815      2.75337e+7 
           2825      2.75005e+7 
           2835       2.7424e+7 
           2845      2.74122e+7 
           2855      2.72186e+7 
           2865      2.73273e+7 
           2875      2.73235e+7 
           2885      2.72665e+7 
           2895      2.72907e+7 
           2910      2.72529e+7 
           2930      2.71345e+7 
           2950      2.70739e+7 
           2970      2.70573e+7 
           2990      2.69873e+7 
           3010      2.69492e+7 
           3030      2.68904e+7 
           3050      2.68281e+7 
           3070      2.67487e+7 
           3090       2.6703e+7 
           3110       2.6643e+7 
           3130      2.65778e+7 
           3150      2.65106e+7 
           3170      2.64549e+7 
           3190      2.63615e+7 
           3210      2.63244e+7 
           3230      2.62269e+7 
           3250       2.6194e+7 
           3270      2.61423e+7 
           3290      2.60792e+7 
           3310      2.60139e+7 
           3330      2.59385e+7 
           3350      2.58556e+7 
           3370      2.57941e+7 
           3390      2.57293e+7 
           3410       2.5673e+7 
           3430      2.56031e+7 
           3450      2.55321e+7 
           3470      2.54611e+7 
           3490      2.53907e+7 
           3510      2.53189e+7 
           3530      2.52472e+7 
           3550       2.5174e+7 
           3570      2.50976e+7 
           3590      2.50233e+7 
           3610      2.49483e+7 
           3630      2.48717e+7 
           3640       2.4833e+7 
           3650      2.49208e+7 
           3670      2.47618e+7 
           3690      2.39117e+7 
           3710      2.63591e+7 
           3730      2.88107e+7 
           3750      3.78511e+7 
           3770      4.03901e+7 
           3790      4.85648e+7 
           3810      5.72616e+7 
           3830      4.60867e+7 
           3850      6.40027e+7 
           3870      7.26448e+7 
           3890      3.99532e+7 
           3910      7.26003e+7 
           3930      7.93832e+7 
           3950      7.19897e+7 
           3970      3.87345e+7 
           3990      6.82321e+7 
           4010      7.80186e+7 
           4030      7.85962e+7 
           4050      7.73831e+7 
           4070       7.3577e+7 
           4090      5.51713e+7 
           4110      4.20752e+7 
           4130      6.89765e+7 
           4150      7.27319e+7 
           4170      7.28548e+7 
           4190      7.22833e+7 
           4210      7.15131e+7 
           4230       7.0649e+7 
           4250      6.97187e+7 
           4270      6.86208e+7 
           4290      6.70347e+7 
           4310      6.32625e+7 
           4330      4.63535e+7 
           4350      3.93901e+7 
           4370      6.01208e+7 
           4390      6.30753e+7 
           4410      6.32115e+7 
           4430      6.27802e+7 
           4450      6.21887e+7 
           4470      6.15429e+7 
           4490      6.09585e+7 
           4510      6.02764e+7 
           4530      5.95966e+7 
           4550      5.89265e+7 
           4570      5.82693e+7 
           4590      5.76196e+7 
           4610      5.69824e+7 
           4630      5.63506e+7 
           4650      5.57293e+7 
           4670      5.51182e+7 
           4690      5.45138e+7 
           4710      5.38956e+7 
           4730      5.32068e+7 
           4750      5.25726e+7 
           4770      5.18959e+7 
           4790      5.11039e+7 
           4810      4.99503e+7 
           4830      4.73251e+7 
           4850      3.69466e+7 
           4870      3.00772e+7 
           4890       4.4671e+7 
           4910      4.71238e+7 
           4930      4.73684e+7 
           4950      4.71371e+7 
           4970        4.676e+7 
           4990      4.63315e+7 
           5010      4.59488e+7 
           5030      4.54859e+7 
           5050      4.50184e+7 
           5070      4.45584e+7 
           5090      4.41043e+7 
           5110      4.36558e+7 
           5130      4.32145e+7 
           5150      4.27786e+7 
           5170      4.23383e+7 
           5190       4.1919e+7 
           5210      4.15048e+7 
           5230      4.10901e+7 
           5250       4.0682e+7 
           5270      4.02775e+7 
           5290      3.98806e+7 
           5310      3.94872e+7 
           5330         3.91e+7 
           5350      3.87173e+7 
           5370      3.83393e+7 
           5390      3.79659e+7 
           5410      3.75982e+7 
           5430      3.72348e+7 
           5450      3.68758e+7 
           5470       3.6521e+7 
           5490      3.61717e+7 
           5510      3.58252e+7 
           5530       3.5484e+7 
           5550       3.5148e+7 
           5570      3.48146e+7 
           5590      3.44864e+7 
           5610      3.41619e+7 
           5630      3.38412e+7 
           5650      3.35253e+7 
           5670      3.32119e+7 
           5690      3.29021e+7 
           5710      3.25969e+7 
           5730      3.22951e+7 
           5750      3.19968e+7 
           5770      3.17018e+7 
           5790      3.14113e+7 
           5810      3.11228e+7 
           5830      3.08387e+7 
           5850      3.05578e+7 
           5870      3.02755e+7 
           5890      3.00051e+7 
           5910      2.97344e+7 
           5930      2.94667e+7 
           5950      2.92019e+7 
           5970        2.894e+7 
           5990      2.86809e+7 
           6010      2.84257e+7 
           6030      2.81732e+7 
           6050      2.79234e+7 
           6070      2.76763e+7 
           6090      2.74329e+7 
           6110       2.7191e+7 
           6130      2.69527e+7 
           6150      2.67169e+7 
           6170      2.64836e+7 
           6190      2.62528e+7 
           6210      2.60244e+7 
           6230      2.57993e+7 
           6250      2.55756e+7 
           6270      2.53552e+7 
           6290      2.51371e+7 
           6310      2.49213e+7 
           6330      2.47086e+7 
           6350      2.44971e+7 
           6370      2.42887e+7 
           6390      2.40816e+7 
           6410      2.38774e+7 
           6430      2.36572e+7 
           6450      2.34129e+7 
           6470      2.31802e+7 
           6490      2.29141e+7 
           6510      2.25486e+7 
           6530      2.18134e+7 
           6550      1.90523e+7 
           6570       1.5427e+7 
           6590      2.06364e+7 
           6610        2.148e+7 
           6630      2.15658e+7 
           6650      2.14831e+7 
           6670      2.13485e+7 
           6690       2.1211e+7 
           6710       2.1063e+7 
           6730      2.08914e+7 
           6750      2.07206e+7 
           6770      2.05524e+7 
           6790      2.03857e+7 
           6810      2.02198e+7 
           6830      2.00564e+7 
           6850      1.98945e+7 
           6870      1.97349e+7 
           6890       1.9576e+7 
           6910      1.94195e+7 
           6930      1.92636e+7 
           6950        1.911e+7 
           6970      1.89579e+7 
           6990      1.88071e+7 
           7010      1.86586e+7 
           7030      1.85106e+7 
           7050      1.83641e+7 
           7070      1.82196e+7 
           7090      1.80765e+7 
           7110      1.79347e+7 
           7130      1.77942e+7 
           7150       1.7655e+7 
           7170      1.75171e+7 
           7190      1.73811e+7 
           7210      1.72457e+7 
           7230      1.71122e+7 
           7250        1.698e+7 
           7270      1.68489e+7 
           7290       1.6719e+7 
           7310      1.65903e+7 
           7330      1.64627e+7 
           7350       1.6337e+7 
           7370      1.62117e+7 
           7390      1.60882e+7 
           7410      1.59658e+7 
           7430      1.58444e+7 
           7450      1.57242e+7 
           7470       1.5605e+7 
           7490      1.54875e+7 
           7510      1.53704e+7 
           7530       1.5255e+7 
           7550      1.51399e+7 
           7570      1.50265e+7 
           7590       1.4914e+7 
           7610      1.48026e+7 
           7630      1.46927e+7 
           7650      1.45832e+7 
           7670      1.44745e+7 
           7690      1.43675e+7 
           7710      1.42614e+7 
           7730      1.41555e+7 
           7750      1.40512e+7 
           7770      1.39465e+7 
           7790      1.38458e+7 
           7810      1.37441e+7 
           7830      1.36439e+7 
           7850      1.35439e+7 
           7870      1.34453e+7 
           7890      1.33476e+7 
           7910      1.32507e+7 
           7930      1.31545e+7 
           7950      1.30592e+7 
           7970      1.29647e+7 
           7990      1.28716e+7 
           8010      1.27786e+7 
           8030       1.2687e+7 
           8050      1.25961e+7 
           8070       1.2506e+7 
           8090      1.24166e+7 
           8110      1.23279e+7 
           8130        1.224e+7 
           8150      1.21528e+7 
           8170      1.20668e+7 
           8190       1.1981e+7 
           8210      1.19166e+7 
           8230      1.18387e+7 
           8250      1.17631e+7 
           8270      1.16875e+7 
           8290      1.16126e+7 
           8310      1.15349e+7 
           8330      1.14535e+7 
           8350      1.13696e+7 
           8370      1.12685e+7 
           8390      1.11726e+7 
           8410      1.10636e+7 
           8430      1.10058e+7 
           8450      1.09506e+7 
           8470      1.06175e+7 
           8490      1.09161e+7 
           8510       1.0326e+7 
           8530      1.08989e+7 
           8550      9.81576e+6 
           8570      1.09631e+7 
