# Kurucz ODFNEW /NOVER (2003)
# teff = 18000 K (value for the effective temperature for the model. Temperatures are given in K)
# logg = 5 log(cm/s2) (value for Log(G) for the model.)
# meta = 0.2  (value for the Metallicity for the model.)
# lh = 1.25  (l/Hp where l is the  mixing length of the convective element and Hp is the pressure scale height)
# vtur = 2 km/s (Microturbulence velocity)
# alpha = 0.4  (Alpha)
#
# column 1: WAVELENGTH (ANGSTROM), Wavelength in Angstrom
# column 2: FLUX (ERG/CM2/S/A), Flux in erg/cm2/s/A
          147.2     2.05179e-22 
            151     1.53798e-21 
          155.2     1.20063e-20 
          158.8       6.404e-20 
            162       2.669e-19 
            166     1.47679e-18 
          170.3     8.49723e-18 
          173.4     2.86009e-17 
          176.8     1.02905e-16 
          180.2     3.53201e-16 
          181.7     5.99414e-16 
          186.1     2.70039e-15 
            191     1.33122e-14 
          193.9      3.2813e-14 
          198.4      1.2643e-13 
          201.8     3.37827e-13 
            205     8.29056e-13 
          210.5     3.61211e-12 
          216.2     1.53505e-11 
          219.8     3.68362e-11 
            223     7.80595e-11 
          226.8      1.8561e-10 
            230     3.92098e-10 
            234      1.00106e-9 
            240      3.45839e-9 
          246.5      1.22724e-8 
          252.4      3.66317e-8 
          256.8      7.95547e-8 
            260      1.39356e-7 
            264      2.72699e-7 
          268.5      5.65259e-7 
          273.5       1.2331e-6 
          278.5      2.62615e-6 
            284      5.86281e-6 
            290      1.35072e-5 
            296      2.99987e-5 
            301      5.70286e-5 
            308     0.000134836 
            318     0.000435688 
            328      0.00128688 
            338      0.00361712 
            348      0.00949041 
            357       0.0221499 
            366       0.0486028 
            375         0.10104 
            385        0.220187 
            395        0.458136 
            405        0.920848 
            414         1.67886 
            422         2.78035 
            430         4.51831 
            441         8.61022 
            451         15.0235 
            460         24.1652 
            470         40.1492 
            480         65.1428 
            490         103.606 
            500         161.481 
            506         1767.44 
            512         6375.45 
            520         8318.84 
            530         11846.5 
            540         14835.3 
            550         21993.5 
            560         28646.3 
            570         38340.8 
            580         47974.8 
            590         68037.5 
            600         86510.7 
            610          111379 
            620          134668 
            630          165461 
            640          192908 
            650          226314 
            658          279342 
            665          309400 
            675          362834 
            685          429290 
            695          518323 
            705          598060 
            716          707580 
            726          813032 
            735          920092 
            745       1.0721e+6 
            755      1.23344e+6 
            765      1.40624e+6 
            775      1.60771e+6 
            785      1.82586e+6 
            795      2.02401e+6 
            805      2.27145e+6 
            815      2.52539e+6 
            825      2.84468e+6 
            835      3.06209e+6 
            845      3.43466e+6 
            855      3.80783e+6 
            865      4.22042e+6 
            875      4.65297e+6 
            885      5.18612e+6 
            895      5.67428e+6 
            905      5.98425e+6 
            915      1.07085e+7 
            925      3.92063e+7 
            935      7.49257e+7 
            945      2.45091e+8 
            955      7.87847e+8 
            965      1.23736e+9 
            975      2.84985e+8 
            985      2.48991e+9 
            995      2.49354e+9 
           1005      3.16299e+9 
           1015      2.18353e+9 
           1025      2.27506e+8 
           1035      1.31715e+9 
           1045      4.18084e+9 
           1055      4.59613e+9 
           1065      3.61941e+9 
           1075      4.68489e+9 
           1085      4.28756e+9 
           1095      4.86408e+9 
           1105      3.94833e+9 
           1115      3.78964e+9 
           1125      3.99791e+9 
           1135       5.0601e+9 
           1145       4.0928e+9 
           1155      4.65029e+9 
           1165      5.02685e+9 
           1175      4.09385e+9 
           1185      4.78214e+9 
           1195      1.83106e+9 
           1205      1.12861e+9 
           1215      3.04808e+8 
           1225      9.97264e+8 
           1235       3.8485e+9 
           1245      4.68182e+9 
           1255       4.6673e+9 
           1265      3.83292e+9 
           1275      4.53918e+9 
           1285      5.30931e+9 
           1295      3.06568e+9 
           1305      2.06694e+9 
           1315      4.67397e+9 
           1325      4.65884e+9 
           1335      4.11052e+9 
           1345      4.64647e+9 
           1355      4.47288e+9 
           1365      3.92617e+9 
           1375      4.13349e+9 
           1385       4.2221e+9 
           1395      3.75853e+9 
           1405      3.85981e+9 
           1415      3.79792e+9 
           1425      4.02438e+9 
           1435       3.8933e+9 
           1442      4.27574e+9 
           1447      4.27269e+9 
           1455      4.17316e+9 
           1465      3.93155e+9 
           1475       3.7276e+9 
           1485      3.62802e+9 
           1495       3.8222e+9 
           1505      3.45639e+9 
           1512       3.2048e+9 
           1517      3.48967e+9 
           1525      3.41703e+9 
           1535      3.07127e+9 
           1545      3.30751e+9 
           1555      3.06008e+9 
           1565      2.99818e+9 
           1575       3.2219e+9 
           1585        3.264e+9 
           1595      3.32656e+9 
           1605      3.18945e+9 
           1615      3.21406e+9 
           1625      3.03481e+9 
           1635      3.15888e+9 
           1645      3.15679e+9 
           1655      2.88191e+9 
           1665      3.12842e+9 
           1672      2.97359e+9 
           1677      3.05112e+9 
           1685      3.13978e+9 
           1695      2.96805e+9 
           1705      2.79856e+9 
           1715      2.60335e+9 
           1725       2.5854e+9 
           1735      2.69948e+9 
           1745      2.62162e+9 
           1755      2.72625e+9 
           1765      2.48382e+9 
           1775      2.54834e+9 
           1785      2.55451e+9 
           1795      2.67965e+9 
           1805      2.64217e+9 
           1815      2.44674e+9 
           1825      2.49952e+9 
           1835      2.37412e+9 
           1845      2.20414e+9 
           1855      2.14212e+9 
           1865       2.1686e+9 
           1875      2.35095e+9 
           1885      2.16471e+9 
           1895      2.05054e+9 
           1905      2.17337e+9 
           1915      2.07399e+9 
           1925      2.03013e+9 
           1935      2.08879e+9 
           1945      2.08828e+9 
           1955      1.96742e+9 
           1967      2.11797e+9 
           1976      2.18836e+9 
           1984      2.03761e+9 
           1995       1.9745e+9 
           2005      2.02083e+9 
           2015      1.86081e+9 
           2025      2.05185e+9 
           2035       1.9142e+9 
           2045      1.93183e+9 
           2055      1.82208e+9 
           2065      1.88187e+9 
           2074      1.90647e+9 
           2078      1.84112e+9 
           2085      1.88598e+9 
           2095      1.77866e+9 
           2105      1.80856e+9 
           2115      1.79757e+9 
           2125      1.81806e+9 
           2135      1.72751e+9 
           2145      1.72946e+9 
           2155      1.76707e+9 
           2165      1.71172e+9 
           2175      1.68964e+9 
           2185      1.64391e+9 
           2195      1.67025e+9 
           2205      1.62314e+9 
           2215       1.5778e+9 
           2225      1.50513e+9 
           2235      1.57473e+9 
           2245        1.525e+9 
           2255      1.46438e+9 
           2265      1.49789e+9 
           2275      1.51329e+9 
           2285      1.51818e+9 
           2295      1.46063e+9 
           2305      1.41686e+9 
           2315      1.37217e+9 
           2325      1.35934e+9 
           2335      1.29114e+9 
           2345      1.26713e+9 
           2355      1.28336e+9 
           2365      1.22835e+9 
           2375      1.25008e+9 
           2385      1.19571e+9 
           2395      1.25668e+9 
           2405      1.19701e+9 
           2415      1.20766e+9 
           2425      1.22334e+9 
           2435      1.16668e+9 
           2445      1.20278e+9 
           2455      1.17706e+9 
           2465       1.1697e+9 
           2475      1.13659e+9 
           2485      1.17767e+9 
           2495      1.13521e+9 
           2505       1.1617e+9 
           2513      1.10761e+9 
           2518      1.13661e+9 
           2525      1.08411e+9 
           2535      1.08337e+9 
           2545       1.0455e+9 
           2555      1.07819e+9 
           2565      1.06619e+9 
           2575      1.09855e+9 
           2585      1.09418e+9 
           2595      1.09164e+9 
           2605      1.05868e+9 
           2615      1.05137e+9 
           2625      1.04633e+9 
           2635      1.04589e+9 
           2645      1.06723e+9 
           2655      1.05467e+9 
           2665      1.00698e+9 
           2675      1.02901e+9 
           2685      1.01592e+9 
           2695      9.96724e+8 
           2705      9.95959e+8 
           2715       9.7223e+8 
           2725      9.59476e+8 
           2735      9.78359e+8 
           2745      9.21447e+8 
           2755      9.15663e+8 
           2765      9.22849e+8 
           2775      9.36757e+8 
           2785      9.29265e+8 
           2795      8.48651e+8 
           2805      8.88481e+8 
           2815      9.12178e+8 
           2825      8.97329e+8 
           2835      8.61668e+8 
           2845      8.52084e+8 
           2855      8.56154e+8 
           2865      8.68088e+8 
           2875       8.5144e+8 
           2885      8.48444e+8 
           2895      8.43447e+8 
           2910      8.40335e+8 
           2930      8.17975e+8 
           2950      8.01943e+8 
           2970       7.9387e+8 
           2990      7.77638e+8 
           3010      7.72037e+8 
           3030      7.61715e+8 
           3050      7.44833e+8 
           3070      7.30923e+8 
           3090      7.19992e+8 
           3110      7.03556e+8 
           3130      6.95209e+8 
           3150      6.82878e+8 
           3170      6.70502e+8 
           3190      6.48867e+8 
           3210      6.45413e+8 
           3230      6.35857e+8 
           3250      6.26771e+8 
           3270      6.17965e+8 
           3290      6.08038e+8 
           3310       5.9944e+8 
           3330       5.8815e+8 
           3350      5.76717e+8 
           3370      5.68267e+8 
           3390      5.59352e+8 
           3410      5.51385e+8 
           3430      5.41515e+8 
           3450      5.32026e+8 
           3470      5.23659e+8 
           3490      5.15818e+8 
           3510      5.08367e+8 
           3530      5.00808e+8 
           3550      4.93059e+8 
           3570      4.86515e+8 
           3590      4.76257e+8 
           3610      4.70099e+8 
           3630       4.6256e+8 
           3640      4.60932e+8 
           3650       4.5742e+8 
           3670      4.51888e+8 
           3690      4.44845e+8 
           3710      4.31221e+8 
           3730      4.10254e+8 
           3750      4.19178e+8 
           3770       4.1612e+8 
           3790      4.55225e+8 
           3810      4.91515e+8 
           3830      4.16206e+8 
           3850      5.15209e+8 
           3870       5.5037e+8 
           3890      3.81109e+8 
           3910      5.49196e+8 
           3930      5.54109e+8 
           3950      5.34556e+8 
           3970      3.58279e+8 
           3990      5.05174e+8 
           4010      5.31213e+8 
           4030      4.94476e+8 
           4050      5.25205e+8 
           4070      5.03272e+8 
           4090      4.24606e+8 
           4110      3.53912e+8 
           4130      4.64658e+8 
           4150      4.75175e+8 
           4170      4.74874e+8 
           4190      4.70287e+8 
           4210      4.65425e+8 
           4230      4.57476e+8 
           4250      4.48696e+8 
           4270      4.34585e+8 
           4290      4.32242e+8 
           4310      4.16599e+8 
           4330      3.41166e+8 
           4350      3.04589e+8 
           4370       3.9271e+8 
           4390       3.8439e+8 
           4410      3.95052e+8 
           4430      3.86982e+8 
           4450      3.85376e+8 
           4470      3.57179e+8 
           4490      3.67066e+8 
           4510      3.69597e+8 
           4530      3.61879e+8 
           4550      3.56994e+8 
           4570      3.52903e+8 
           4590      3.47313e+8 
           4610      3.42302e+8 
           4630      3.35204e+8 
           4650      3.30933e+8 
           4670      3.26688e+8 
           4690      3.23051e+8 
           4710      3.10226e+8 
           4730      3.11566e+8 
           4750      3.06292e+8 
           4770      3.04739e+8 
           4790      2.99015e+8 
           4810      2.91371e+8 
           4830      2.81277e+8 
           4850      2.39259e+8 
           4870      2.07943e+8 
           4890      2.66917e+8 
           4910      2.70857e+8 
           4930      2.61472e+8 
           4950      2.67082e+8 
           4970      2.64647e+8 
           4990      2.60517e+8 
           5010      2.50411e+8 
           5030      2.51819e+8 
           5050      2.43018e+8 
           5070      2.46469e+8 
           5090      2.42733e+8 
           5110      2.38629e+8 
           5130      2.35756e+8 
           5150      2.31925e+8 
           5170       2.2981e+8 
           5190       2.2635e+8 
           5210      2.20632e+8 
           5230      2.20849e+8 
           5250      2.18254e+8 
           5270      2.14403e+8 
           5290      2.13108e+8 
           5310      2.09862e+8 
           5330      2.06526e+8 
           5350      2.03616e+8 
           5370      2.02128e+8 
           5390      1.99542e+8 
           5410      1.96203e+8 
           5430      1.93342e+8 
           5450      1.91291e+8 
           5470      1.87969e+8 
           5490      1.87127e+8 
           5510      1.84443e+8 
           5530      1.82237e+8 
           5550      1.80045e+8 
           5570      1.77613e+8 
           5590      1.75717e+8 
           5610      1.73294e+8 
           5630       1.7172e+8 
           5650      1.67509e+8 
           5670      1.65778e+8 
           5690      1.64848e+8 
           5710      1.63256e+8 
           5730      1.61453e+8 
           5750       1.5942e+8 
           5770      1.57581e+8 
           5790      1.55618e+8 
           5810      1.53477e+8 
           5830      1.51805e+8 
           5850      1.49987e+8 
           5870      1.43489e+8 
           5890      1.45535e+8 
           5910      1.44574e+8 
           5930      1.43182e+8 
           5950      1.40465e+8 
           5970      1.39642e+8 
           5990      1.37588e+8 
           6010      1.36653e+8 
           6030      1.34981e+8 
           6050      1.33452e+8 
           6070      1.31838e+8 
           6090      1.30181e+8 
           6110      1.28947e+8 
           6130      1.27475e+8 
           6150      1.24854e+8 
           6170      1.24393e+8 
           6190      1.23187e+8 
           6210       1.2173e+8 
           6230       1.2029e+8 
           6250      1.18345e+8 
           6270      1.17543e+8 
           6290      1.16245e+8 
           6310      1.14742e+8 
           6330      1.13689e+8 
           6350      1.11012e+8 
           6370      1.10437e+8 
           6390       1.0983e+8 
           6410      1.08522e+8 
           6430      1.07702e+8 
           6450       1.0622e+8 
           6470      1.05097e+8 
           6490      1.03761e+8 
           6510       1.0204e+8 
           6530      9.96227e+7 
           6550      9.05591e+7 
           6570      7.83571e+7 
           6590      9.44511e+7 
           6610      9.64929e+7 
           6630      9.61688e+7 
           6650      9.53526e+7 
           6670      9.34268e+7 
           6690      9.26502e+7 
           6710      9.25003e+7 
           6730      9.15937e+7 
           6750      9.06796e+7 
           6770       8.9783e+7 
           6790      8.86175e+7 
           6810      8.78622e+7 
           6830      8.67669e+7 
           6850      8.60763e+7 
           6870      8.52087e+7 
           6890      8.43259e+7 
           6910      8.34676e+7 
           6930      8.23904e+7 
           6950      8.17843e+7 
           6970      8.09744e+7 
           6990      8.01184e+7 
           7010      7.92019e+7 
           7030      7.84546e+7 
           7050      7.75554e+7 
           7070      7.59565e+7 
           7090      7.62106e+7 
           7110      7.53577e+7 
           7130      7.46317e+7 
           7150      7.38315e+7 
           7170      7.31813e+7 
           7190      7.24847e+7 
           7210      7.17904e+7 
           7230      7.05743e+7 
           7250      7.02464e+7 
           7270      6.96993e+7 
           7290      6.86652e+7 
           7310      6.83316e+7 
           7330      6.76802e+7 
           7350       6.7048e+7 
           7370      6.63968e+7 
           7390      6.57558e+7 
           7410      6.51248e+7 
           7430      6.42894e+7 
           7450      6.37981e+7 
           7470      6.30863e+7 
           7490      6.25363e+7 
           7510      6.20287e+7 
           7530      6.14438e+7 
           7550      6.08828e+7 
           7570      6.03294e+7 
           7590       5.9717e+7 
           7610      5.92135e+7 
           7630      5.86505e+7 
           7650       5.8099e+7 
           7670      5.75613e+7 
           7690      5.70234e+7 
           7710      5.65036e+7 
           7730        5.596e+7 
           7750      5.54577e+7 
           7770      5.42222e+7 
           7790      5.44439e+7 
           7810      5.39505e+7 
           7830      5.34651e+7 
           7850      5.26269e+7 
           7870      5.22466e+7 
           7890      5.15833e+7 
           7910      5.15082e+7 
           7930      5.10899e+7 
           7950      5.02985e+7 
           7970      5.01555e+7 
           7990      4.92604e+7 
           8010      4.92836e+7 
           8030      4.88333e+7 
           8050      4.83567e+7 
           8070      4.79791e+7 
           8090       4.7532e+7 
           8110      4.71003e+7 
           8130      4.66614e+7 
           8150      4.62925e+7 
           8170      4.59014e+7 
           8190      4.54399e+7 
           8210      4.48828e+7 
           8230      4.42968e+7 
           8250      4.42837e+7 
           8270      4.38732e+7 
           8290      4.35345e+7 
           8310      4.31665e+7 
           8330      4.28346e+7 
           8350      4.24178e+7 
           8370       4.2054e+7 
           8390      4.17954e+7 
           8410       4.1436e+7 
           8430      4.10446e+7 
           8450      4.02949e+7 
           8470      4.03454e+7 
           8490       3.9901e+7 
           8510      3.94879e+7 
           8530      3.92895e+7 
           8550      3.84931e+7 
           8570      3.87948e+7 
