# Kurucz ODFNEW /NOVER (2003)
# teff = 26000 K (value for the effective temperature for the model. Temperatures are given in K)
# logg = 5 log(cm/s2) (value for Log(G) for the model.)
# meta = -1.5  (value for the Metallicity for the model.)
# lh = 1.25  (l/Hp where l is the  mixing length of the convective element and Hp is the pressure scale height)
# vtur = 2 km/s (Microturbulence velocity)
# alpha = 0.4  (Alpha)
#
# column 1: WAVELENGTH (ANGSTROM), Wavelength in Angstrom
# column 2: FLUX (ERG/CM2/S/A), Flux in erg/cm2/s/A
          147.2     5.21006e-13 
            151     2.20443e-12 
          155.2     1.00536e-11 
          158.8     3.47726e-11 
            162     1.00394e-10 
            166     3.57945e-10 
          170.3       1.3182e-9 
          173.4      3.24813e-9 
          176.8      8.43471e-9 
          180.2      2.11591e-8 
          181.7      3.14119e-8 
          186.1      9.66766e-8 
            191      3.18683e-7 
          193.9      6.27792e-7 
          198.4      1.72963e-6 
          201.8      3.61038e-6 
            205      7.05912e-6 
          210.5       2.1313e-5 
          216.2      6.31049e-5 
          219.8     0.000121615 
            223     0.000213974 
          226.8      0.00040981 
            230      0.00699919 
            234       0.0158168 
            240       0.0367893 
          246.5       0.0874332 
          252.4        0.186603 
          256.8        0.306873 
            260        0.462363 
            264        0.727773 
          268.5         1.19333 
          273.5         2.02274 
          278.5         3.37007 
            284         5.78808 
            290         10.1502 
            296         17.3573 
            301         26.6573 
            308         46.0706 
            318          104.01 
            328         213.983 
            338         425.817 
            348         807.313 
            357          1400.4 
            366            2360 
            375         3813.24 
            385         6380.19 
            395         10313.7 
            405         16265.8 
            414         24112.1 
            422         33388.3 
            430         45688.4 
            441           69449 
            451           99742 
            460          135265 
            470          187614 
            480          255666 
            490          343983 
            500          456882 
            506      2.49239e+6 
            512      9.08396e+6 
            520      1.07782e+7 
            530      1.39654e+7 
            540      1.46803e+7 
            550       1.9372e+7 
            560      2.18806e+7 
            570      2.55466e+7 
            580      2.55569e+7 
            590      3.18472e+7 
            600      3.65354e+7 
            610       4.1584e+7 
            620      4.58485e+7 
            630      5.14398e+7 
            640      5.51353e+7 
            650      6.19147e+7 
            658      6.76212e+7 
            665      7.20269e+7 
            675      7.69921e+7 
            685      8.31137e+7 
            695      9.42087e+7 
            705      1.00643e+8 
            716      1.10802e+8 
            726      1.18721e+8 
            735      1.27839e+8 
            745      1.38556e+8 
            755      1.48762e+8 
            765      1.58713e+8 
            775      1.70594e+8 
            785      1.82225e+8 
            795      1.92303e+8 
            805      2.04554e+8 
            815       2.1603e+8 
            825      2.29622e+8 
            835       2.3609e+8 
            845      2.53566e+8 
            855      2.65753e+8 
            865      2.80947e+8 
            875      2.95784e+8 
            885      3.11167e+8 
            895      3.25459e+8 
            905       3.3521e+8 
            915      4.19488e+8 
            925      1.78849e+9 
            935      4.70446e+9 
            945     1.57306e+10 
            955     2.60841e+10 
            965     3.66116e+10 
            975     1.20165e+10 
            985     4.61717e+10 
            995     4.47878e+10 
           1005     4.69296e+10 
           1015      3.9409e+10 
           1025      9.28104e+9 
           1035     3.35173e+10 
           1045     4.62345e+10 
           1055     4.52776e+10 
           1065     4.06913e+10 
           1075     4.24252e+10 
           1085      3.8613e+10 
           1095     4.13451e+10 
           1105     3.87397e+10 
           1115      3.8051e+10 
           1125     3.48682e+10 
           1135     3.67803e+10 
           1145     3.37671e+10 
           1155     3.45969e+10 
           1165     3.40693e+10 
           1175     2.85639e+10 
           1185     3.20061e+10 
           1195     2.90879e+10 
           1205     2.23834e+10 
           1215      6.85181e+9 
           1225     2.19537e+10 
           1235     2.75503e+10 
           1245     2.75324e+10 
           1255     2.69973e+10 
           1265     2.64945e+10 
           1275      2.6449e+10 
           1285     2.57948e+10 
           1295     2.28663e+10 
           1305     2.28335e+10 
           1315     2.40017e+10 
           1325     2.30657e+10 
           1335     2.21295e+10 
           1345     2.20079e+10 
           1355     2.19674e+10 
           1365      2.0937e+10 
           1375     2.06774e+10 
           1385     2.03583e+10 
           1395     1.84483e+10 
           1405     1.85374e+10 
           1415      1.8887e+10 
           1425     1.84793e+10 
           1435        1.82e+10 
           1442     1.81592e+10 
           1447     1.79141e+10 
           1455     1.75721e+10 
           1465     1.71064e+10 
           1475     1.67769e+10 
           1485      1.6388e+10 
           1495     1.60603e+10 
           1505     1.53351e+10 
           1512     1.51098e+10 
           1517     1.50841e+10 
           1525     1.48254e+10 
           1535     1.40616e+10 
           1545     1.39519e+10 
           1555     1.34823e+10 
           1565     1.35825e+10 
           1575     1.34907e+10 
           1585     1.32314e+10 
           1595     1.30555e+10 
           1605     1.26111e+10 
           1615     1.23488e+10 
           1625     1.22618e+10 
           1635     1.21406e+10 
           1645     1.17445e+10 
           1655     1.17033e+10 
           1665     1.15505e+10 
           1672      1.1294e+10 
           1677     1.13989e+10 
           1685        1.12e+10 
           1695     1.09261e+10 
           1705      1.0663e+10 
           1715      1.0377e+10 
           1725     1.02042e+10 
           1735     1.01127e+10 
           1745      9.92108e+9 
           1755      9.81727e+9 
           1765      9.44876e+9 
           1775      9.34749e+9 
           1785       9.2291e+9 
           1795      9.17029e+9 
           1805      9.05196e+9 
           1815      8.80073e+9 
           1825      8.70545e+9 
           1835      8.54191e+9 
           1845      8.14998e+9 
           1855       7.9775e+9 
           1865      7.95727e+9 
           1875      7.95545e+9 
           1885      7.57164e+9 
           1895      7.29272e+9 
           1905      7.43924e+9 
           1915       7.1792e+9 
           1925      7.02032e+9 
           1935       7.0551e+9 
           1945      7.04917e+9 
           1955      6.70607e+9 
           1967      6.78633e+9 
           1976      6.82027e+9 
           1984      6.58267e+9 
           1995      6.38656e+9 
           2005      6.42835e+9 
           2015      6.39133e+9 
           2025      6.35133e+9 
           2035      6.15925e+9 
           2045      6.07087e+9 
           2055      5.86733e+9 
           2065      5.82937e+9 
           2074      5.87584e+9 
           2078      5.72577e+9 
           2085      5.71148e+9 
           2095      5.56413e+9 
           2105      5.58833e+9 
           2115      5.53839e+9 
           2125      5.49782e+9 
           2135      5.40363e+9 
           2145      5.29711e+9 
           2155      5.25252e+9 
           2165      5.18547e+9 
           2175      5.10254e+9 
           2185      5.03787e+9 
           2195      4.97659e+9 
           2205      4.90443e+9 
           2215      4.83806e+9 
           2225       4.7627e+9 
           2235      4.69333e+9 
           2245      4.64092e+9 
           2255      4.56903e+9 
           2265      4.51556e+9 
           2275      4.45368e+9 
           2285      4.39617e+9 
           2295      4.28191e+9 
           2305      4.27469e+9 
           2315      4.21211e+9 
           2325      4.15811e+9 
           2335      4.09086e+9 
           2345      4.04193e+9 
           2355      3.99735e+9 
           2365       3.9426e+9 
           2375       3.8889e+9 
           2385      3.83596e+9 
           2395      3.78705e+9 
           2405      3.73908e+9 
           2415      3.68653e+9 
           2425       3.6487e+9 
           2435      3.59535e+9 
           2445      3.55226e+9 
           2455      3.51069e+9 
           2465      3.46509e+9 
           2475      3.42115e+9 
           2485      3.37812e+9 
           2495      3.26576e+9 
           2505      3.29011e+9 
           2513      3.22702e+9 
           2518        3.234e+9 
           2525      3.20942e+9 
           2535       3.1699e+9 
           2545      3.10945e+9 
           2555      3.08862e+9 
           2565      3.05135e+9 
           2575      3.02088e+9 
           2585      2.98487e+9 
           2595      2.94859e+9 
           2605      2.93188e+9 
           2615      2.89799e+9 
           2625      2.86436e+9 
           2635      2.82834e+9 
           2645       2.7952e+9 
           2655      2.75841e+9 
           2665      2.71643e+9 
           2675      2.68036e+9 
           2685       2.6688e+9 
           2695      2.61012e+9 
           2705      2.60445e+9 
           2715      2.57462e+9 
           2725      2.51908e+9 
           2735      2.51505e+9 
           2745      2.48006e+9 
           2755      2.45409e+9 
           2765      2.40336e+9 
           2775      2.40314e+9 
           2785       2.3747e+9 
           2795      2.30917e+9 
           2805      2.30691e+9 
           2815      2.29602e+9 
           2825      2.23929e+9 
           2835      2.21283e+9 
           2845      2.21913e+9 
           2855      2.19381e+9 
           2865      2.17017e+9 
           2875      2.14603e+9 
           2885      2.12267e+9 
           2895      2.09927e+9 
           2910      2.06398e+9 
           2930      2.01804e+9 
           2950      1.95605e+9 
           2970      1.93372e+9 
           2990      1.89142e+9 
           3010      1.85123e+9 
           3030      1.81354e+9 
           3050      1.77578e+9 
           3070      1.73897e+9 
           3090      1.69874e+9 
           3110      1.66757e+9 
           3130       1.6346e+9 
           3150      1.60168e+9 
           3170      1.56894e+9 
           3190      1.52049e+9 
           3210      1.50624e+9 
           3230      1.47555e+9 
           3250      1.44618e+9 
           3270      1.41959e+9 
           3290       1.3894e+9 
           3310      1.36489e+9 
           3330      1.33842e+9 
           3350       1.3098e+9 
           3370      1.28743e+9 
           3390      1.26301e+9 
           3410       1.2391e+9 
           3430      1.20987e+9 
           3450      1.18233e+9 
           3470      1.16396e+9 
           3490       1.1424e+9 
           3510      1.12293e+9 
           3530      1.10374e+9 
           3550      1.08453e+9 
           3570      1.07285e+9 
           3590      1.04357e+9 
           3610      1.03001e+9 
           3630      1.00703e+9 
           3640      1.00756e+9 
           3650       9.8921e+8 
           3670      9.76528e+8 
           3690       9.6005e+8 
           3710      9.28022e+8 
           3730      8.94106e+8 
           3750      8.87353e+8 
           3770      8.64976e+8 
           3790      9.06568e+8 
           3810      9.48954e+8 
           3830      8.19647e+8 
           3850      9.86219e+8 
           3870      1.01436e+9 
           3890      7.67246e+8 
           3910      1.00116e+9 
           3930      1.00294e+9 
           3950      9.71227e+8 
           3970      7.13833e+8 
           3990      9.25797e+8 
           4010      9.39287e+8 
           4030      8.67752e+8 
           4050      9.23352e+8 
           4070      8.96287e+8 
           4090      7.90321e+8 
           4110       6.8017e+8 
           4130       8.3567e+8 
           4150      8.36625e+8 
           4170      8.33493e+8 
           4190      8.23045e+8 
           4210      8.10185e+8 
           4230      7.96204e+8 
           4250      7.81762e+8 
           4270      7.64455e+8 
           4290      7.52186e+8 
           4310      7.30315e+8 
           4330        6.324e+8 
           4350      5.72903e+8 
           4370      6.90868e+8 
           4390      6.64101e+8 
           4410      6.81724e+8 
           4430      6.70054e+8 
           4450      6.61704e+8 
           4470      6.08132e+8 
           4490      6.38923e+8 
           4510      6.32232e+8 
           4530      6.22145e+8 
           4550      6.11866e+8 
           4570      6.01994e+8 
           4590       5.9279e+8 
           4610      5.83704e+8 
           4630      5.74718e+8 
           4650      5.63809e+8 
           4670      5.56779e+8 
           4690      5.48547e+8 
           4710      5.30482e+8 
           4730      5.31647e+8 
           4750      5.23172e+8 
           4770      5.16343e+8 
           4790      5.07394e+8 
           4810      4.97891e+8 
           4830      4.84281e+8 
           4850      4.30118e+8 
           4870      3.80861e+8 
           4890      4.59409e+8 
           4910      4.60221e+8 
           4930      4.40111e+8 
           4950      4.50645e+8 
           4970      4.44875e+8 
           4990      4.38381e+8 
           5010      4.24577e+8 
           5030      4.25689e+8 
           5050      4.16061e+8 
           5070      4.13796e+8 
           5090      4.07875e+8 
           5110      4.02077e+8 
           5130      3.96343e+8 
           5150      3.90742e+8 
           5170      3.85343e+8 
           5190      3.79987e+8 
           5210      3.74494e+8 
           5230      3.69514e+8 
           5250      3.64408e+8 
           5270      3.59368e+8 
           5290      3.54448e+8 
           5310      3.49605e+8 
           5330      3.44812e+8 
           5350      3.40067e+8 
           5370      3.35566e+8 
           5390      3.31018e+8 
           5410      3.26567e+8 
           5430      3.22134e+8 
           5450      3.17859e+8 
           5470      3.13651e+8 
           5490       3.0952e+8 
           5510      3.05428e+8 
           5530      3.01399e+8 
           5550      2.97458e+8 
           5570      2.93552e+8 
           5590      2.89744e+8 
           5610      2.85946e+8 
           5630      2.82278e+8 
           5650      2.78512e+8 
           5670      2.74911e+8 
           5690      2.71364e+8 
           5710      2.68034e+8 
           5730      2.64628e+8 
           5750      2.61195e+8 
           5770      2.57985e+8 
           5790      2.54722e+8 
           5810       2.5152e+8 
           5830      2.48357e+8 
           5850      2.45253e+8 
           5870      2.32334e+8 
           5890      2.38165e+8 
           5910      2.36232e+8 
           5930      2.33313e+8 
           5950      2.30406e+8 
           5970      2.27639e+8 
           5990       2.2483e+8 
           6010      2.22115e+8 
           6030      2.19411e+8 
           6050      2.16769e+8 
           6070      2.14157e+8 
           6090      2.11575e+8 
           6110      2.09041e+8 
           6130      2.06547e+8 
           6150       2.0403e+8 
           6170      2.01651e+8 
           6190      1.99268e+8 
           6210      1.96912e+8 
           6230      1.94592e+8 
           6250      1.92297e+8 
           6270      1.90057e+8 
           6290      1.87841e+8 
           6310      1.85639e+8 
           6330        1.835e+8 
           6350       1.8128e+8 
           6370      1.79243e+8 
           6390      1.77219e+8 
           6410      1.75179e+8 
           6430      1.73198e+8 
           6450       1.7122e+8 
           6470      1.69237e+8 
           6490      1.67158e+8 
           6510      1.64808e+8 
           6530      1.61715e+8 
           6550      1.51078e+8 
           6570      1.32713e+8 
           6590      1.54376e+8 
           6610      1.55461e+8 
           6630      1.54268e+8 
           6650      1.52992e+8 
           6670      1.49095e+8 
           6690      1.47532e+8 
           6710      1.48051e+8 
           6730      1.46415e+8 
           6750      1.44838e+8 
           6770       1.4326e+8 
           6790      1.41649e+8 
           6810       1.4016e+8 
           6830      1.38646e+8 
           6850      1.37163e+8 
           6870      1.35687e+8 
           6890      1.34226e+8 
           6910      1.32796e+8 
           6930      1.31379e+8 
           6950      1.29984e+8 
           6970      1.28611e+8 
           6990      1.27244e+8 
           7010      1.25906e+8 
           7030      1.24581e+8 
           7050      1.23276e+8 
           7070      1.19663e+8 
           7090      1.20712e+8 
           7110       1.1946e+8 
           7130      1.18221e+8 
           7150      1.16993e+8 
           7170      1.15777e+8 
           7190      1.14594e+8 
           7210      1.13423e+8 
           7230      1.11989e+8 
           7250      1.11107e+8 
           7270      1.09976e+8 
           7290      1.07821e+8 
           7310      1.07747e+8 
           7330      1.06669e+8 
           7350      1.05594e+8 
           7370      1.04529e+8 
           7390      1.03481e+8 
           7410       1.0245e+8 
           7430      1.01421e+8 
           7450       1.0043e+8 
           7470      9.94199e+7 
           7490      9.84464e+7 
           7510      9.74418e+7 
           7530       9.6513e+7 
           7550      9.55661e+7 
           7570      9.46279e+7 
           7590      9.37048e+7 
           7610      9.27836e+7 
           7630      9.18836e+7 
           7650      9.09918e+7 
           7670      9.01145e+7 
           7690      8.92386e+7 
           7710      8.83833e+7 
           7730      8.75294e+7 
           7750      8.66893e+7 
           7770      8.58068e+7 
           7790       8.5044e+7 
           7810      8.41828e+7 
           7830      8.34338e+7 
           7850      8.27157e+7 
           7870      8.19309e+7 
           7890      8.11045e+7 
           7910      8.04179e+7 
           7930      7.96594e+7 
           7950      7.88776e+7 
           7970      7.80374e+7 
           7990      7.72695e+7 
           8010      7.65436e+7 
           8030      7.58239e+7 
           8050      7.51163e+7 
           8070      7.44262e+7 
           8090      7.36673e+7 
           8110      7.30294e+7 
           8130      7.24255e+7 
           8150      7.17245e+7 
           8170      7.11254e+7 
           8190      7.04078e+7 
           8210       6.9618e+7 
           8230      6.91522e+7 
           8250      6.85516e+7 
           8270        6.762e+7 
           8290      6.73051e+7 
           8310       6.6736e+7 
           8330      6.60956e+7 
           8350      6.51904e+7 
           8370      6.48362e+7 
           8390      6.43669e+7 
           8410      6.37948e+7 
           8430       6.3185e+7 
           8450       6.2174e+7 
           8470      6.20908e+7 
           8490      6.13857e+7 
           8510       6.0957e+7 
           8530       6.0278e+7 
           8550      5.96511e+7 
           8570      5.95371e+7 
