# Kurucz ODFNEW /NOVER (2003)
# teff = 19000 K (value for the effective temperature for the model. Temperatures are given in K)
# logg = 2.5 log(cm/s2) (value for Log(G) for the model.)
# meta = 0.2  (value for the Metallicity for the model.)
# lh = 1.25  (l/Hp where l is the  mixing length of the convective element and Hp is the pressure scale height)
# vtur = 2 km/s (Microturbulence velocity)
# alpha = 0.4  (Alpha)
#
# column 1: WAVELENGTH (ANGSTROM), Wavelength in Angstrom
# column 2: FLUX (ERG/CM2/S/A), Flux in erg/cm2/s/A
          147.2     1.53702e-22 
            151     1.16571e-21 
          155.2     8.88074e-21 
          158.8     4.63609e-20 
            162     1.90159e-19 
            166     1.03353e-18 
          170.3     5.84941e-18 
          173.4     1.95146e-17 
          176.8     6.96109e-17 
          180.2     2.37312e-16 
          181.7     4.01823e-16 
          186.1     1.80276e-15 
            191     8.88956e-15 
          193.9     2.20303e-14 
          198.4     8.56745e-14 
          201.8     2.30053e-13 
            205     5.66398e-13 
          210.5     2.50633e-12 
          216.2     1.08354e-11 
          219.8     2.62959e-11 
            223     5.64954e-11 
          226.8     1.36298e-10 
            230      2.15106e-9 
            234      5.91459e-9 
            240      1.94075e-8 
          246.5      6.56028e-8 
          252.4      1.89655e-7 
          256.8      3.93209e-7 
            260      7.02857e-7 
            264      1.33852e-6 
          268.5      2.70605e-6 
          273.5      5.72027e-6 
          278.5      1.19179e-5 
            284      2.70244e-5 
            290       6.0326e-5 
            296     0.000130675 
            301     0.000242676 
            308     0.000579287 
            318      0.00183354 
            328      0.00515524 
            338        0.014328 
            348       0.0365425 
            357        0.135068 
            366        0.294986 
            375        0.573432 
            385         1.18673 
            395         2.41527 
            405         4.60137 
            414         8.11284 
            422         12.9073 
            430         20.6396 
            441         37.7096 
            451         63.0343 
            460         97.4992 
            470         157.803 
            480          246.82 
            490         384.418 
            500         584.142 
            506         3880.06 
            512         82405.2 
            520          103226 
            530          152516 
            540          163921 
            550          295705 
            560          369786 
            570          498595 
            580          468437 
            590          721165 
            600          957374 
            610      1.25411e+6 
            620      1.43155e+6 
            630      1.65698e+6 
            640      1.68995e+6 
            650      1.59403e+6 
            658      2.42328e+6 
            665      2.68407e+6 
            675      2.78596e+6 
            685      2.93724e+6 
            695      4.06808e+6 
            705      4.33217e+6 
            716      5.09874e+6 
            726      5.35215e+6 
            735      6.00947e+6 
            745      7.20776e+6 
            755      8.07752e+6 
            765      9.04833e+6 
            775      1.01492e+7 
            785      1.12018e+7 
            795      1.19857e+7 
            805      1.29316e+7 
            815      1.38605e+7 
            825      1.56183e+7 
            835      1.32823e+7 
            845      1.70873e+7 
            855      1.80968e+7 
            865      1.99627e+7 
            875      2.18984e+7 
            885      2.47435e+7 
            895      2.67366e+7 
            905      2.58877e+7 
            915      7.61716e+7 
            925      1.55856e+9 
            935      2.57954e+9 
            945      3.41481e+9 
            955      4.09162e+9 
            965      3.16121e+9 
            975      5.21051e+8 
            985      1.81495e+9 
            995      2.86341e+9 
           1005      4.42516e+9 
           1015      4.50112e+9 
           1025      3.75824e+9 
           1035       2.9142e+9 
           1045      6.21037e+9 
           1055      5.63761e+9 
           1065      3.78116e+9 
           1075      5.31635e+9 
           1085      4.34452e+9 
           1095      5.69984e+9 
           1105      4.33739e+9 
           1115      3.40722e+9 
           1125      2.82643e+9 
           1135      5.24668e+9 
           1145      4.74107e+9 
           1155      5.16087e+9 
           1165        5.134e+9 
           1175      2.73742e+9 
           1185      4.87953e+9 
           1195       2.9663e+9 
           1205      6.12253e+8 
           1215      2.02188e+9 
           1225      4.31703e+9 
           1235      5.67456e+9 
           1245      5.58571e+9 
           1255      5.54513e+9 
           1265       5.3441e+9 
           1275      5.69187e+9 
           1285      5.58036e+9 
           1295      2.21389e+9 
           1305      2.58796e+9 
           1315      5.40446e+9 
           1325      5.10002e+9 
           1335      4.45275e+9 
           1345      5.26414e+9 
           1355      5.16252e+9 
           1365      4.43084e+9 
           1375      4.34211e+9 
           1385      3.92809e+9 
           1395       2.2859e+9 
           1405      2.80902e+9 
           1415       3.6171e+9 
           1425      3.96836e+9 
           1435      4.17485e+9 
           1442      4.36524e+9 
           1447      4.25955e+9 
           1455      4.11301e+9 
           1465      3.73864e+9 
           1475      3.90664e+9 
           1485      3.87744e+9 
           1495      3.79675e+9 
           1505      3.41381e+9 
           1512      2.97805e+9 
           1517      3.16095e+9 
           1525      3.32421e+9 
           1535      2.76684e+9 
           1545      2.74803e+9 
           1555      2.69395e+9 
           1565      2.92142e+9 
           1575      3.14915e+9 
           1585      3.22771e+9 
           1595      3.20024e+9 
           1605      3.28611e+9 
           1615       3.2974e+9 
           1625      3.16663e+9 
           1635      3.46511e+9 
           1645      3.46655e+9 
           1655      3.34267e+9 
           1665      3.52374e+9 
           1672      3.36007e+9 
           1677       3.6187e+9 
           1685       3.6148e+9 
           1695      3.33494e+9 
           1705      3.26379e+9 
           1715      3.00425e+9 
           1725      3.03865e+9 
           1735      3.25077e+9 
           1745        3.128e+9 
           1755      3.19349e+9 
           1765      3.12512e+9 
           1775      2.91232e+9 
           1785        3.007e+9 
           1795      3.21702e+9 
           1805      3.29283e+9 
           1815      2.75197e+9 
           1825      2.98986e+9 
           1835      2.86606e+9 
           1845      2.58197e+9 
           1855       2.4294e+9 
           1865      2.52505e+9 
           1875      2.88996e+9 
           1885      2.49158e+9 
           1895      2.27463e+9 
           1905      2.62847e+9 
           1915      2.32804e+9 
           1925      2.24505e+9 
           1935      2.46942e+9 
           1945      2.48861e+9 
           1955      2.22478e+9 
           1967      2.54951e+9 
           1976      2.64405e+9 
           1984      2.45844e+9 
           1995      2.38739e+9 
           2005      2.58648e+9 
           2015      2.50623e+9 
           2025      2.63579e+9 
           2035      2.34831e+9 
           2045      2.46963e+9 
           2055      2.35876e+9 
           2065        2.316e+9 
           2074      2.56517e+9 
           2078      2.17614e+9 
           2085      2.41555e+9 
           2095      2.26345e+9 
           2105      2.34147e+9 
           2115      2.39139e+9 
           2125       2.4054e+9 
           2135      2.37068e+9 
           2145      2.22925e+9 
           2155      2.37337e+9 
           2165      2.39449e+9 
           2175      2.37635e+9 
           2185      2.24449e+9 
           2195      2.32597e+9 
           2205      2.33173e+9 
           2215       2.2615e+9 
           2225      2.19784e+9 
           2235       2.2062e+9 
           2245      2.24661e+9 
           2255      2.14175e+9 
           2265      2.21827e+9 
           2275      2.19539e+9 
           2285      2.21684e+9 
           2295      1.97934e+9 
           2305      2.13458e+9 
           2315      2.04321e+9 
           2325      2.01236e+9 
           2335      1.91079e+9 
           2345      1.94447e+9 
           2355      1.96923e+9 
           2365      1.94406e+9 
           2375      1.92752e+9 
           2385       1.9002e+9 
           2395      1.91622e+9 
           2405      1.84957e+9 
           2415      1.86426e+9 
           2425      1.87621e+9 
           2435      1.80066e+9 
           2445      1.84242e+9 
           2455      1.85064e+9 
           2465      1.79764e+9 
           2475      1.75793e+9 
           2485      1.72386e+9 
           2495      1.41105e+9 
           2505      1.66066e+9 
           2513      1.61551e+9 
           2518      1.69989e+9 
           2525      1.66082e+9 
           2535      1.64756e+9 
           2545      1.54617e+9 
           2555      1.63716e+9 
           2565       1.6077e+9 
           2575      1.65154e+9 
           2585      1.62346e+9 
           2595      1.61427e+9 
           2605      1.60917e+9 
           2615      1.58179e+9 
           2625      1.57556e+9 
           2635      1.57117e+9 
           2645      1.57686e+9 
           2655      1.57901e+9 
           2665      1.49944e+9 
           2675      1.52979e+9 
           2685      1.51821e+9 
           2695      1.46459e+9 
           2705      1.43705e+9 
           2715       1.4434e+9 
           2725      1.43901e+9 
           2735      1.43944e+9 
           2745      1.38342e+9 
           2755      1.38471e+9 
           2765      1.38551e+9 
           2775      1.40367e+9 
           2785      1.37933e+9 
           2795       1.3184e+9 
           2805      1.35178e+9 
           2815      1.35184e+9 
           2825      1.34503e+9 
           2835      1.27701e+9 
           2845       1.2896e+9 
           2855       1.2724e+9 
           2865      1.29121e+9 
           2875      1.27531e+9 
           2885      1.26825e+9 
           2895      1.24112e+9 
           2910      1.22436e+9 
           2930      1.20932e+9 
           2950      1.17571e+9 
           2970      1.16488e+9 
           2990       1.1429e+9 
           3010      1.09957e+9 
           3030       1.1078e+9 
           3050      1.09291e+9 
           3070      1.07944e+9 
           3090      1.03485e+9 
           3110      1.03475e+9 
           3130      1.01338e+9 
           3150      1.00047e+9 
           3170      9.74168e+8 
           3190      9.55993e+8 
           3210      9.45836e+8 
           3230      9.26215e+8 
           3250      9.16242e+8 
           3270      8.96894e+8 
           3290      8.80733e+8 
           3310      8.67577e+8 
           3330      8.50528e+8 
           3350      8.37348e+8 
           3370      8.21799e+8 
           3390      8.11902e+8 
           3410      7.99458e+8 
           3430      7.82509e+8 
           3450      7.67385e+8 
           3470       7.5528e+8 
           3490      7.42225e+8 
           3510       7.3165e+8 
           3530      7.24018e+8 
           3550      7.11519e+8 
           3570      7.01441e+8 
           3590      6.81458e+8 
           3610      6.69187e+8 
           3630      6.63663e+8 
           3640      6.63604e+8 
           3650      6.52847e+8 
           3670      6.44884e+8 
           3690      6.23331e+8 
           3710      6.32613e+8 
           3730      6.41254e+8 
           3750      6.83966e+8 
           3770        6.727e+8 
           3790      6.70445e+8 
           3810      6.87664e+8 
           3830      6.30934e+8 
           3850      6.71035e+8 
           3870      6.53074e+8 
           3890        6.107e+8 
           3910       6.4907e+8 
           3930      6.22577e+8 
           3950      6.24063e+8 
           3970      5.67596e+8 
           3990      6.05201e+8 
           4010      5.98382e+8 
           4030      5.78888e+8 
           4050       5.7934e+8 
           4070      5.57672e+8 
           4090      5.44327e+8 
           4110      5.10272e+8 
           4130      5.32641e+8 
           4150      5.28373e+8 
           4170       5.2596e+8 
           4190      5.21787e+8 
           4210      5.17671e+8 
           4230      5.06597e+8 
           4250      4.95145e+8 
           4270      4.81013e+8 
           4290      4.77275e+8 
           4310       4.6663e+8 
           4330      4.53147e+8 
           4350      4.24043e+8 
           4370      4.46211e+8 
           4390      4.45047e+8 
           4410      4.39005e+8 
           4430      4.33764e+8 
           4450      4.28885e+8 
           4470      4.17947e+8 
           4490      4.16157e+8 
           4510      4.14197e+8 
           4530      4.06894e+8 
           4550      4.02342e+8 
           4570      3.95978e+8 
           4590       3.9021e+8 
           4610      3.81886e+8 
           4630       3.7775e+8 
           4650      3.66912e+8 
           4670      3.67023e+8 
           4690      3.65047e+8 
           4710      3.51272e+8 
           4730      3.51625e+8 
           4750      3.46599e+8 
           4770      3.47789e+8 
           4790      3.41672e+8 
           4810      3.34392e+8 
           4830       3.3032e+8 
           4850      3.24622e+8 
           4870      3.00263e+8 
           4890      3.18892e+8 
           4910      3.14471e+8 
           4930      3.06159e+8 
           4950      3.04951e+8 
           4970       3.0363e+8 
           4990      2.98629e+8 
           5010      2.86253e+8 
           5030      2.89922e+8 
           5050      2.82682e+8 
           5070      2.82992e+8 
           5090      2.78809e+8 
           5110      2.74481e+8 
           5130      2.68766e+8 
           5150       2.6664e+8 
           5170      2.65046e+8 
           5190      2.61721e+8 
           5210      2.55912e+8 
           5230      2.55061e+8 
           5250      2.52096e+8 
           5270      2.48124e+8 
           5290      2.45888e+8 
           5310      2.42383e+8 
           5330      2.39175e+8 
           5350       2.3556e+8 
           5370      2.33874e+8 
           5390      2.30664e+8 
           5410      2.28047e+8 
           5430      2.24199e+8 
           5450      2.21567e+8 
           5470      2.18716e+8 
           5490      2.16725e+8 
           5510      2.14373e+8 
           5530      2.11162e+8 
           5550      2.09361e+8 
           5570      2.06403e+8 
           5590      2.04411e+8 
           5610      2.01316e+8 
           5630      1.99686e+8 
           5650      1.94841e+8 
           5670      1.92203e+8 
           5690      1.90238e+8 
           5710      1.89335e+8 
           5730       1.8743e+8 
           5750      1.84624e+8 
           5770      1.83494e+8 
           5790      1.81195e+8 
           5810      1.79045e+8 
           5830      1.76522e+8 
           5850      1.74811e+8 
           5870      1.69205e+8 
           5890      1.69132e+8 
           5910      1.68173e+8 
           5930      1.66023e+8 
           5950      1.63557e+8 
           5970      1.63266e+8 
           5990      1.60404e+8 
           6010        1.594e+8 
           6030      1.57215e+8 
           6050      1.55601e+8 
           6070      1.54117e+8 
           6090      1.52264e+8 
           6110      1.50693e+8 
           6130       1.4911e+8 
           6150      1.46289e+8 
           6170      1.45243e+8 
           6190      1.44041e+8 
           6210      1.42538e+8 
           6230      1.41042e+8 
           6250      1.38974e+8 
           6270      1.37696e+8 
           6290      1.36241e+8 
           6310      1.34423e+8 
           6330      1.33406e+8 
           6350      1.31081e+8 
           6370      1.30055e+8 
           6390      1.28855e+8 
           6410       1.2752e+8 
           6430      1.26436e+8 
           6450      1.24938e+8 
           6470      1.23195e+8 
           6490      1.21945e+8 
           6510      1.20823e+8 
           6530       1.1936e+8 
           6550      1.17438e+8 
           6570      1.06783e+8 
           6590      1.14646e+8 
           6610      1.14496e+8 
           6630      1.13472e+8 
           6650      1.12135e+8 
           6670      1.10371e+8 
           6690      1.09291e+8 
           6710       1.0885e+8 
           6730      1.07447e+8 
           6750      1.06712e+8 
           6770      1.05622e+8 
           6790      1.03506e+8 
           6810      1.03223e+8 
           6830      1.02087e+8 
           6850      1.01275e+8 
           6870      1.00231e+8 
           6890      9.91103e+7 
           6910       9.7993e+7 
           6930      9.71223e+7 
           6950      9.62755e+7 
           6970      9.53205e+7 
           6990      9.42901e+7 
           7010      9.33312e+7 
           7030      9.23969e+7 
           7050      9.14717e+7 
           7070      8.91536e+7 
           7090       8.9723e+7 
           7110      8.79222e+7 
           7130      8.71481e+7 
           7150      8.70076e+7 
           7170      8.61858e+7 
           7190      8.53936e+7 
           7210      8.45509e+7 
           7230      8.22604e+7 
           7250      8.26601e+7 
           7270      8.20633e+7 
           7290       8.0685e+7 
           7310      8.04697e+7 
           7330      7.96596e+7 
           7350      7.89687e+7 
           7370      7.82216e+7 
           7390      7.74608e+7 
           7410      7.67276e+7 
           7430      7.58647e+7 
           7450      7.52203e+7 
           7470      7.40754e+7 
           7490      7.37408e+7 
           7510       7.3068e+7 
           7530      7.23216e+7 
           7550      7.17539e+7 
           7570      7.10926e+7 
           7590      7.03653e+7 
           7610      6.96706e+7 
           7630      6.90923e+7 
           7650      6.84483e+7 
           7670      6.78292e+7 
           7690      6.71902e+7 
           7710      6.65569e+7 
           7730      6.58913e+7 
           7750       6.5351e+7 
           7770       6.4079e+7 
           7790      6.41663e+7 
           7810      6.35355e+7 
           7830      6.30024e+7 
           7850      6.22844e+7 
           7870      6.17067e+7 
           7890      6.09283e+7 
           7910      6.06326e+7 
           7930      6.00396e+7 
           7950      5.93057e+7 
           7970      5.89462e+7 
           7990      5.82159e+7 
           8010      5.79414e+7 
           8030      5.74615e+7 
           8050      5.69613e+7 
           8070      5.65063e+7 
           8090      5.59147e+7 
           8110      5.52171e+7 
           8130      5.50142e+7 
           8150      5.44604e+7 
           8170      5.41021e+7 
           8190      5.34079e+7 
           8210      5.28149e+7 
           8230      5.22448e+7 
           8250      5.21269e+7 
           8270      5.11898e+7 
           8290      5.11498e+7 
           8310      5.07004e+7 
           8330      5.03107e+7 
           8350      4.96755e+7 
           8370      4.91254e+7 
           8390      4.88535e+7 
           8410      4.83625e+7 
           8430      4.80533e+7 
           8450      4.71692e+7 
           8470       4.6734e+7 
           8490      4.73148e+7 
           8510      4.56907e+7 
           8530      4.68224e+7 
           8550      4.44258e+7 
           8570      4.66064e+7 
