# Kurucz ODFNEW /NOVER (2003)
# teff = 7000 K (value for the effective temperature for the model. Temperatures are given in K)
# logg = 0.5 log(cm/s2) (value for Log(G) for the model.)
# meta = -4  (value for the Metallicity for the model.)
# lh = 1.25  (l/Hp where l is the  mixing length of the convective element and Hp is the pressure scale height)
# vtur = 2 km/s (Microturbulence velocity)
# alpha = 0.4  (Alpha)
#
# column 1: WAVELENGTH (ANGSTROM), Wavelength in Angstrom
# column 2: FLUX (ERG/CM2/S/A), Flux in erg/cm2/s/A
          147.2     1.73866e-35 
            151     1.65225e-35 
          155.2     1.56403e-35 
          158.8     1.49392e-35 
            162     1.43549e-35 
            166     1.36714e-35 
          170.3     1.29897e-35 
          173.4     1.25294e-35 
          176.8     1.20522e-35 
          180.2     1.16017e-35 
          181.7     1.14109e-35 
          186.1     1.08777e-35 
            191     1.03267e-35 
          193.9     1.00201e-35 
          198.4     9.57076e-36 
          201.8     9.25097e-36 
            205     8.96441e-36 
          210.5     8.50208e-36 
          216.2     8.05969e-36 
          219.8     7.79784e-36 
            223     7.57565e-36 
          226.8     7.32392e-36 
            230     7.12154e-36 
            234     6.88015e-36 
            240     6.54044e-36 
          246.5     6.20006e-36 
          252.4     5.91358e-36 
          256.8     5.71267e-36 
            260     5.57292e-36 
            264     5.40532e-36 
          268.5     5.22566e-36 
          273.5     5.03634e-36 
          278.5     4.85712e-36 
            284     4.67082e-36 
            290     4.47954e-36 
            296     4.29978e-36 
            301     4.15812e-36 
            308     3.97126e-36 
            318     3.72542e-36 
            328     3.50172e-36 
            338     2.40094e-23 
            348      2.9635e-22 
            357     2.13311e-21 
            366     1.38555e-20 
            375     8.19442e-20 
            385      5.3422e-19 
            395     3.15823e-18 
            405     1.70669e-17 
            414     7.25188e-17 
            422     2.48651e-16 
            430     8.13157e-16 
            441     3.85754e-15 
            451     1.48355e-14 
            460     4.73493e-14 
            470     1.62906e-13 
            480     5.31362e-13 
            490     1.64907e-12 
            500        4.88e-12 
            506     1.07635e-11 
            512     2.11744e-11 
            520     4.67178e-11 
            530      1.2184e-10 
            540     3.03541e-10 
            550       7.357e-10 
            560      1.71907e-9 
            570       3.8938e-9 
            580      8.51998e-9 
            590      1.83148e-8 
            600      3.81376e-8 
            610      7.74346e-8 
            620      1.53485e-7 
            630      2.97321e-7 
            640      5.63567e-7 
            650      1.04628e-6 
            658      1.69212e-6 
            665      2.55109e-6 
            675      4.51505e-6 
            685      7.85108e-6 
            695      1.34251e-5 
            705      2.25882e-5 
            716      3.93274e-5 
            726       6.4097e-5 
            735      9.82924e-5 
            745     0.000156034 
            755     0.000244493 
            765      0.00037831 
            775     0.000578368 
            785     0.000874048 
            795      0.00130622 
            805      0.00193136 
            815      0.00282661 
            825      0.00409599 
            835      0.00587876 
            845      0.00835951 
            855       0.0117823 
            865       0.0164644 
            875       0.0228181 
            885       0.0313721 
            895       0.0428024 
            905       0.0579658 
            915        0.129876 
            925        0.611661 
            935        0.928826 
            945         1.59876 
            955         2.85505 
            965         2.04287 
            975         1.14347 
            985         6.91391 
            995         7.54848 
           1005         6.03162 
           1015         3.14328 
           1025         7.94964 
           1035         6.25254 
           1045          17.196 
           1055         32.5263 
           1065         47.9687 
           1075         60.9841 
           1085         70.0192 
           1095         74.1975 
           1105         78.4174 
           1115         79.0413 
           1125          66.983 
           1135         51.5222 
           1145         43.4797 
           1155         36.8843 
           1165         33.2616 
           1175         30.3348 
           1185         314.857 
           1195          59.136 
           1205          59.256 
           1215         61.9314 
           1225         79.2409 
           1235         105.212 
           1245         56.9873 
           1255         79.8582 
           1265         105.898 
           1275         136.062 
           1285         178.864 
           1295         232.504 
           1305           306.6 
           1315         396.462 
           1325         533.371 
           1335         702.801 
           1345         949.495 
           1355         1299.51 
           1365         1808.95 
           1375            1943 
           1385         2422.14 
           1395          3083.3 
           1405         5413.08 
           1415         7413.13 
           1425         17209.6 
           1435         23468.5 
           1442         31667.6 
           1447         30776.2 
           1455         39912.9 
           1465         42531.2 
           1475         55147.7 
           1485         76334.2 
           1495         95442.1 
           1505          117981 
           1512          131348 
           1517          124331 
           1525          144551 
           1535          161310 
           1545          161975 
           1555          169807 
           1565          157830 
           1575          166737 
           1585          173472 
           1595          182425 
           1605          194081 
           1615          287333 
           1625          403248 
           1635          543414 
           1645          729186 
           1655          750852 
           1665          983005 
           1672          984089 
           1677      1.06191e+6 
           1685      1.16192e+6 
           1695       1.2023e+6 
           1705      1.26254e+6 
           1715       1.3759e+6 
           1725      1.42127e+6 
           1735      1.51481e+6 
           1745      1.54872e+6 
           1755      1.63472e+6 
           1765      1.64987e+6 
           1775      1.73094e+6 
           1785      1.77379e+6 
           1795      1.87264e+6 
           1805      1.89057e+6 
           1815       1.9431e+6 
           1825      1.97537e+6 
           1835      2.05011e+6 
           1845      2.04809e+6 
           1855      2.15482e+6 
           1865      2.22189e+6 
           1875      2.27766e+6 
           1885      2.33689e+6 
           1895      2.38363e+6 
           1905      2.37922e+6 
           1915      2.47093e+6 
           1925       2.5535e+6 
           1935      2.56128e+6 
           1945      2.66985e+6 
           1955      2.71486e+6 
           1967      2.78154e+6 
           1976      2.79341e+6 
           1984      2.82758e+6 
           1995      2.90648e+6 
           2005      2.92235e+6 
           2015      2.93137e+6 
           2025      2.97442e+6 
           2035      3.07726e+6 
           2045       3.1166e+6 
           2055      3.10338e+6 
           2065      3.16731e+6 
           2074      3.27756e+6 
           2078      3.29497e+6 
           2085      3.32045e+6 
           2095      3.35879e+6 
           2105      3.41155e+6 
           2115      3.44783e+6 
           2125      3.47394e+6 
           2135      3.48685e+6 
           2145      3.58165e+6 
           2155      3.61468e+6 
           2165      3.60556e+6 
           2175      3.66805e+6 
           2185        3.729e+6 
           2195      3.83147e+6 
           2205      3.81624e+6 
           2215      3.76505e+6 
           2225      3.83591e+6 
           2235      3.98388e+6 
           2245      3.97948e+6 
           2255      3.94382e+6 
           2265      3.93309e+6 
           2275      4.10247e+6 
           2285      4.15027e+6 
           2295      4.15623e+6 
           2305      4.22165e+6 
           2315      4.24676e+6 
           2325      4.29512e+6 
           2335      4.27154e+6 
           2345      4.16668e+6 
           2355      4.38073e+6 
           2365      4.27426e+6 
           2375      4.41746e+6 
           2385      4.22168e+6 
           2395      4.45492e+6 
           2405      4.48706e+6 
           2415      4.53376e+6 
           2425       4.7163e+6 
           2435      4.69703e+6 
           2445      4.77042e+6 
           2455      4.81527e+6 
           2465      4.79723e+6 
           2475      4.81445e+6 
           2485      4.86845e+6 
           2495      4.87604e+6 
           2505      5.00937e+6 
           2513       4.9301e+6 
           2518      4.96574e+6 
           2525      4.92034e+6 
           2535      4.93079e+6 
           2545      5.03322e+6 
           2555      5.18555e+6 
           2565      5.16667e+6 
           2575      5.26383e+6 
           2585      5.31756e+6 
           2595      5.31179e+6 
           2605       5.2994e+6 
           2615      5.31194e+6 
           2625      5.36028e+6 
           2635      5.44593e+6 
           2645      5.65846e+6 
           2655      5.68058e+6 
           2665      5.63379e+6 
           2675       5.7002e+6 
           2685      5.78637e+6 
           2695      5.79175e+6 
           2705       5.8458e+6 
           2715      5.79464e+6 
           2725      5.84046e+6 
           2735      5.90611e+6 
           2745      5.72917e+6 
           2755      5.80082e+6 
           2765       5.9383e+6 
           2775      6.09078e+6 
           2785      6.12046e+6 
           2795      5.68082e+6 
           2805      5.93007e+6 
           2815      6.26264e+6 
           2825      6.28872e+6 
           2835      6.26412e+6 
           2845      6.30766e+6 
           2855      6.26078e+6 
           2865      6.31216e+6 
           2875      6.38774e+6 
           2885      6.42455e+6 
           2895      6.50565e+6 
           2910      6.57356e+6 
           2930      6.58154e+6 
           2950      6.62853e+6 
           2970      6.72876e+6 
           2990      6.78148e+6 
           3010      6.87711e+6 
           3030       6.9405e+6 
           3050      6.99475e+6 
           3070      6.99505e+6 
           3090       7.0997e+6 
           3110      7.15241e+6 
           3130      7.19781e+6 
           3150      7.24186e+6 
           3170       7.2981e+6 
           3190      7.31313e+6 
           3210      7.39302e+6 
           3230      7.38589e+6 
           3250      7.47574e+6 
           3270      7.56249e+6 
           3290      7.62118e+6 
           3310      7.66897e+6 
           3330      7.67802e+6 
           3350      7.68867e+6 
           3370      7.75193e+6 
           3390       7.7935e+6 
           3410      7.88086e+6 
           3430      7.92051e+6 
           3450      7.95745e+6 
           3470      7.99082e+6 
           3490      8.03281e+6 
           3510      8.07363e+6 
           3530       8.1121e+6 
           3550       8.1468e+6 
           3570      8.17431e+6 
           3590      8.20742e+6 
           3610      8.24046e+6 
           3630      8.27056e+6 
           3640      8.28147e+6 
           3650      8.31958e+6 
           3670      8.44899e+6 
           3690      9.67935e+6 
           3710      1.36852e+7 
           3730       2.1898e+7 
           3750      3.22762e+7 
           3770      3.28411e+7 
           3790      3.68885e+7 
           3810      4.07325e+7 
           3830      3.38697e+7 
           3850      4.27523e+7 
           3870      4.41956e+7 
           3890      3.13566e+7 
           3910      4.33108e+7 
           3930      4.25711e+7 
           3950      4.25829e+7 
           3970      2.99048e+7 
           3990      4.14755e+7 
           4010      4.17328e+7 
           4030       4.1366e+7 
           4050       4.0947e+7 
           4070      4.03409e+7 
           4090      3.71007e+7 
           4110      2.99896e+7 
           4130      3.90447e+7 
           4150      3.88749e+7 
           4170      3.84964e+7 
           4190      3.81148e+7 
           4210      3.77237e+7 
           4230      3.73258e+7 
           4250      3.69586e+7 
           4270      3.65905e+7 
           4290      3.61907e+7 
           4310      3.56265e+7 
           4330      3.17476e+7 
           4350      2.75442e+7 
           4370        3.457e+7 
           4390      3.43907e+7 
           4410       3.4091e+7 
           4430      3.37782e+7 
           4450      3.34315e+7 
           4470      3.30953e+7 
           4490      3.27768e+7 
           4510      3.24552e+7 
           4530      3.21381e+7 
           4550       3.1807e+7 
           4570       3.1513e+7 
           4590      3.12158e+7 
           4610       3.0926e+7 
           4630      3.06225e+7 
           4650      3.03335e+7 
           4670      3.00414e+7 
           4690      2.97566e+7 
           4710      2.94688e+7 
           4730      2.91932e+7 
           4750      2.89178e+7 
           4770      2.86427e+7 
           4790      2.83728e+7 
           4810      2.80755e+7 
           4830      2.76739e+7 
           4850      2.51559e+7 
           4870      2.09627e+7 
           4890       2.6813e+7 
           4910      2.67763e+7 
           4930      2.65688e+7 
           4950       2.6333e+7 
           4970       2.6094e+7 
           4990       2.5855e+7 
           5010      2.56115e+7 
           5030      2.53874e+7 
           5050      2.51571e+7 
           5070      2.49298e+7 
           5090      2.47066e+7 
           5110      2.44847e+7 
           5130      2.42641e+7 
           5150      2.40476e+7 
           5170      2.38098e+7 
           5190      2.36084e+7 
           5210      2.34123e+7 
           5230      2.32019e+7 
           5250      2.30036e+7 
           5270      2.27981e+7 
           5290      2.26018e+7 
           5310      2.24025e+7 
           5330      2.22081e+7 
           5350      2.20187e+7 
           5370      2.18263e+7 
           5390      2.16387e+7 
           5410      2.14532e+7 
           5430      2.12686e+7 
           5450      2.10875e+7 
           5470      2.09084e+7 
           5490        2.073e+7 
           5510       2.0555e+7 
           5530      2.03807e+7 
           5550      2.02096e+7 
           5570      2.00405e+7 
           5590       1.9872e+7 
           5610      1.97055e+7 
           5630      1.95419e+7 
           5650       1.9379e+7 
           5670       1.9218e+7 
           5690      1.90598e+7 
           5710      1.89023e+7 
           5730      1.87465e+7 
           5750      1.85935e+7 
           5770       1.8441e+7 
           5790      1.82903e+7 
           5810      1.81411e+7 
           5830      1.79936e+7 
           5850      1.78477e+7 
           5870      1.77022e+7 
           5890      1.75594e+7 
           5910      1.74202e+7 
           5930      1.72804e+7 
           5950      1.71421e+7 
           5970      1.70052e+7 
           5990      1.68698e+7 
           6010      1.67358e+7 
           6030      1.66032e+7 
           6050      1.64731e+7 
           6070      1.63432e+7 
           6090      1.62147e+7 
           6110      1.60876e+7 
           6130      1.59627e+7 
           6150      1.58371e+7 
           6170      1.57148e+7 
           6190      1.55928e+7 
           6210       1.5472e+7 
           6230      1.53524e+7 
           6250      1.52341e+7 
           6270      1.51169e+7 
           6290      1.50019e+7 
           6310      1.48871e+7 
           6330      1.47734e+7 
           6350        1.466e+7 
           6370      1.45495e+7 
           6390      1.44392e+7 
           6410      1.43299e+7 
           6430      1.42218e+7 
           6450      1.41138e+7 
           6470      1.40078e+7 
           6490      1.38912e+7 
           6510        1.375e+7 
           6530      1.35616e+7 
           6550      1.26078e+7 
           6570      1.01355e+7 
           6590      1.31302e+7 
           6610      1.32241e+7 
           6630      1.31693e+7 
           6650      1.30987e+7 
           6670      1.30017e+7 
           6690      1.29064e+7 
           6710       1.2812e+7 
           6730      1.27185e+7 
           6750      1.26259e+7 
           6770      1.25341e+7 
           6790      1.24424e+7 
           6810      1.23524e+7 
           6830      1.22632e+7 
           6850      1.21748e+7 
           6870      1.20865e+7 
           6890      1.19997e+7 
           6910      1.19138e+7 
           6930      1.18287e+7 
           6950      1.17443e+7 
           6970      1.16599e+7 
           6990      1.15771e+7 
           7010      1.14951e+7 
           7030      1.14137e+7 
           7050      1.13324e+7 
           7070      1.12525e+7 
           7090      1.11734e+7 
           7110       1.1095e+7 
           7130      1.10165e+7 
           7150      1.09395e+7 
           7170      1.08632e+7 
           7190      1.07868e+7 
           7210      1.07118e+7 
           7230      1.06375e+7 
           7250      1.05631e+7 
           7270      1.04901e+7 
           7290      1.04177e+7 
           7310      1.03453e+7 
           7330      1.02742e+7 
           7350      1.02037e+7 
           7370      1.01332e+7 
           7390      1.00639e+7 
           7410      9.99524e+6 
           7430      9.92649e+6 
           7450      9.85901e+6 
           7470      9.79143e+6 
           7490      9.72511e+6 
           7510      9.65935e+6 
           7530      9.59349e+6 
           7550      9.52885e+6 
           7570      9.46411e+6 
           7590      9.40056e+6 
           7610      9.33755e+6 
           7630      9.27443e+6 
           7650      9.21248e+6 
           7670      9.15105e+6 
           7690       9.0895e+6 
           7710      9.02909e+6 
           7730      8.96919e+6 
           7750      8.90916e+6 
           7770      8.84776e+6 
           7790      8.79121e+6 
           7810      8.73327e+6 
           7830      8.67581e+6 
           7850      8.61821e+6 
           7870      8.56169e+6 
           7890      8.50563e+6 
           7910      8.44942e+6 
           7930      8.39428e+6 
           7950      8.33958e+6 
           7970      8.28532e+6 
           7990      8.23091e+6 
           8010      8.17753e+6 
           8030      8.12458e+6 
           8050      8.07147e+6 
           8070      8.01936e+6 
           8090      7.96767e+6 
           8110      7.91582e+6 
           8130      7.86495e+6 
           8150      7.81449e+6 
           8170      7.76386e+6 
           8190      7.71419e+6 
           8210      7.68448e+6 
           8230      7.63939e+6 
           8250      7.59354e+6 
           8270      7.53923e+6 
           8290      7.48151e+6 
           8310      7.39863e+6 
           8330      7.33274e+6 
           8350       7.3452e+6 
           8370      7.14721e+6 
           8390      7.23305e+6 
           8410      7.20136e+6 
           8430      7.39677e+6 
           8450      7.36391e+6 
           8470      7.09496e+6 
           8490      7.67047e+6 
           8510      7.06328e+6 
           8530      7.78199e+6 
           8550       6.9623e+6 
           8570      7.91571e+6 
