# Kurucz ODFNEW /NOVER (2003)
# teff = 20000 K (value for the effective temperature for the model. Temperatures are given in K)
# logg = 3.5 log(cm/s2) (value for Log(G) for the model.)
# meta = -2  (value for the Metallicity for the model.)
# lh = 1.25  (l/Hp where l is the  mixing length of the convective element and Hp is the pressure scale height)
# vtur = 2 km/s (Microturbulence velocity)
# alpha = 0.4  (Alpha)
#
# column 1: WAVELENGTH (ANGSTROM), Wavelength in Angstrom
# column 2: FLUX (ERG/CM2/S/A), Flux in erg/cm2/s/A
          147.2     1.45613e-20 
            151     1.00787e-19 
          155.2      7.6866e-19 
          158.8     4.03867e-18 
            162     1.66215e-17 
            166     9.03749e-17 
          170.3     5.11276e-16 
          173.4      1.6921e-15 
          176.8     5.99246e-15 
          180.2     2.02333e-14 
          181.7     3.41117e-14 
          186.1     1.50395e-13 
            191     7.23728e-13 
          193.9     1.76555e-12 
          198.4     6.68536e-12 
          201.8     1.75657e-11 
            205     4.23192e-11 
          210.5     1.79896e-10 
          216.2      7.4424e-10 
          219.8      1.75475e-9 
            223      3.67169e-9 
          226.8      8.57997e-9 
            230      2.83437e-8 
            234      6.94551e-8 
            240      2.22813e-7 
          246.5      7.36505e-7 
          252.4      2.07259e-6 
          256.8      4.29308e-6 
            260      7.28269e-6 
            264      1.36965e-5 
          268.5      2.72079e-5 
          273.5      5.67495e-5 
          278.5     0.000115308 
            284      0.00024398 
            290      0.00053414 
            296      0.00113028 
            301      0.00206317 
            308      0.00459991 
            318       0.0137502 
            328       0.0380917 
            338       0.0990496 
            348        0.243006 
            357        0.520538 
            366         1.07209 
            375         2.12592 
            385          4.3708 
            395         8.63731 
            405         16.4647 
            414         28.5917 
            422         45.6918 
            430         71.6255 
            441         129.222 
            451         214.924 
            460         332.718 
            470         529.195 
            480         823.867 
            490         1257.39 
            500         1883.04 
            506         14925.8 
            512         43933.8 
            520         57270.1 
            530         86698.7 
            540           97522 
            550          148176 
            560          187199 
            570          237946 
            580          244068 
            590          337747 
            600          447262 
            610          550323 
            620          659786 
            630          796001 
            640          932994 
            650      1.11405e+6 
            658      1.28064e+6 
            665      1.42411e+6 
            675      1.63847e+6 
            685       1.8988e+6 
            695      2.23515e+6 
            705      2.55443e+6 
            716       2.9617e+6 
            726      3.36013e+6 
            735      3.78957e+6 
            745       4.3024e+6 
            755      4.85167e+6 
            765      5.42655e+6 
            775      6.09447e+6 
            785      6.79455e+6 
            795      7.52595e+6 
            805      8.34063e+6 
            815      9.18307e+6 
            825      1.01336e+7 
            835      1.09703e+7 
            845      1.21267e+7 
            855      1.31892e+7 
            865      1.44358e+7 
            875      1.56916e+7 
            885      1.70696e+7 
            895      1.84587e+7 
            905        1.965e+7 
            915      3.70365e+7 
            925      3.22844e+8 
            935      1.36445e+9 
            945      4.73999e+9 
            955      6.85943e+9 
            965      8.87993e+9 
            975      3.20854e+9 
            985     1.01853e+10 
            995      9.91572e+9 
           1005     1.02419e+10 
           1015      9.29916e+9 
           1025      2.78245e+9 
           1035      8.04224e+9 
           1045     1.04726e+10 
           1055     1.02456e+10 
           1065      9.37551e+9 
           1075      9.90703e+9 
           1085      9.29995e+9 
           1095      9.82744e+9 
           1105      9.20484e+9 
           1115      9.20259e+9 
           1125      8.74712e+9 
           1135       9.1066e+9 
           1145      8.59047e+9 
           1155      8.84761e+9 
           1165      8.79463e+9 
           1175      7.79313e+9 
           1185      8.52227e+9 
           1195      7.70039e+9 
           1205      6.02212e+9 
           1215      1.85343e+9 
           1225      6.31688e+9 
           1235      7.59597e+9 
           1245      7.67227e+9 
           1255      7.47108e+9 
           1265       7.3652e+9 
           1275      7.44525e+9 
           1285      7.30495e+9 
           1295      6.53168e+9 
           1305      6.51292e+9 
           1315      6.96064e+9 
           1325       6.7461e+9 
           1335      6.46257e+9 
           1345      6.56029e+9 
           1355      6.54671e+9 
           1365      6.34863e+9 
           1375      6.26459e+9 
           1385      6.21865e+9 
           1395       5.8884e+9 
           1405      5.90164e+9 
           1415      5.90262e+9 
           1425      5.82564e+9 
           1435      5.77564e+9 
           1442       5.7496e+9 
           1447      5.69644e+9 
           1455      5.61066e+9 
           1465      5.50975e+9 
           1475      5.42906e+9 
           1485      5.32868e+9 
           1495      5.24432e+9 
           1505      5.09818e+9 
           1512      5.03082e+9 
           1517       5.0352e+9 
           1525      4.95724e+9 
           1535       4.7803e+9 
           1545      4.79627e+9 
           1555      4.66155e+9 
           1565      4.67231e+9 
           1575       4.6443e+9 
           1585      4.57373e+9 
           1595      4.52737e+9 
           1605      4.39757e+9 
           1615      4.33476e+9 
           1625      4.31068e+9 
           1635      4.27586e+9 
           1645      4.19313e+9 
           1655      4.13835e+9 
           1665      4.11202e+9 
           1672      4.00799e+9 
           1677      4.05312e+9 
           1685      4.00477e+9 
           1695      3.92435e+9 
           1705      3.84852e+9 
           1715      3.76175e+9 
           1725      3.72282e+9 
           1735      3.69267e+9 
           1745       3.6329e+9 
           1755      3.61352e+9 
           1765      3.47521e+9 
           1775      3.47694e+9 
           1785      3.44282e+9 
           1795      3.42281e+9 
           1805      3.38094e+9 
           1815      3.30937e+9 
           1825       3.2844e+9 
           1835      3.23695e+9 
           1845      3.12637e+9 
           1855      3.05137e+9 
           1865      3.04278e+9 
           1875      3.05509e+9 
           1885      2.93688e+9 
           1895      2.84806e+9 
           1905      2.90398e+9 
           1915      2.81477e+9 
           1925      2.77086e+9 
           1935      2.77892e+9 
           1945      2.77461e+9 
           1955      2.66833e+9 
           1967      2.69741e+9 
           1976      2.70001e+9 
           1984      2.62756e+9 
           1995      2.55767e+9 
           2005       2.5758e+9 
           2015      2.56384e+9 
           2025      2.54952e+9 
           2035      2.49095e+9 
           2045      2.46098e+9 
           2055      2.38989e+9 
           2065      2.38642e+9 
           2074      2.40253e+9 
           2078      2.34976e+9 
           2085      2.35004e+9 
           2095      2.29659e+9 
           2105      2.29752e+9 
           2115      2.27778e+9 
           2125      2.26524e+9 
           2135      2.23365e+9 
           2145      2.19576e+9 
           2155      2.18184e+9 
           2165       2.1557e+9 
           2175      2.12812e+9 
           2185        2.106e+9 
           2195      2.08529e+9 
           2205      2.05891e+9 
           2215       2.0346e+9 
           2225      2.00692e+9 
           2235      1.98621e+9 
           2245      1.96668e+9 
           2255      1.94039e+9 
           2265      1.92256e+9 
           2275       1.8998e+9 
           2285       1.8809e+9 
           2295      1.84566e+9 
           2305      1.83705e+9 
           2315       1.8132e+9 
           2325      1.79478e+9 
           2335      1.76645e+9 
           2345      1.74189e+9 
           2355      1.73474e+9 
           2365       1.7098e+9 
           2375      1.69389e+9 
           2385      1.66839e+9 
           2395      1.65344e+9 
           2405      1.63653e+9 
           2415      1.61596e+9 
           2425      1.60714e+9 
           2435      1.58673e+9 
           2445      1.57037e+9 
           2455      1.55623e+9 
           2465      1.53718e+9 
           2475      1.52183e+9 
           2485      1.50546e+9 
           2495       1.4732e+9 
           2505      1.47335e+9 
           2513      1.45211e+9 
           2518      1.45105e+9 
           2525      1.43982e+9 
           2535      1.42286e+9 
           2545       1.4035e+9 
           2555      1.39778e+9 
           2565      1.37946e+9 
           2575      1.37025e+9 
           2585      1.35555e+9 
           2595      1.34109e+9 
           2605      1.33548e+9 
           2615      1.32336e+9 
           2625      1.31007e+9 
           2635      1.29249e+9 
           2645      1.28462e+9 
           2655      1.27005e+9 
           2665      1.25454e+9 
           2675      1.24255e+9 
           2685      1.23717e+9 
           2695      1.21587e+9 
           2705      1.21215e+9 
           2715      1.19946e+9 
           2725      1.17839e+9 
           2735      1.17604e+9 
           2745      1.15733e+9 
           2755      1.14736e+9 
           2765      1.13158e+9 
           2775      1.13068e+9 
           2785      1.11903e+9 
           2795      1.08842e+9 
           2805       1.0891e+9 
           2815      1.08718e+9 
           2825      1.06689e+9 
           2835      1.05839e+9 
           2845      1.05539e+9 
           2855      1.04547e+9 
           2865      1.03589e+9 
           2875      1.02573e+9 
           2885       1.0161e+9 
           2895      1.00648e+9 
           2910      9.92084e+8 
           2930      9.72487e+8 
           2950      9.49345e+8 
           2970      9.37499e+8 
           2990      9.19732e+8 
           3010      9.03143e+8 
           3030      8.86828e+8 
           3050        8.707e+8 
           3070      8.54915e+8 
           3090       8.3911e+8 
           3110      8.24418e+8 
           3130      8.10648e+8 
           3150      7.96172e+8 
           3170      7.81808e+8 
           3190      7.62485e+8 
           3210      7.54548e+8 
           3230      7.41333e+8 
           3250      7.28456e+8 
           3270      7.16649e+8 
           3290      7.03472e+8 
           3310      6.92384e+8 
           3330      6.80626e+8 
           3350      6.68059e+8 
           3370      6.57864e+8 
           3390      6.46879e+8 
           3410      6.36106e+8 
           3430      6.23298e+8 
           3450      6.11155e+8 
           3470      6.02722e+8 
           3490      5.92988e+8 
           3510      5.85883e+8 
           3530      5.76814e+8 
           3550      5.67672e+8 
           3570       5.6062e+8 
           3590      5.49247e+8 
           3610      5.41125e+8 
           3630      5.31834e+8 
           3640      5.30309e+8 
           3650       5.2571e+8 
           3670      5.19297e+8 
           3690      5.03252e+8 
           3710      4.95952e+8 
           3730      4.91596e+8 
           3750      5.51599e+8 
           3770      5.59969e+8 
           3790      5.89639e+8 
           3810      6.17852e+8 
           3830      5.37605e+8 
           3850      6.35173e+8 
           3870      6.35315e+8 
           3890      5.12012e+8 
           3910      6.25315e+8 
           3930      6.13552e+8 
           3950      6.05665e+8 
           3970      4.76383e+8 
           3990      5.83099e+8 
           4010      5.76734e+8 
           4030      5.47758e+8 
           4050       5.6402e+8 
           4070      5.52532e+8 
           4090       5.1559e+8 
           4110      4.47826e+8 
           4130       5.1972e+8 
           4150       5.1492e+8 
           4170      5.10101e+8 
           4190      5.03655e+8 
           4210      4.95799e+8 
           4230      4.87963e+8 
           4250      4.80211e+8 
           4270      4.71715e+8 
           4290      4.65198e+8 
           4310      4.56165e+8 
           4330      4.17822e+8 
           4350      3.79487e+8 
           4370       4.3473e+8 
           4390      4.20456e+8 
           4410      4.23915e+8 
           4430      4.15739e+8 
           4450      4.11382e+8 
           4470      3.90344e+8 
           4490      3.98423e+8 
           4510       3.9323e+8 
           4530      3.87324e+8 
           4550      3.81506e+8 
           4570      3.75829e+8 
           4590      3.70398e+8 
           4610      3.64993e+8 
           4630      3.59649e+8 
           4650      3.54123e+8 
           4670      3.49248e+8 
           4690      3.44289e+8 
           4710      3.35156e+8 
           4730      3.34247e+8 
           4750      3.29301e+8 
           4770      3.25022e+8 
           4790      3.20393e+8 
           4810      3.15682e+8 
           4830      3.09924e+8 
           4850      2.88651e+8 
           4870      2.56581e+8 
           4890       2.9641e+8 
           4910      2.93875e+8 
           4930      2.84319e+8 
           4950      2.86301e+8 
           4970        2.824e+8 
           4990      2.78521e+8 
           5010      2.71559e+8 
           5030      2.70968e+8 
           5050      2.65443e+8 
           5070      2.63719e+8 
           5090      2.60167e+8 
           5110      2.56678e+8 
           5130      2.53249e+8 
           5150      2.49865e+8 
           5170      2.46568e+8 
           5190      2.43301e+8 
           5210      2.39966e+8 
           5230      2.36949e+8 
           5250      2.33835e+8 
           5270      2.30789e+8 
           5290      2.27782e+8 
           5310      2.24826e+8 
           5330      2.21909e+8 
           5350      2.19016e+8 
           5370      2.16251e+8 
           5390      2.13482e+8 
           5410      2.10761e+8 
           5430      2.08023e+8 
           5450      2.05421e+8 
           5470      2.02826e+8 
           5490      2.00288e+8 
           5510       1.9777e+8 
           5530      1.95295e+8 
           5550      1.92862e+8 
           5570       1.9046e+8 
           5590      1.88099e+8 
           5610      1.85755e+8 
           5630      1.83498e+8 
           5650      1.81163e+8 
           5670      1.78973e+8 
           5690       1.7681e+8 
           5710      1.74683e+8 
           5730      1.72571e+8 
           5750      1.70473e+8 
           5770      1.68433e+8 
           5790      1.66406e+8 
           5810      1.64414e+8 
           5830      1.62446e+8 
           5850      1.60511e+8 
           5870      1.54423e+8 
           5890      1.56601e+8 
           5910      1.54885e+8 
           5930       1.5306e+8 
           5950      1.51256e+8 
           5970      1.49504e+8 
           5990      1.47741e+8 
           6010       1.4604e+8 
           6030      1.44347e+8 
           6050      1.42684e+8 
           6070       1.4104e+8 
           6090      1.39414e+8 
           6110      1.37827e+8 
           6130      1.36247e+8 
           6150      1.34685e+8 
           6170       1.3317e+8 
           6190      1.31662e+8 
           6210      1.30181e+8 
           6230      1.28715e+8 
           6250      1.27266e+8 
           6270      1.25842e+8 
           6290      1.24443e+8 
           6310       1.2305e+8 
           6330      1.21691e+8 
           6350      1.20271e+8 
           6370      1.18988e+8 
           6390      1.17709e+8 
           6410      1.16417e+8 
           6430      1.15147e+8 
           6450       1.1389e+8 
           6470      1.12647e+8 
           6490      1.11426e+8 
           6510       1.1021e+8 
           6530      1.08643e+8 
           6550      1.04319e+8 
           6570      9.25309e+7 
           6590      1.04661e+8 
           6610      1.04339e+8 
           6630      1.03325e+8 
           6650      1.02296e+8 
           6670      1.00379e+8 
           6690       9.9342e+7 
           6710      9.90937e+7 
           6730      9.80565e+7 
           6750      9.70298e+7 
           6770      9.60135e+7 
           6790      9.50074e+7 
           6810      9.40278e+7 
           6830      9.30499e+7 
           6850      9.20899e+7 
           6870      9.11394e+7 
           6890      9.02063e+7 
           6910      8.92825e+7 
           6930        8.836e+7 
           6950      8.74622e+7 
           6970      8.65733e+7 
           6990       8.5693e+7 
           7010      8.48291e+7 
           7030      8.39736e+7 
           7050      8.31264e+7 
           7070      8.10741e+7 
           7090      8.14717e+7 
           7110      8.06562e+7 
           7130      7.98561e+7 
           7150      7.90563e+7 
           7170      7.82641e+7 
           7190      7.75013e+7 
           7210      7.67386e+7 
           7230      7.59111e+7 
           7250      7.52348e+7 
           7270      7.45007e+7 
           7290      7.32276e+7 
           7310       7.3046e+7 
           7330      7.23464e+7 
           7350      7.16394e+7 
           7370      7.09529e+7 
           7390      7.02659e+7 
           7410       6.9592e+7 
           7430      6.89176e+7 
           7450      6.82698e+7 
           7470      6.76212e+7 
           7490      6.69744e+7 
           7510      6.63143e+7 
           7530      6.57087e+7 
           7550      6.50874e+7 
           7570      6.44731e+7 
           7590      6.38656e+7 
           7610      6.32656e+7 
           7630      6.26729e+7 
           7650      6.20869e+7 
           7670      6.15086e+7 
           7690      6.09356e+7 
           7710      6.03689e+7 
           7730      5.98116e+7 
           7750      5.92537e+7 
           7770      5.86814e+7 
           7790      5.81731e+7 
           7810      5.75988e+7 
           7830       5.7112e+7 
           7850      5.66428e+7 
           7870      5.61266e+7 
           7890      5.55828e+7 
           7910      5.51184e+7 
           7930      5.46197e+7 
           7950      5.40567e+7 
           7970      5.34987e+7 
           7990        5.304e+7 
           8010      5.25635e+7 
           8030      5.21051e+7 
           8050      5.16669e+7 
           8070       5.1226e+7 
           8090      5.06899e+7 
           8110      5.02792e+7 
           8130      4.98936e+7 
           8150      4.93683e+7 
           8170      4.90309e+7 
           8190      4.85525e+7 
           8210      4.80452e+7 
           8230      4.77658e+7 
           8250      4.73656e+7 
           8270      4.67336e+7 
           8290      4.64974e+7 
           8310      4.61108e+7 
           8330       4.5705e+7 
           8350       4.5107e+7 
           8370      4.48051e+7 
           8390      4.44671e+7 
           8410      4.40396e+7 
           8430       4.3595e+7 
           8450      4.30243e+7 
           8470      4.25572e+7 
           8490      4.26067e+7 
           8510      4.15838e+7 
           8530      4.21335e+7 
           8550      4.01211e+7 
           8570      4.21541e+7 
