# Kurucz ODFNEW /NOVER (2003)
# teff = 29000 K (value for the effective temperature for the model. Temperatures are given in K)
# logg = 5 log(cm/s2) (value for Log(G) for the model.)
# meta = -0.5  (value for the Metallicity for the model.)
# lh = 1.25  (l/Hp where l is the  mixing length of the convective element and Hp is the pressure scale height)
# vtur = 2 km/s (Microturbulence velocity)
# alpha = 0  (Alpha)
#
# column 1: WAVELENGTH (ANGSTROM), Wavelength in Angstrom
# column 2: FLUX (ERG/CM2/S/A), Flux in erg/cm2/s/A
          147.2     7.32444e-10 
            151      2.47011e-9 
          155.2      8.89278e-9 
          158.8      2.53803e-8 
            162        6.226e-8 
            166      1.82828e-7 
          170.3      5.52194e-7 
          173.4      1.18785e-6 
          176.8      2.67233e-6 
          180.2       5.8412e-6 
          181.7      8.17362e-6 
          186.1      2.12822e-5 
            191       5.8789e-5 
          193.9     0.000104771 
          198.4       0.0002486 
          201.8     0.000465685 
            205     0.000825076 
          210.5       0.0021194 
          216.2      0.00535623 
          219.8      0.00938392 
            223       0.0152111 
          226.8       0.0265543 
            230         3.88295 
            234         9.10794 
            240         17.7331 
          246.5         35.6243 
          252.4         65.6231 
          256.8         93.4822 
            260         140.778 
            264          198.57 
          268.5         300.214 
          273.5           460.1 
          278.5          688.06 
            284         1123.99 
            290         1750.78 
            296         2684.91 
            301         3725.21 
            308         5757.53 
            318         11792.1 
            328         20562.8 
            338         36659.3 
            348         61332.4 
            357          121429 
            366          194529 
            375          273629 
            385          415120 
            395          625802 
            405          877186 
            414      1.20222e+6 
            422      1.50803e+6 
            430      1.95082e+6 
            441      2.67882e+6 
            451      3.51464e+6 
            460      4.36853e+6 
            470      5.67158e+6 
            480      7.16276e+6 
            490      9.02942e+6 
            500      1.12529e+7 
            506      4.67638e+7 
            512      2.20611e+8 
            520      2.34745e+8 
            530       2.6304e+8 
            540      2.58439e+8 
            550       3.2725e+8 
            560      3.62806e+8 
            570      4.04025e+8 
            580      3.87144e+8 
            590      4.56761e+8 
            600      4.78781e+8 
            610      5.26014e+8 
            620      5.65996e+8 
            630       5.9412e+8 
            640      5.87177e+8 
            650      6.37489e+8 
            658      6.73506e+8 
            665      7.13343e+8 
            675      7.25644e+8 
            685      7.28562e+8 
            695      8.58555e+8 
            705      8.60522e+8 
            716      9.41941e+8 
            726      9.63702e+8 
            735      9.91711e+8 
            745      1.06844e+9 
            755      1.10813e+9 
            765      1.15763e+9 
            775       1.2088e+9 
            785        1.271e+9 
            795      1.29806e+9 
            805      1.33269e+9 
            815      1.35605e+9 
            825      1.43098e+9 
            835      1.35925e+9 
            845      1.47273e+9 
            855      1.50228e+9 
            865      1.56467e+9 
            875      1.62831e+9 
            885      1.69768e+9 
            895      1.74489e+9 
            905      1.75011e+9 
            915      1.93169e+9 
            925      7.19622e+9 
            935     1.61116e+10 
            945     3.74605e+10 
            955     4.98905e+10 
            965     6.65003e+10 
            975     1.94823e+10 
            985     6.81839e+10 
            995     6.22539e+10 
           1005      6.7321e+10 
           1015     6.30573e+10 
           1025     2.46396e+10 
           1035     5.42609e+10 
           1045     7.19392e+10 
           1055     6.83412e+10 
           1065     5.84612e+10 
           1075     6.29173e+10 
           1085     5.62618e+10 
           1095     6.17396e+10 
           1105     5.78566e+10 
           1115     5.68507e+10 
           1125     4.88673e+10 
           1135     5.50022e+10 
           1145     5.00227e+10 
           1155     5.09309e+10 
           1165     4.97855e+10 
           1175     3.57813e+10 
           1185     4.61795e+10 
           1195      4.3426e+10 
           1205       3.603e+10 
           1215     1.72838e+10 
           1225     3.66631e+10 
           1235     4.19257e+10 
           1245     4.09583e+10 
           1255     4.04685e+10 
           1265     4.03609e+10 
           1275     4.04881e+10 
           1285     3.97417e+10 
           1295     3.42601e+10 
           1305     3.50134e+10 
           1315      3.7472e+10 
           1325     3.54879e+10 
           1335     3.42945e+10 
           1345     3.39177e+10 
           1355     3.38334e+10 
           1365     3.18837e+10 
           1375     3.12582e+10 
           1385     3.05944e+10 
           1395     2.55325e+10 
           1405     2.62829e+10 
           1415      2.7943e+10 
           1425      2.6567e+10 
           1435     2.69792e+10 
           1442     2.72723e+10 
           1447     2.67477e+10 
           1455     2.60273e+10 
           1465     2.48956e+10 
           1475     2.46423e+10 
           1485      2.4209e+10 
           1495     2.36351e+10 
           1505     2.21245e+10 
           1512     2.07781e+10 
           1517     2.10572e+10 
           1525     2.10215e+10 
           1535     1.86748e+10 
           1545     1.82255e+10 
           1555     1.75182e+10 
           1565     1.83964e+10 
           1575     1.88925e+10 
           1585     1.86983e+10 
           1595     1.85312e+10 
           1605     1.79179e+10 
           1615      1.7324e+10 
           1625     1.73526e+10 
           1635     1.75905e+10 
           1645     1.71156e+10 
           1655     1.71844e+10 
           1665     1.70411e+10 
           1672     1.64325e+10 
           1677     1.73393e+10 
           1685     1.67903e+10 
           1695     1.61941e+10 
           1705     1.56729e+10 
           1715     1.51052e+10 
           1725     1.47204e+10 
           1735     1.49241e+10 
           1745      1.4636e+10 
           1755     1.45419e+10 
           1765     1.41248e+10 
           1775     1.36516e+10 
           1785     1.36646e+10 
           1795     1.36543e+10 
           1805     1.35878e+10 
           1815      1.2821e+10 
           1825      1.2881e+10 
           1835     1.25833e+10 
           1845     1.16194e+10 
           1855     1.16292e+10 
           1865     1.17322e+10 
           1875     1.17992e+10 
           1885     1.08294e+10 
           1895     1.02068e+10 
           1905      1.0708e+10 
           1915     1.02599e+10 
           1925      9.80317e+9 
           1935     1.01844e+10 
           1945     1.03418e+10 
           1955       9.4853e+9 
           1967      9.89367e+9 
           1976     1.02302e+10 
           1984      9.57458e+9 
           1995       9.3522e+9 
           2005      9.45473e+9 
           2015      9.43627e+9 
           2025      9.51602e+9 
           2035      8.93858e+9 
           2045      8.89128e+9 
           2055      8.41655e+9 
           2065      8.37967e+9 
           2074      8.59962e+9 
           2078      8.14969e+9 
           2085      8.23874e+9 
           2095      7.97822e+9 
           2105      8.24353e+9 
           2115      8.20931e+9 
           2125      8.23451e+9 
           2135      8.05688e+9 
           2145       7.7869e+9 
           2155      7.86066e+9 
           2165      7.75783e+9 
           2175      7.63577e+9 
           2185       7.5074e+9 
           2195      7.47325e+9 
           2205      7.36773e+9 
           2215       7.2592e+9 
           2225      7.12089e+9 
           2235      6.98928e+9 
           2245      6.95653e+9 
           2255      6.80466e+9 
           2265      6.76556e+9 
           2275      6.67069e+9 
           2285       6.5879e+9 
           2295      6.25402e+9 
           2305      6.37431e+9 
           2315      6.26263e+9 
           2325      6.18336e+9 
           2335      6.06522e+9 
           2345      6.03559e+9 
           2355      5.96236e+9 
           2365       5.8843e+9 
           2375      5.77795e+9 
           2385      5.69807e+9 
           2395      5.62307e+9 
           2405       5.5499e+9 
           2415      5.47154e+9 
           2425      5.42176e+9 
           2435      5.31277e+9 
           2445      5.26291e+9 
           2455         5.21e+9 
           2465       5.1409e+9 
           2475      5.06599e+9 
           2485      4.99461e+9 
           2495       4.6192e+9 
           2505      4.84283e+9 
           2513       4.6678e+9 
           2518      4.75576e+9 
           2525       4.7377e+9 
           2535       4.6797e+9 
           2545      4.56401e+9 
           2555      4.53661e+9 
           2565      4.49088e+9 
           2575      4.44323e+9 
           2585      4.39138e+9 
           2595      4.33696e+9 
           2605      4.29951e+9 
           2615      4.24526e+9 
           2625      4.19816e+9 
           2635      4.14693e+9 
           2645      4.08908e+9 
           2655       4.0422e+9 
           2665      3.95755e+9 
           2675      3.91612e+9 
           2685      3.89656e+9 
           2695      3.78865e+9 
           2705      3.76589e+9 
           2715      3.73171e+9 
           2725      3.67175e+9 
           2735      3.64747e+9 
           2745      3.59304e+9 
           2755      3.56274e+9 
           2765      3.49266e+9 
           2775        3.494e+9 
           2785      3.44564e+9 
           2795      3.34286e+9 
           2805      3.34397e+9 
           2815      3.33156e+9 
           2825      3.25784e+9 
           2835      3.18676e+9 
           2845       3.2142e+9 
           2855      3.16834e+9 
           2865      3.13699e+9 
           2875      3.10134e+9 
           2885      3.06594e+9 
           2895      3.02866e+9 
           2910      2.97082e+9 
           2930      2.90895e+9 
           2950      2.81669e+9 
           2970      2.77965e+9 
           2990      2.71297e+9 
           3010      2.64223e+9 
           3030      2.59799e+9 
           3050      2.54447e+9 
           3070       2.4924e+9 
           3090      2.41632e+9 
           3110      2.38363e+9 
           3130      2.32946e+9 
           3150      2.28209e+9 
           3170      2.23089e+9 
           3190      2.16725e+9 
           3210      2.14149e+9 
           3230      2.09433e+9 
           3250      2.05383e+9 
           3270      2.01152e+9 
           3290       1.9681e+9 
           3310      1.93167e+9 
           3330      1.89104e+9 
           3350       1.8512e+9 
           3370      1.81613e+9 
           3390      1.78214e+9 
           3410      1.74704e+9 
           3430      1.70575e+9 
           3450      1.66628e+9 
           3470      1.63752e+9 
           3490      1.60545e+9 
           3510      1.57669e+9 
           3530      1.54892e+9 
           3550      1.52004e+9 
           3570      1.50111e+9 
           3590      1.45727e+9 
           3610      1.43689e+9 
           3630      1.40558e+9 
           3640      1.40583e+9 
           3650      1.37766e+9 
           3670      1.35947e+9 
           3690      1.33581e+9 
           3710      1.29084e+9 
           3730      1.25096e+9 
           3750      1.23216e+9 
           3770      1.19357e+9 
           3790      1.23024e+9 
           3810      1.27318e+9 
           3830      1.11848e+9 
           3850      1.30361e+9 
           3870      1.32245e+9 
           3890      1.04673e+9 
           3910      1.30425e+9 
           3930      1.29174e+9 
           3950      1.25906e+9 
           3970      9.71122e+8 
           3990      1.20482e+9 
           4010      1.21398e+9 
           4030       1.1334e+9 
           4050      1.18587e+9 
           4070      1.14177e+9 
           4090      1.03246e+9 
           4110      9.08543e+8 
           4130      1.07575e+9 
           4150      1.07322e+9 
           4170      1.06804e+9 
           4190      1.05222e+9 
           4210      1.03861e+9 
           4230      1.01896e+9 
           4250      9.95984e+8 
           4270      9.70125e+8 
           4290       9.5844e+8 
           4310       9.3034e+8 
           4330      8.27728e+8 
           4350      7.56405e+8 
           4370      8.81236e+8 
           4390      8.55964e+8 
           4410      8.66698e+8 
           4430      8.56279e+8 
           4450      8.43178e+8 
           4470      7.85911e+8 
           4490      8.14486e+8 
           4510       8.0626e+8 
           4530       7.9308e+8 
           4550      7.79445e+8 
           4570      7.66432e+8 
           4590      7.53938e+8 
           4610       7.4071e+8 
           4630      7.28947e+8 
           4650      7.09326e+8 
           4670      7.06373e+8 
           4690      6.96696e+8 
           4710      6.73131e+8 
           4730      6.74809e+8 
           4750      6.63528e+8 
           4770      6.57512e+8 
           4790      6.46401e+8 
           4810      6.33383e+8 
           4830      6.17265e+8 
           4850      5.60374e+8 
           4870      5.01392e+8 
           4890      5.87668e+8 
           4910      5.85922e+8 
           4930      5.62345e+8 
           4950      5.71187e+8 
           4970      5.64967e+8 
           4990      5.56362e+8 
           5010      5.37265e+8 
           5030      5.39836e+8 
           5050      5.28152e+8 
           5070      5.24771e+8 
           5090      5.16874e+8 
           5110        5.092e+8 
           5130      5.00929e+8 
           5150      4.93864e+8 
           5170      4.87739e+8 
           5190      4.81106e+8 
           5210      4.73991e+8 
           5230      4.67536e+8 
           5250      4.61042e+8 
           5270      4.54402e+8 
           5290       4.4824e+8 
           5310      4.41943e+8 
           5330      4.35848e+8 
           5350      4.29634e+8 
           5370      4.24049e+8 
           5390       4.1812e+8 
           5410      4.12396e+8 
           5430      4.06795e+8 
           5450      4.01189e+8 
           5470      3.95793e+8 
           5490       3.9049e+8 
           5510      3.85414e+8 
           5530      3.80094e+8 
           5550      3.75219e+8 
           5570      3.70174e+8 
           5590      3.65347e+8 
           5610      3.60461e+8 
           5630        3.558e+8 
           5650       3.5076e+8 
           5670      3.45619e+8 
           5690      3.40494e+8 
           5710      3.37211e+8 
           5730       3.3298e+8 
           5750      3.28217e+8 
           5770      3.24645e+8 
           5790      3.20439e+8 
           5810      3.16373e+8 
           5830      3.12123e+8 
           5850      3.08286e+8 
           5870      2.93714e+8 
           5890      2.98781e+8 
           5910      2.96557e+8 
           5930      2.92717e+8 
           5950      2.89008e+8 
           5970      2.85933e+8 
           5990      2.82042e+8 
           6010      2.78792e+8 
           6030      2.75205e+8 
           6050      2.71916e+8 
           6070      2.68706e+8 
           6090       2.6541e+8 
           6110      2.62192e+8 
           6130       2.5904e+8 
           6150      2.55536e+8 
           6170      2.52625e+8 
           6190      2.49727e+8 
           6210      2.46782e+8 
           6230      2.43842e+8 
           6250      2.40808e+8 
           6270      2.38019e+8 
           6290      2.35232e+8 
           6310      2.32409e+8 
           6330       2.2972e+8 
           6350      2.26855e+8 
           6370      2.24337e+8 
           6390      2.21717e+8 
           6410      2.19135e+8 
           6430      2.16635e+8 
           6450      2.14107e+8 
           6470      2.11346e+8 
           6490      2.08981e+8 
           6510      2.06187e+8 
           6530      2.02638e+8 
           6550      1.91383e+8 
           6570      1.69221e+8 
           6590      1.93448e+8 
           6610      1.94357e+8 
           6630      1.92886e+8 
           6650      1.90944e+8 
           6670      1.86464e+8 
           6690      1.84475e+8 
           6710      1.84699e+8 
           6730      1.82497e+8 
           6750       1.8064e+8 
           6770      1.78645e+8 
           6790      1.76205e+8 
           6810       1.7466e+8 
           6830       1.7275e+8 
           6850      1.70916e+8 
           6870      1.69052e+8 
           6890      1.67152e+8 
           6910      1.65302e+8 
           6930      1.63604e+8 
           6950       1.6186e+8 
           6970      1.60119e+8 
           6990      1.58394e+8 
           7010      1.56702e+8 
           7030      1.55019e+8 
           7050      1.53375e+8 
           7070      1.49185e+8 
           7090       1.5015e+8 
           7110      1.48539e+8 
           7130      1.46981e+8 
           7150      1.45445e+8 
           7170      1.43917e+8 
           7190      1.42432e+8 
           7210      1.40947e+8 
           7230      1.38396e+8 
           7250      1.37963e+8 
           7270      1.36606e+8 
           7290      1.34028e+8 
           7310      1.33783e+8 
           7330      1.32422e+8 
           7350      1.31075e+8 
           7370       1.2974e+8 
           7390      1.28425e+8 
           7410      1.27122e+8 
           7430      1.25825e+8 
           7450      1.24573e+8 
           7470      1.23164e+8 
           7490      1.22071e+8 
           7510      1.20814e+8 
           7530      1.19621e+8 
           7550      1.18453e+8 
           7570      1.17276e+8 
           7590      1.16109e+8 
           7610      1.14914e+8 
           7630      1.13821e+8 
           7650      1.12705e+8 
           7670      1.11599e+8 
           7690      1.10504e+8 
           7710      1.09424e+8 
           7730      1.08348e+8 
           7750      1.07306e+8 
           7770      1.06149e+8 
           7790      1.05233e+8 
           7810      1.04169e+8 
           7830      1.03214e+8 
           7850      1.02291e+8 
           7870      1.01273e+8 
           7890      1.00222e+8 
           7910      9.93965e+7 
           7930      9.84165e+7 
           7950      9.74749e+7 
           7970         9.65e+7 
           7990      9.56044e+7 
           8010      9.46637e+7 
           8030      9.37078e+7 
           8050      9.28242e+7 
           8070      9.19944e+7 
           8090      9.10106e+7 
           8110       9.0104e+7 
           8130      8.94618e+7 
           8150      8.85808e+7 
           8170      8.78373e+7 
           8190      8.68528e+7 
           8210      8.59103e+7 
           8230      8.52207e+7 
           8250      8.45534e+7 
           8270      8.33463e+7 
           8290      8.29885e+7 
           8310       8.2284e+7 
           8330       8.1493e+7 
           8350      8.04223e+7 
           8370      7.99201e+7 
           8390      7.93254e+7 
           8410      7.86077e+7 
           8430      7.78694e+7 
           8450      7.66517e+7 
           8470       7.6495e+7 
           8490      7.56437e+7 
           8510      7.50909e+7 
           8530      7.42732e+7 
           8550      7.35499e+7 
           8570      7.32532e+7 
           8590      7.13349e+7 
