# Kurucz ODFNEW /NOVER (2003)
# teff = 23000 K (value for the effective temperature for the model. Temperatures are given in K)
# logg = 4.5 log(cm/s2) (value for Log(G) for the model.)
# meta = -1  (value for the Metallicity for the model.)
# lh = 1.25  (l/Hp where l is the  mixing length of the convective element and Hp is the pressure scale height)
# vtur = 2 km/s (Microturbulence velocity)
# alpha = 0.4  (Alpha)
#
# column 1: WAVELENGTH (ANGSTROM), Wavelength in Angstrom
# column 2: FLUX (ERG/CM2/S/A), Flux in erg/cm2/s/A
          147.2      2.9006e-16 
            151      1.4305e-15 
          155.2     7.64296e-15 
          158.8     3.00578e-14 
            162     9.68036e-14 
            166     3.93532e-13 
          170.3     1.65801e-12 
          173.4     4.48867e-12 
          176.8     1.28838e-11 
          180.2     3.56287e-11 
          181.7      5.5174e-11 
          186.1     1.91763e-10 
            191     7.20723e-10 
          193.9      1.53138e-9 
          198.4      4.73216e-9 
          201.8      1.07543e-8 
            205      2.27454e-8 
          210.5      7.83297e-8 
          216.2      2.64672e-7 
          219.8      5.53374e-7 
            223      1.04536e-6 
          226.8      2.17462e-6 
            230      2.96975e-5 
            234      7.04458e-5 
            240     0.000185853 
          246.5     0.000501957 
          252.4      0.00119454 
          256.8      0.00215025 
            260      0.00339714 
            264      0.00573667 
          268.5       0.0101346 
          273.5       0.0186203 
          278.5       0.0335686 
            284       0.0627337 
            290        0.120088 
            296        0.223322 
            301        0.367582 
            308        0.704104 
            318         1.78064 
            328         4.11277 
            338         9.16267 
            348         19.3022 
            357         36.9224 
            366         67.8814 
            375         119.016 
            385          217.01 
            395         380.919 
            405         650.264 
            414         1031.79 
            422         1514.16 
            430         2193.14 
            441         3589.06 
            451         5496.07 
            460         7882.65 
            470         11602.7 
            480         16740.3 
            490         23805.7 
            500           33336 
            506          247415 
            512          844819 
            520      1.05463e+6 
            530      1.43825e+6 
            540      1.59231e+6 
            550      2.23908e+6 
            560      2.65753e+6 
            570      3.27299e+6 
            580      3.34062e+6 
            590      4.40106e+6 
            600      5.32716e+6 
            610      6.35287e+6 
            620      7.25714e+6 
            630       8.4253e+6 
            640      9.25544e+6 
            650       1.0387e+7 
            658      1.20781e+7 
            665      1.31464e+7 
            675      1.44457e+7 
            685      1.60896e+7 
            695      1.87731e+7 
            705      2.06046e+7 
            716      2.33303e+7 
            726      2.54774e+7 
            735      2.79445e+7 
            745      3.11809e+7 
            755      3.42703e+7 
            765      3.73977e+7 
            775      4.10728e+7 
            785      4.47979e+7 
            795      4.80734e+7 
            805      5.20314e+7 
            815      5.58085e+7 
            825      6.05867e+7 
            835      6.31534e+7 
            845      6.87745e+7 
            855      7.32922e+7 
            865      7.88225e+7 
            875      8.44366e+7 
            885      9.05334e+7 
            895      9.60842e+7 
            905      9.96302e+7 
            915      1.42714e+8 
            925      6.65157e+8 
            935      2.01076e+9 
            945      7.29476e+9 
            955     1.27597e+10 
            965     1.75681e+10 
            975      4.57049e+9 
            985     2.21811e+10 
            995     2.13726e+10 
           1005     2.27561e+10 
           1015     1.94365e+10 
           1025      4.27316e+9 
           1035      1.5341e+10 
           1045     2.39915e+10 
           1055     2.32071e+10 
           1065     2.00677e+10 
           1075     2.20774e+10 
           1085     2.02208e+10 
           1095     2.18593e+10 
           1105     1.98222e+10 
           1115     1.94273e+10 
           1125     1.77237e+10 
           1135     1.96886e+10 
           1145      1.7708e+10 
           1155     1.85789e+10 
           1165     1.85647e+10 
           1175     1.48487e+10 
           1185     1.77488e+10 
           1195     1.53486e+10 
           1205     1.03173e+10 
           1215      3.38571e+9 
           1225     1.13145e+10 
           1235     1.52302e+10 
           1245     1.55801e+10 
           1255     1.51139e+10 
           1265     1.48345e+10 
           1275     1.51199e+10 
           1285     1.47826e+10 
           1295     1.18635e+10 
           1305     1.18032e+10 
           1315     1.39476e+10 
           1325     1.32825e+10 
           1335     1.27275e+10 
           1345     1.27591e+10 
           1355     1.27701e+10 
           1365     1.20597e+10 
           1375     1.18782e+10 
           1385      1.1844e+10 
           1395     1.03568e+10 
           1405     1.06546e+10 
           1415     1.09885e+10 
           1425     1.07875e+10 
           1435      1.0752e+10 
           1442     1.08558e+10 
           1447     1.06762e+10 
           1455     1.04556e+10 
           1465     1.00932e+10 
           1475      9.93795e+9 
           1485      9.65576e+9 
           1495      9.52567e+9 
           1505      8.98752e+9 
           1512      8.60326e+9 
           1517      8.74407e+9 
           1525      8.70829e+9 
           1535      8.09827e+9 
           1545       8.1808e+9 
           1555      7.80965e+9 
           1565      7.96473e+9 
           1575      8.07486e+9 
           1585      7.91526e+9 
           1595      7.88799e+9 
           1605      7.65619e+9 
           1615      7.51993e+9 
           1625      7.44835e+9 
           1635      7.49224e+9 
           1645      7.32917e+9 
           1655      7.18338e+9 
           1665      7.21734e+9 
           1672      7.00422e+9 
           1677      7.15354e+9 
           1685      7.04066e+9 
           1695      6.82985e+9 
           1705      6.61182e+9 
           1715       6.3815e+9 
           1725      6.29063e+9 
           1735       6.3053e+9 
           1745      6.18425e+9 
           1755      6.18773e+9 
           1765      5.89808e+9 
           1775      5.84508e+9 
           1785      5.79408e+9 
           1795      5.83248e+9 
           1805      5.77243e+9 
           1815      5.51572e+9 
           1825      5.54593e+9 
           1835      5.41438e+9 
           1845       5.0826e+9 
           1855      5.00759e+9 
           1865      5.02909e+9 
           1875      5.09753e+9 
           1885      4.75627e+9 
           1895      4.51904e+9 
           1905      4.71464e+9 
           1915      4.52993e+9 
           1925       4.4042e+9 
           1935      4.49241e+9 
           1945      4.52202e+9 
           1955      4.24523e+9 
           1967      4.38501e+9 
           1976      4.47898e+9 
           1984      4.24875e+9 
           1995      4.13718e+9 
           2005      4.18083e+9 
           2015       4.1591e+9 
           2025      4.19622e+9 
           2035      4.00134e+9 
           2045      3.96987e+9 
           2055       3.8447e+9 
           2065      3.87134e+9 
           2074      3.92172e+9 
           2078      3.78205e+9 
           2085      3.80098e+9 
           2095      3.66702e+9 
           2105      3.70903e+9 
           2115      3.67547e+9 
           2125       3.6921e+9 
           2135      3.61735e+9 
           2145        3.515e+9 
           2155      3.53624e+9 
           2165      3.49304e+9 
           2175      3.43854e+9 
           2185      3.39435e+9 
           2195      3.37162e+9 
           2205      3.32166e+9 
           2215      3.27876e+9 
           2225      3.21595e+9 
           2235       3.1806e+9 
           2245       3.1595e+9 
           2255      3.09961e+9 
           2265      3.08464e+9 
           2275      3.04266e+9 
           2285      3.01681e+9 
           2295      2.92656e+9 
           2305      2.93199e+9 
           2315      2.87951e+9 
           2325      2.84887e+9 
           2335      2.78231e+9 
           2345       2.7476e+9 
           2355      2.74422e+9 
           2365      2.69681e+9 
           2375       2.6672e+9 
           2385      2.62733e+9 
           2395      2.60531e+9 
           2405      2.56916e+9 
           2415      2.53204e+9 
           2425      2.52734e+9 
           2435      2.48077e+9 
           2445      2.45831e+9 
           2455       2.4402e+9 
           2465       2.4032e+9 
           2475      2.37712e+9 
           2485      2.34979e+9 
           2495      2.26715e+9 
           2505      2.29147e+9 
           2513      2.22959e+9 
           2518      2.25319e+9 
           2525      2.23132e+9 
           2535      2.20085e+9 
           2545      2.15643e+9 
           2555       2.1614e+9 
           2565      2.12791e+9 
           2575      2.12096e+9 
           2585      2.09788e+9 
           2595      2.07363e+9 
           2605      2.06018e+9 
           2615      2.03988e+9 
           2625      2.01961e+9 
           2635      1.99422e+9 
           2645      1.98256e+9 
           2655      1.95862e+9 
           2665      1.92406e+9 
           2675       1.9077e+9 
           2685      1.90052e+9 
           2695      1.85822e+9 
           2705      1.85553e+9 
           2715      1.83442e+9 
           2725       1.7977e+9 
           2735      1.79717e+9 
           2745      1.75595e+9 
           2755      1.74422e+9 
           2765      1.72004e+9 
           2775      1.72327e+9 
           2785      1.70189e+9 
           2795      1.64242e+9 
           2805      1.65348e+9 
           2815      1.65126e+9 
           2825      1.61457e+9 
           2835      1.58642e+9 
           2845      1.59674e+9 
           2855      1.58068e+9 
           2865      1.56663e+9 
           2875      1.54951e+9 
           2885      1.53417e+9 
           2895      1.51811e+9 
           2910      1.49338e+9 
           2930      1.45954e+9 
           2950      1.42138e+9 
           2970      1.40529e+9 
           2990      1.37441e+9 
           3010      1.34785e+9 
           3030      1.32359e+9 
           3050      1.29746e+9 
           3070      1.27218e+9 
           3090      1.24286e+9 
           3110      1.22233e+9 
           3130      1.20007e+9 
           3150      1.17694e+9 
           3170      1.15389e+9 
           3190      1.12133e+9 
           3210      1.11062e+9 
           3230      1.08929e+9 
           3250      1.06911e+9 
           3270      1.05054e+9 
           3290      1.02949e+9 
           3310      1.01244e+9 
           3330      9.93761e+8 
           3350      9.73739e+8 
           3370      9.57904e+8 
           3390      9.40832e+8 
           3410      9.24029e+8 
           3430       9.0339e+8 
           3450      8.84052e+8 
           3470       8.7095e+8 
           3490      8.55552e+8 
           3510      8.42589e+8 
           3530      8.29863e+8 
           3550      8.15786e+8 
           3570      8.06494e+8 
           3590       7.8663e+8 
           3610      7.75568e+8 
           3630      7.60584e+8 
           3640      7.59879e+8 
           3650      7.47266e+8 
           3670      7.38305e+8 
           3690      7.24706e+8 
           3710      6.99588e+8 
           3730      6.69902e+8 
           3750      6.91789e+8 
           3770      6.90141e+8 
           3790      7.35436e+8 
           3810      7.72217e+8 
           3830      6.65913e+8 
           3850      8.02741e+8 
           3870      8.19996e+8 
           3890      6.26882e+8 
           3910      8.11092e+8 
           3930      8.01735e+8 
           3950      7.86176e+8 
           3970      5.84328e+8 
           3990      7.51466e+8 
           4010      7.56617e+8 
           4030      7.04218e+8 
           4050      7.41929e+8 
           4070      7.20737e+8 
           4090      6.46683e+8 
           4110       5.5753e+8 
           4130      6.73708e+8 
           4150       6.7318e+8 
           4170      6.69858e+8 
           4190      6.61719e+8 
           4210      6.52174e+8 
           4230      6.40968e+8 
           4250      6.29381e+8 
           4270      6.14345e+8 
           4290      6.06747e+8 
           4310      5.91334e+8 
           4330      5.19937e+8 
           4350      4.71228e+8 
           4370      5.60905e+8 
           4390      5.40402e+8 
           4410       5.5126e+8 
           4430      5.41706e+8 
           4450      5.35782e+8 
           4470      4.97702e+8 
           4490      5.16412e+8 
           4510      5.12138e+8 
           4530      5.03771e+8 
           4550      4.95621e+8 
           4570      4.87902e+8 
           4590       4.8078e+8 
           4610      4.73427e+8 
           4630      4.66235e+8 
           4650      4.57285e+8 
           4670      4.52133e+8 
           4690      4.46127e+8 
           4710      4.31427e+8 
           4730      4.31524e+8 
           4750      4.24642e+8 
           4770      4.20459e+8 
           4790      4.13819e+8 
           4810      4.05858e+8 
           4830        3.964e+8 
           4850       3.5683e+8 
           4870      3.16211e+8 
           4890      3.77579e+8 
           4910      3.76697e+8 
           4930      3.61448e+8 
           4950      3.68235e+8 
           4970      3.63508e+8 
           4990      3.58239e+8 
           5010      3.47025e+8 
           5030      3.48038e+8 
           5050      3.39496e+8 
           5070      3.38625e+8 
           5090      3.33847e+8 
           5110      3.29118e+8 
           5130      3.24366e+8 
           5150      3.19906e+8 
           5170      3.15829e+8 
           5190      3.11511e+8 
           5210      3.06487e+8 
           5230      3.03142e+8 
           5250       2.9906e+8 
           5270      2.94977e+8 
           5290      2.91081e+8 
           5310      2.87182e+8 
           5330      2.83241e+8 
           5350      2.79245e+8 
           5370      2.75902e+8 
           5390      2.72237e+8 
           5410      2.68632e+8 
           5430      2.64829e+8 
           5450      2.61507e+8 
           5470        2.581e+8 
           5490      2.54898e+8 
           5510      2.51586e+8 
           5530      2.48316e+8 
           5550      2.45172e+8 
           5570      2.41994e+8 
           5590      2.38963e+8 
           5610       2.3579e+8 
           5630      2.32941e+8 
           5650      2.29501e+8 
           5670      2.26666e+8 
           5690      2.23924e+8 
           5710      2.21376e+8 
           5730      2.18651e+8 
           5750      2.15823e+8 
           5770      2.13288e+8 
           5790      2.10648e+8 
           5810      2.08029e+8 
           5830      2.05462e+8 
           5850       2.0297e+8 
           5870        1.934e+8 
           5890       1.9729e+8 
           5910      1.95623e+8 
           5930      1.93256e+8 
           5950      1.90799e+8 
           5970      1.88677e+8 
           5990      1.86317e+8 
           6010      1.84192e+8 
           6030      1.81988e+8 
           6050       1.7984e+8 
           6070      1.77706e+8 
           6090      1.75596e+8 
           6110       1.7356e+8 
           6130      1.71527e+8 
           6150      1.69368e+8 
           6170      1.67519e+8 
           6190      1.65593e+8 
           6210      1.63678e+8 
           6230      1.61785e+8 
           6250      1.59863e+8 
           6270      1.58069e+8 
           6290      1.56266e+8 
           6310      1.54434e+8 
           6330      1.52727e+8 
           6350      1.50664e+8 
           6370      1.49116e+8 
           6390      1.47584e+8 
           6410      1.45903e+8 
           6430      1.44314e+8 
           6450      1.42687e+8 
           6470      1.41041e+8 
           6490      1.39493e+8 
           6510       1.3758e+8 
           6530      1.35307e+8 
           6550       1.2744e+8 
           6570      1.12238e+8 
           6590      1.29376e+8 
           6610      1.29991e+8 
           6630      1.29036e+8 
           6650       1.2781e+8 
           6670      1.24885e+8 
           6690      1.23601e+8 
           6710      1.23727e+8 
           6730      1.22377e+8 
           6750      1.21099e+8 
           6770      1.19801e+8 
           6790       1.1841e+8 
           6810      1.17252e+8 
           6830      1.16001e+8 
           6850      1.14787e+8 
           6870      1.13577e+8 
           6890      1.12379e+8 
           6910      1.11201e+8 
           6930      1.10019e+8 
           6950      1.08895e+8 
           6970      1.07759e+8 
           6990      1.06634e+8 
           7010      1.05528e+8 
           7030      1.04441e+8 
           7050      1.03364e+8 
           7070      1.00549e+8 
           7090      1.01257e+8 
           7110      1.00226e+8 
           7130       9.9205e+7 
           7150      9.81792e+7 
           7170      9.71779e+7 
           7190      9.62154e+7 
           7210      9.52475e+7 
           7230      9.38204e+7 
           7250       9.3325e+7 
           7270      9.24059e+7 
           7290      9.06945e+7 
           7310      9.05584e+7 
           7330      8.96723e+7 
           7350      8.87805e+7 
           7370      8.79039e+7 
           7390      8.70425e+7 
           7410      8.61822e+7 
           7430       8.5323e+7 
           7450      8.45126e+7 
           7470      8.36623e+7 
           7490      8.28669e+7 
           7510      8.20387e+7 
           7530      8.12713e+7 
           7550       8.0491e+7 
           7570      7.97112e+7 
           7590      7.89451e+7 
           7610      7.81859e+7 
           7630      7.74401e+7 
           7650      7.67009e+7 
           7670      7.59749e+7 
           7690      7.52489e+7 
           7710      7.45358e+7 
           7730      7.38291e+7 
           7750      7.31349e+7 
           7770      7.22597e+7 
           7790       7.1765e+7 
           7810       7.1052e+7 
           7830      7.04314e+7 
           7850      6.98101e+7 
           7870      6.91577e+7 
           7890      6.84444e+7 
           7910      6.79241e+7 
           7930      6.72944e+7 
           7950      6.66105e+7 
           7970      6.59089e+7 
           7990      6.52607e+7 
           8010      6.46945e+7 
           8030       6.4098e+7 
           8050      6.35125e+7 
           8070      6.29667e+7 
           8090      6.23104e+7 
           8110      6.18259e+7 
           8130      6.13112e+7 
           8150      6.06987e+7 
           8170      6.02325e+7 
           8190       5.9613e+7 
           8210      5.89428e+7 
           8230      5.85566e+7 
           8250      5.80904e+7 
           8270      5.72864e+7 
           8290      5.70323e+7 
           8310      5.65508e+7 
           8330      5.60298e+7 
           8350      5.52592e+7 
           8370      5.49578e+7 
           8390       5.4573e+7 
           8410      5.40901e+7 
           8430      5.35687e+7 
           8450      5.26791e+7 
           8470       5.2607e+7 
           8490      5.20276e+7 
           8510      5.15726e+7 
           8530      5.11307e+7 
           8550      5.02394e+7 
           8570      5.07361e+7 
