# Kurucz ODFNEW /NOVER (2003)
# teff = 7750 K (value for the effective temperature for the model. Temperatures are given in K)
# logg = 1.5 log(cm/s2) (value for Log(G) for the model.)
# meta = -4  (value for the Metallicity for the model.)
# lh = 1.25  (l/Hp where l is the  mixing length of the convective element and Hp is the pressure scale height)
# vtur = 2 km/s (Microturbulence velocity)
# alpha = 0.4  (Alpha)
#
# column 1: WAVELENGTH (ANGSTROM), Wavelength in Angstrom
# column 2: FLUX (ERG/CM2/S/A), Flux in erg/cm2/s/A
          147.2     1.73866e-35 
            151     1.65225e-35 
          155.2     1.56403e-35 
          158.8     1.49392e-35 
            162     1.43549e-35 
            166     1.36714e-35 
          170.3     1.29897e-35 
          173.4     1.25294e-35 
          176.8     1.20522e-35 
          180.2     1.16017e-35 
          181.7     1.14109e-35 
          186.1     1.08777e-35 
            191     1.03267e-35 
          193.9     1.00201e-35 
          198.4     9.57076e-36 
          201.8     9.25097e-36 
            205     8.96441e-36 
          210.5     8.50208e-36 
          216.2     8.05969e-36 
          219.8     7.79784e-36 
            223     7.57565e-36 
          226.8     7.32392e-36 
            230     7.12154e-36 
            234     6.88015e-36 
            240     6.54044e-36 
          246.5     6.20006e-36 
          252.4     5.91358e-36 
          256.8     5.71267e-36 
            260     5.57292e-36 
            264     5.40532e-36 
          268.5     5.22566e-36 
          273.5     5.03634e-36 
          278.5     4.85712e-36 
            284     4.67082e-36 
            290     4.47954e-36 
            296     4.29978e-36 
            301     2.67558e-23 
            308     2.01903e-22 
            318     2.46105e-21 
            328     2.51266e-20 
            338     2.22363e-19 
            348     1.72786e-18 
            357     9.87278e-18 
            366     5.16683e-17 
            375     2.48782e-16 
            385     1.30417e-15 
            395      6.2643e-15 
            405     2.77681e-14 
            414     9.95301e-14 
            422     2.95001e-13 
            430     8.38503e-13 
            441     3.30683e-12 
            451     1.08258e-11 
            460     3.00654e-11 
            470     8.91786e-11 
            480     2.52232e-10 
            490     6.82695e-10 
            500      1.77183e-9 
            506      4.35694e-9 
            512      8.52708e-9 
            520      1.71911e-8 
            530      4.04062e-8 
            540      9.01928e-8 
            550      1.98104e-7 
            560      4.19136e-7 
            570      8.62431e-7 
            580      1.70805e-6 
            590      3.37693e-6 
            600      6.44396e-6 
            610      1.20197e-5 
            620      2.19383e-5 
            630      3.92324e-5 
            640      6.88129e-5 
            650     0.000118476 
            658     0.000180654 
            665     0.000258951 
            675     0.000427154 
            685     0.000693612 
            695      0.00110954 
            705      0.00174954 
            716      0.00284155 
            726      0.00435464 
            735      0.00632607 
            745      0.00947008 
            755       0.0140131 
            765       0.0205068 
            775       0.0296867 
            785       0.0425365 
            795       0.0603459 
            805        0.084819 
            815        0.118142 
            825        0.163123 
            835        0.223317 
            845        0.303235 
            855        0.408487 
            865        0.546093 
            875        0.724747 
            885        0.955069 
            895         1.25013 
            905         1.62559 
            915         2.98477 
            925         12.8681 
            935         21.3052 
            945          37.569 
            955         62.0595 
            965         59.4166 
            975         37.5158 
            985         157.102 
            995         184.106 
           1005         151.259 
           1015         101.256 
           1025         112.374 
           1035         177.219 
           1045         372.926 
           1055         3092.36 
           1065         51665.5 
           1075          137108 
           1085          200227 
           1095          152674 
           1105          126074 
           1115         74198.9 
           1125           36041 
           1135         12593.7 
           1145         3783.89 
           1155         1119.72 
           1165         1016.17 
           1175         551.195 
           1185         16952.5 
           1195         1041.69 
           1205         820.358 
           1215         736.629 
           1225         1019.23 
           1235         1618.19 
           1245         628.593 
           1255         1023.85 
           1265         1789.05 
           1275         3269.68 
           1285         4658.85 
           1295           12052 
           1305         50137.7 
           1315         98161.3 
           1325          207533 
           1335          367466 
           1345          557444 
           1355          732027 
           1365          975173 
           1375      1.11216e+6 
           1385      1.22507e+6 
           1395      1.32862e+6 
           1405      1.95328e+6 
           1415      2.86053e+6 
           1425      3.20177e+6 
           1435      3.49374e+6 
           1442      3.96339e+6 
           1447      3.93911e+6 
           1455      4.45842e+6 
           1465      4.48816e+6 
           1475      4.98075e+6 
           1485      5.24327e+6 
           1495      5.61582e+6 
           1505      6.01363e+6 
           1512      6.25898e+6 
           1517      6.11482e+6 
           1525      6.46051e+6 
           1535      6.57087e+6 
           1545      6.71256e+6 
           1555      6.78044e+6 
           1565      6.36044e+6 
           1575      6.71685e+6 
           1585      6.74228e+6 
           1595      6.94825e+6 
           1605      6.87364e+6 
           1615      7.64545e+6 
           1625      8.14228e+6 
           1635      8.87318e+6 
           1645      9.66401e+6 
           1655      9.33838e+6 
           1665      1.04556e+7 
           1672      1.02611e+7 
           1677      1.05247e+7 
           1685      1.08524e+7 
           1695      1.08198e+7 
           1705      1.08746e+7 
           1715      1.12239e+7 
           1725      1.12608e+7 
           1735      1.15376e+7 
           1745      1.14525e+7 
           1755      1.16192e+7 
           1765      1.16317e+7 
           1775      1.17698e+7 
           1785      1.17181e+7 
           1795      1.19414e+7 
           1805      1.18013e+7 
           1815      1.18432e+7 
           1825      1.18483e+7 
           1835      1.19802e+7 
           1845      1.18684e+7 
           1855      1.20507e+7 
           1865      1.21286e+7 
           1875      1.21689e+7 
           1885       1.2213e+7 
           1895       1.2247e+7 
           1905      1.21562e+7 
           1915      1.22668e+7 
           1925       1.2338e+7 
           1935      1.21705e+7 
           1945      1.23992e+7 
           1955      1.24146e+7 
           1967      1.24564e+7 
           1976      1.24252e+7 
           1984      1.24334e+7 
           1995       1.2485e+7 
           2005      1.24404e+7 
           2015       1.2372e+7 
           2025      1.23714e+7 
           2035      1.25084e+7 
           2045       1.2508e+7 
           2055      1.23366e+7 
           2065      1.23897e+7 
           2074      1.25872e+7 
           2078      1.25929e+7 
           2085      1.25943e+7 
           2095      1.26022e+7 
           2105      1.26205e+7 
           2115      1.26177e+7 
           2125      1.25943e+7 
           2135      1.25964e+7 
           2145      1.26684e+7 
           2155      1.26565e+7 
           2165      1.25166e+7 
           2175      1.25793e+7 
           2185      1.26688e+7 
           2195      1.27617e+7 
           2205      1.26601e+7 
           2215      1.25092e+7 
           2225      1.25675e+7 
           2235      1.27931e+7 
           2245      1.27497e+7 
           2255      1.26035e+7 
           2265       1.2516e+7 
           2275      1.27454e+7 
           2285      1.27676e+7 
           2295      1.27281e+7 
           2305      1.28114e+7 
           2315      1.27987e+7 
           2325      1.28101e+7 
           2335       1.2702e+7 
           2345      1.23623e+7 
           2355      1.27684e+7 
           2365      1.24343e+7 
           2375      1.27339e+7 
           2385      1.22902e+7 
           2395      1.26837e+7 
           2405      1.27146e+7 
           2415      1.27277e+7 
           2425      1.30355e+7 
           2435      1.29725e+7 
           2445      1.30033e+7 
           2455      1.30795e+7 
           2465      1.30059e+7 
           2475      1.30203e+7 
           2485      1.30341e+7 
           2495      1.29715e+7 
           2505       1.3163e+7 
           2513      1.30184e+7 
           2518      1.30785e+7 
           2525       1.2996e+7 
           2535      1.29131e+7 
           2545      1.30869e+7 
           2555      1.32697e+7 
           2565      1.31459e+7 
           2575       1.3236e+7 
           2585      1.32691e+7 
           2595      1.32448e+7 
           2605      1.32049e+7 
           2615      1.31719e+7 
           2625      1.31985e+7 
           2635      1.33037e+7 
           2645       1.3598e+7 
           2655       1.3609e+7 
           2665      1.35421e+7 
           2675      1.35848e+7 
           2685      1.36688e+7 
           2695      1.36619e+7 
           2705      1.36985e+7 
           2715      1.35973e+7 
           2725      1.36037e+7 
           2735      1.36555e+7 
           2745      1.33282e+7 
           2755      1.34431e+7 
           2765       1.3656e+7 
           2775      1.38405e+7 
           2785      1.38506e+7 
           2795      1.32728e+7 
           2805      1.36135e+7 
           2815      1.39482e+7 
           2825       1.3961e+7 
           2835      1.39199e+7 
           2845      1.39614e+7 
           2855      1.38684e+7 
           2865      1.39493e+7 
           2875       1.4012e+7 
           2885       1.4025e+7 
           2895      1.40883e+7 
           2910      1.41299e+7 
           2930      1.40978e+7 
           2950      1.41194e+7 
           2970      1.42143e+7 
           2990      1.42363e+7 
           3010       1.4301e+7 
           3030      1.43361e+7 
           3050      1.43645e+7 
           3070      1.43542e+7 
           3090      1.44196e+7 
           3110       1.4447e+7 
           3130      1.44683e+7 
           3150      1.44871e+7 
           3170      1.45194e+7 
           3190      1.45078e+7 
           3210       1.4563e+7 
           3230      1.45288e+7 
           3250      1.45994e+7 
           3270      1.46451e+7 
           3290      1.46705e+7 
           3310      1.46911e+7 
           3330      1.46902e+7 
           3350      1.46798e+7 
           3370      1.47077e+7 
           3390      1.47275e+7 
           3410      1.47674e+7 
           3430      1.47792e+7 
           3450      1.47903e+7 
           3470      1.47984e+7 
           3490      1.48099e+7 
           3510      1.48198e+7 
           3530      1.48283e+7 
           3550      1.48348e+7 
           3570      1.48378e+7 
           3590      1.48419e+7 
           3610      1.48456e+7 
           3630      1.48466e+7 
           3640      1.48453e+7 
           3650      1.49145e+7 
           3670       1.4782e+7 
           3690      1.59655e+7 
           3710      2.12187e+7 
           3730      2.98017e+7 
           3750      4.58103e+7 
           3770      4.79072e+7 
           3790      5.61576e+7 
           3810      6.32229e+7 
           3830      5.11409e+7 
           3850      6.74339e+7 
           3870      7.14626e+7 
           3890      4.55921e+7 
           3910      6.99463e+7 
           3930      6.96338e+7 
           3950      6.85272e+7 
           3970      4.33644e+7 
           3990      6.61923e+7 
           4010      6.74571e+7 
           4030      6.67382e+7 
           4050      6.59589e+7 
           4070      6.48256e+7 
           4090      5.69167e+7 
           4110      4.44526e+7 
           4130      6.22026e+7 
           4150      6.20813e+7 
           4170      6.15024e+7 
           4190      6.07836e+7 
           4210      6.00651e+7 
           4230      5.93511e+7 
           4250      5.86582e+7 
           4270      5.79716e+7 
           4290      5.71498e+7 
           4310      5.60731e+7 
           4330      4.73923e+7 
           4350      4.04513e+7 
           4370      5.39955e+7 
           4390      5.38741e+7 
           4410      5.34253e+7 
           4430      5.28288e+7 
           4450      5.22256e+7 
           4470      5.16009e+7 
           4490      5.10395e+7 
           4510       5.0473e+7 
           4530      4.99071e+7 
           4550      4.93401e+7 
           4570      4.87974e+7 
           4590      4.82568e+7 
           4610      4.77291e+7 
           4630      4.71982e+7 
           4650      4.66815e+7 
           4670      4.61685e+7 
           4690      4.56643e+7 
           4710      4.51601e+7 
           4730      4.46763e+7 
           4750      4.41923e+7 
           4770      4.37149e+7 
           4790      4.32373e+7 
           4810      4.26408e+7 
           4830      4.18491e+7 
           4850      3.63941e+7 
           4870      2.96388e+7 
           4890      4.02644e+7 
           4910      4.03903e+7 
           4930      4.00911e+7 
           4950      3.97109e+7 
           4970      3.92974e+7 
           4990      3.88877e+7 
           5010      3.84788e+7 
           5030       3.8087e+7 
           5050      3.76944e+7 
           5070      3.73067e+7 
           5090      3.69254e+7 
           5110      3.65489e+7 
           5130      3.61757e+7 
           5150      3.58101e+7 
           5170      3.54363e+7 
           5190       3.5084e+7 
           5210      3.47374e+7 
           5230      3.43869e+7 
           5250      3.40461e+7 
           5270      3.37054e+7 
           5290       3.3373e+7 
           5310      3.30405e+7 
           5330      3.27161e+7 
           5350      3.23943e+7 
           5370      3.20764e+7 
           5390      3.17636e+7 
           5410      3.14545e+7 
           5430      3.11478e+7 
           5450      3.08474e+7 
           5470      3.05492e+7 
           5490      3.02545e+7 
           5510      2.99645e+7 
           5530       2.9678e+7 
           5550      2.93947e+7 
           5570       2.9116e+7 
           5590      2.88393e+7 
           5610       2.8567e+7 
           5630      2.82979e+7 
           5650      2.80318e+7 
           5670      2.77688e+7 
           5690      2.75099e+7 
           5710      2.72528e+7 
           5730      2.69998e+7 
           5750      2.67496e+7 
           5770      2.65023e+7 
           5790      2.62577e+7 
           5810       2.6017e+7 
           5830      2.57778e+7 
           5850      2.55424e+7 
           5870      2.53031e+7 
           5890      2.50794e+7 
           5910      2.48528e+7 
           5930      2.46286e+7 
           5950      2.44069e+7 
           5970      2.41877e+7 
           5990      2.39708e+7 
           6010      2.37562e+7 
           6030       2.3545e+7 
           6050      2.33361e+7 
           6070      2.31294e+7 
           6090      2.29249e+7 
           6110      2.27226e+7 
           6130      2.25234e+7 
           6150      2.23264e+7 
           6170      2.21314e+7 
           6190      2.19385e+7 
           6210      2.17476e+7 
           6230      2.15586e+7 
           6250      2.13727e+7 
           6270      2.11886e+7 
           6290      2.10055e+7 
           6310      2.08253e+7 
           6330      2.06478e+7 
           6350      2.04712e+7 
           6370      2.02965e+7 
           6390      2.01244e+7 
           6410      1.99541e+7 
           6430      1.97855e+7 
           6450      1.96177e+7 
           6470      1.94534e+7 
           6490      1.92541e+7 
           6510      1.90427e+7 
           6530      1.87274e+7 
           6550      1.71187e+7 
           6570      1.36553e+7 
           6590      1.80236e+7 
           6610      1.82251e+7 
           6630      1.81427e+7 
           6650      1.80423e+7 
           6670       1.7897e+7 
           6690      1.77506e+7 
           6710      1.76064e+7 
           6730      1.74629e+7 
           6750      1.73207e+7 
           6770      1.71798e+7 
           6790      1.70412e+7 
           6810      1.69031e+7 
           6830      1.67671e+7 
           6850      1.66324e+7 
           6870       1.6499e+7 
           6890      1.63668e+7 
           6910      1.62367e+7 
           6930       1.6107e+7 
           6950      1.59786e+7 
           6970      1.58521e+7 
           6990      1.57268e+7 
           7010      1.56027e+7 
           7030      1.54798e+7 
           7050       1.5358e+7 
           7070      1.52373e+7 
           7090      1.51185e+7 
           7110          1.5e+7 
           7130      1.48833e+7 
           7150      1.47678e+7 
           7170      1.46533e+7 
           7190      1.45398e+7 
           7210      1.44274e+7 
           7230      1.43167e+7 
           7250      1.42062e+7 
           7270      1.40975e+7 
           7290      1.39891e+7 
           7310      1.38823e+7 
           7330      1.37765e+7 
           7350      1.36717e+7 
           7370      1.35677e+7 
           7390      1.34647e+7 
           7410      1.33633e+7 
           7430      1.32622e+7 
           7450      1.31625e+7 
           7470      1.30631e+7 
           7490      1.29652e+7 
           7510      1.28682e+7 
           7530      1.27721e+7 
           7550      1.26767e+7 
           7570      1.25822e+7 
           7590      1.24892e+7 
           7610      1.23963e+7 
           7630      1.23049e+7 
           7650      1.22136e+7 
           7670      1.21237e+7 
           7690      1.20346e+7 
           7710      1.19463e+7 
           7730      1.18587e+7 
           7750      1.17718e+7 
           7770      1.16839e+7 
           7790       1.1601e+7 
           7810      1.15169e+7 
           7830      1.14336e+7 
           7850      1.13503e+7 
           7870      1.12684e+7 
           7890      1.11871e+7 
           7910      1.11071e+7 
           7930      1.10272e+7 
           7950       1.0948e+7 
           7970        1.087e+7 
           7990       1.0792e+7 
           8010      1.07153e+7 
           8030      1.06392e+7 
           8050      1.05631e+7 
           8070      1.04883e+7 
           8090       1.0414e+7 
           8110      1.03404e+7 
           8130      1.02679e+7 
           8150      1.01955e+7 
           8170      1.01242e+7 
           8190      1.00529e+7 
           8210      1.00146e+7 
           8230       9.9515e+6 
           8250      9.88948e+6 
           8270      9.82352e+6 
           8290      9.74877e+6 
           8310      9.65553e+6 
           8330      9.55493e+6 
           8350      9.50489e+6 
           8370       9.2826e+6 
           8390      9.28603e+6 
           8410      9.19451e+6 
           8430      9.39585e+6 
           8450      9.36884e+6 
           8470      8.89142e+6 
           8490      9.76004e+6 
           8510      8.81479e+6 
           8530      9.92035e+6 
           8550      8.58306e+6 
           8570      1.01142e+7 
