# Kurucz ODFNEW /NOVER (2003)
# teff = 7250 K (value for the effective temperature for the model. Temperatures are given in K)
# logg = 3 log(cm/s2) (value for Log(G) for the model.)
# meta = -4  (value for the Metallicity for the model.)
# lh = 1.25  (l/Hp where l is the  mixing length of the convective element and Hp is the pressure scale height)
# vtur = 2 km/s (Microturbulence velocity)
# alpha = 0.4  (Alpha)
#
# column 1: WAVELENGTH (ANGSTROM), Wavelength in Angstrom
# column 2: FLUX (ERG/CM2/S/A), Flux in erg/cm2/s/A
          147.2     1.73866e-35 
            151     1.65225e-35 
          155.2     1.56403e-35 
          158.8     1.49392e-35 
            162     1.43549e-35 
            166     1.36714e-35 
          170.3     1.29897e-35 
          173.4     1.25294e-35 
          176.8     1.20522e-35 
          180.2     1.16017e-35 
          181.7     1.14109e-35 
          186.1     1.08777e-35 
            191     1.03267e-35 
          193.9     1.00201e-35 
          198.4     9.57076e-36 
          201.8     9.25097e-36 
            205     8.96441e-36 
          210.5     8.50208e-36 
          216.2     8.05969e-36 
          219.8     7.79784e-36 
            223     7.57565e-36 
          226.8     7.32392e-36 
            230     7.12154e-36 
            234     6.88015e-36 
            240     6.54044e-36 
          246.5     6.20006e-36 
          252.4     5.91358e-36 
          256.8     5.71267e-36 
            260     5.57292e-36 
            264     5.40532e-36 
          268.5     5.22566e-36 
          273.5     5.03634e-36 
          278.5     4.85712e-36 
            284     4.67082e-36 
            290     4.47954e-36 
            296     4.29978e-36 
            301     4.15812e-36 
            308     3.97126e-36 
            318     1.53487e-22 
            328     1.79481e-21 
            338     1.76368e-20 
            348     1.51213e-19 
            357      9.4025e-19 
            366     5.32769e-18 
            375     2.76978e-17 
            385     1.57465e-16 
            395     8.17179e-16 
            405     3.89741e-15 
            414     1.48686e-14 
            422     4.65041e-14 
            430      1.3916e-13 
            441     5.87039e-13 
            451     2.03885e-12 
            460     5.95681e-12 
            470     1.86438e-11 
            480     5.55185e-11 
            490     1.57784e-10 
            500      4.2923e-10 
            506     7.67081e-10 
            512      1.35123e-9 
            520      2.81377e-9 
            530      6.81211e-9 
            540      1.59322e-8 
            550      3.60701e-8 
            560      7.91817e-8 
            570      1.68827e-7 
            580      3.50155e-7 
            590      7.07474e-7 
            600      1.39432e-6 
            610      2.68388e-6 
            620      5.05145e-6 
            630      9.30671e-6 
            640      1.68011e-5 
            650      2.97487e-5 
            658      4.63642e-5 
            665      6.77231e-5 
            675     0.000114675 
            685      0.00019102 
            695     0.000313223 
            705     0.000505914 
            716     0.000843176 
            726      0.00132229 
            735      0.00196013 
            745      0.00299931 
            755      0.00453404 
            765      0.00677466 
            775       0.0100093 
            785       0.0146302 
            795       0.0211646 
            805       0.0303133 
            815       0.0430041 
            825       0.0604483 
            835       0.0842153 
            845        0.116328 
            855        0.159365 
            865        0.216595 
            875        0.292128 
            885         0.39109 
            895        0.519833 
            905        0.686234 
            915         1.31469 
            925         4.24072 
            935         7.03923 
            945         12.2001 
            955          17.878 
            965         20.8672 
            975         13.9809 
            985         40.9491 
            995         49.6281 
           1005         52.4872 
           1015         36.6701 
           1025         43.7571 
           1035         74.9538 
           1045         123.859 
           1055         161.564 
           1065         209.073 
           1075         249.117 
           1085         298.587 
           1095         334.713 
           1105          375.92 
           1115         417.479 
           1125         457.002 
           1135         492.061 
           1145         517.009 
           1155         529.106 
           1165         382.468 
           1175         217.536 
           1185         930.593 
           1195         619.614 
           1205         527.801 
           1215         415.386 
           1225         659.981 
           1235         1002.47 
           1245         268.519 
           1255         420.663 
           1265         739.463 
           1275         1362.75 
           1285         2300.45 
           1295         2860.81 
           1305          3373.7 
           1315         4175.07 
           1325         4995.95 
           1335         6004.08 
           1345         7298.12 
           1355         8992.14 
           1365         10891.3 
           1375         12736.4 
           1385         14389.1 
           1395         16838.2 
           1405         21595.8 
           1415           31136 
           1425         36579.7 
           1435         45400.2 
           1442         56399.9 
           1447         51311.1 
           1455         58309.6 
           1465         59190.9 
           1475         66718.2 
           1485         76969.7 
           1495         91150.6 
           1505          101036 
           1512          111423 
           1517         97758.9 
           1525          100637 
           1535          100262 
           1545           89232 
           1555         86095.3 
           1565         78504.5 
           1575         80145.7 
           1585         82988.5 
           1595         86741.7 
           1605         92628.3 
           1615          115089 
           1625          204042 
           1635          463861 
           1645      1.21207e+6 
           1655      1.88294e+6 
           1665      3.42263e+6 
           1672      4.07335e+6 
           1677      4.62779e+6 
           1685      5.30418e+6 
           1695      6.01005e+6 
           1705      6.56465e+6 
           1715      7.18882e+6 
           1725      7.48844e+6 
           1735      7.88294e+6 
           1745      7.95604e+6 
           1755      8.23257e+6 
           1765      8.32675e+6 
           1775      8.53583e+6 
           1785      8.67634e+6 
           1795      8.98987e+6 
           1805      8.97368e+6 
           1815      9.12369e+6 
           1825      9.21626e+6 
           1835      9.43909e+6 
           1845      9.32542e+6 
           1855      9.63855e+6 
           1865       9.8891e+6 
           1875      1.00031e+7 
           1885       1.0133e+7 
           1895      1.02593e+7 
           1905       1.0236e+7 
           1915      1.04763e+7 
           1925       1.0628e+7 
           1935      1.05446e+7 
           1945      1.08417e+7 
           1955      1.09341e+7 
           1967      1.10592e+7 
           1976       1.1032e+7 
           1984      1.10466e+7 
           1995      1.12838e+7 
           2005      1.13009e+7 
           2015      1.13412e+7 
           2025      1.13305e+7 
           2035      1.15951e+7 
           2045      1.16639e+7 
           2055      1.15641e+7 
           2065      1.16635e+7 
           2074      1.19207e+7 
           2078      1.19455e+7 
           2085      1.19642e+7 
           2095      1.20323e+7 
           2105        1.209e+7 
           2115      1.21595e+7 
           2125      1.21037e+7 
           2135       1.2222e+7 
           2145      1.23441e+7 
           2155      1.23783e+7 
           2165      1.22562e+7 
           2175      1.23739e+7 
           2185       1.2515e+7 
           2195       1.2635e+7 
           2205      1.25253e+7 
           2215      1.23034e+7 
           2225      1.25545e+7 
           2235      1.28173e+7 
           2245      1.27998e+7 
           2255      1.26598e+7 
           2265      1.25755e+7 
           2275      1.28262e+7 
           2285      1.29032e+7 
           2295      1.28725e+7 
           2305      1.30015e+7 
           2315      1.29934e+7 
           2325      1.30032e+7 
           2335       1.2948e+7 
           2345      1.25925e+7 
           2355       1.3055e+7 
           2365      1.26936e+7 
           2375      1.30371e+7 
           2385      1.25558e+7 
           2395      1.30029e+7 
           2405        1.305e+7 
           2415      1.30739e+7 
           2425      1.34295e+7 
           2435      1.33277e+7 
           2445      1.34004e+7 
           2455      1.34914e+7 
           2465      1.34126e+7 
           2475      1.34004e+7 
           2485      1.33415e+7 
           2495      1.33117e+7 
           2505       1.3558e+7 
           2513      1.33042e+7 
           2518      1.32983e+7 
           2525      1.32395e+7 
           2535      1.33011e+7 
           2545      1.34929e+7 
           2555      1.37216e+7 
           2565      1.35908e+7 
           2575      1.36894e+7 
           2585      1.37291e+7 
           2595      1.37052e+7 
           2605      1.36451e+7 
           2615      1.36032e+7 
           2625      1.36332e+7 
           2635      1.37524e+7 
           2645      1.40912e+7 
           2655      1.40986e+7 
           2665      1.40078e+7 
           2675       1.4047e+7 
           2685        1.415e+7 
           2695      1.41298e+7 
           2705       1.4166e+7 
           2715      1.40016e+7 
           2725      1.40086e+7 
           2735      1.40635e+7 
           2745      1.36717e+7 
           2755      1.38034e+7 
           2765      1.40522e+7 
           2775      1.42534e+7 
           2785      1.42299e+7 
           2795       1.3526e+7 
           2805      1.39396e+7 
           2815      1.43632e+7 
           2825      1.43703e+7 
           2835      1.43038e+7 
           2845       1.4344e+7 
           2855        1.416e+7 
           2865      1.43032e+7 
           2875      1.43743e+7 
           2885      1.43183e+7 
           2895      1.44466e+7 
           2910      1.44791e+7 
           2930      1.44137e+7 
           2950      1.44064e+7 
           2970      1.44902e+7 
           2990      1.44871e+7 
           3010      1.45472e+7 
           3030      1.45634e+7 
           3050      1.45844e+7 
           3070      1.45473e+7 
           3090      1.46042e+7 
           3110      1.46199e+7 
           3130      1.46256e+7 
           3150      1.46231e+7 
           3170      1.46401e+7 
           3190      1.45915e+7 
           3210      1.46427e+7 
           3230      1.45656e+7 
           3250       1.4638e+7 
           3270      1.46793e+7 
           3290      1.46904e+7 
           3310      1.46929e+7 
           3330      1.46643e+7 
           3350      1.46241e+7 
           3370      1.46401e+7 
           3390      1.46422e+7 
           3410       1.4679e+7 
           3430      1.46732e+7 
           3450      1.46609e+7 
           3470       1.4656e+7 
           3490      1.46534e+7 
           3510      1.46483e+7 
           3530      1.46412e+7 
           3550       1.4633e+7 
           3570       1.4612e+7 
           3590       1.4602e+7 
           3610      1.45901e+7 
           3630      1.45787e+7 
           3640      1.45706e+7 
           3650      1.46374e+7 
           3670      1.44973e+7 
           3690      1.42208e+7 
           3710      1.65851e+7 
           3730      1.86663e+7 
           3750      2.41415e+7 
           3770      2.53264e+7 
           3790      2.91305e+7 
           3810      3.30012e+7 
           3830      2.75159e+7 
           3850      3.55977e+7 
           3870      3.84857e+7 
           3890      2.51176e+7 
           3910      3.82666e+7 
           3930      3.94196e+7 
           3950      3.79953e+7 
           3970      2.44717e+7 
           3990      3.68019e+7 
           4010      3.91159e+7 
           4030      3.91229e+7 
           4050      3.87536e+7 
           4070      3.78119e+7 
           4090      3.20605e+7 
           4110      2.58303e+7 
           4130      3.64717e+7 
           4150      3.72081e+7 
           4170      3.71142e+7 
           4190      3.68745e+7 
           4210      3.65887e+7 
           4230      3.62793e+7 
           4250      3.59741e+7 
           4270      3.56235e+7 
           4290      3.51713e+7 
           4310      3.41987e+7 
           4330      2.82493e+7 
           4350      2.46235e+7 
           4370      3.31477e+7 
           4390      3.37378e+7 
           4410      3.36571e+7 
           4430      3.34557e+7 
           4450      3.32545e+7 
           4470      3.29934e+7 
           4490      3.27282e+7 
           4510      3.24664e+7 
           4530       3.2206e+7 
           4550      3.19435e+7 
           4570      3.16916e+7 
           4590      3.14411e+7 
           4610      3.11919e+7 
           4630      3.09388e+7 
           4650      3.06924e+7 
           4670      3.04474e+7 
           4690      3.02036e+7 
           4710      2.99579e+7 
           4730      2.97219e+7 
           4750      2.94738e+7 
           4770      2.91758e+7 
           4790        2.889e+7 
           4810      2.85151e+7 
           4830      2.77385e+7 
           4850      2.37545e+7 
           4870      1.99636e+7 
           4890      2.67358e+7 
           4910      2.73451e+7 
           4930      2.73097e+7 
           4950      2.71602e+7 
           4970      2.70091e+7 
           4990      2.68082e+7 
           5010      2.65961e+7 
           5030       2.6391e+7 
           5050      2.61853e+7 
           5070       2.5982e+7 
           5090      2.57812e+7 
           5110      2.55812e+7 
           5130      2.53821e+7 
           5150      2.51854e+7 
           5170      2.49712e+7 
           5190      2.47889e+7 
           5210      2.46045e+7 
           5230      2.44139e+7 
           5250      2.42282e+7 
           5270      2.40393e+7 
           5290      2.38578e+7 
           5310      2.36744e+7 
           5330      2.34918e+7 
           5350      2.33139e+7 
           5370      2.31353e+7 
           5390        2.296e+7 
           5410      2.27841e+7 
           5430      2.26115e+7 
           5450      2.24395e+7 
           5470      2.22694e+7 
           5490      2.21012e+7 
           5510      2.19349e+7 
           5530      2.17691e+7 
           5550      2.16051e+7 
           5570       2.1443e+7 
           5590      2.12826e+7 
           5610      2.11227e+7 
           5630      2.09646e+7 
           5650      2.08082e+7 
           5670      2.06523e+7 
           5690       2.0498e+7 
           5710      2.03455e+7 
           5730      2.01945e+7 
           5750      2.00451e+7 
           5770      1.98962e+7 
           5790      1.97489e+7 
           5810      1.96031e+7 
           5830      1.94589e+7 
           5850      1.93162e+7 
           5870      1.91738e+7 
           5890      1.90308e+7 
           5910      1.88947e+7 
           5930      1.87567e+7 
           5950      1.86191e+7 
           5970       1.8484e+7 
           5990      1.83492e+7 
           6010      1.82169e+7 
           6030      1.80848e+7 
           6050      1.79542e+7 
           6070      1.78248e+7 
           6090      1.76967e+7 
           6110       1.7569e+7 
           6130      1.74425e+7 
           6150      1.73173e+7 
           6170      1.71933e+7 
           6190      1.70696e+7 
           6210      1.69481e+7 
           6230      1.68268e+7 
           6250      1.67068e+7 
           6270      1.65879e+7 
           6290      1.64702e+7 
           6310      1.63537e+7 
           6330      1.62383e+7 
           6350      1.61231e+7 
           6370       1.6009e+7 
           6390      1.58969e+7 
           6410       1.5785e+7 
           6430      1.56742e+7 
           6450      1.55627e+7 
           6470      1.54306e+7 
           6490      1.52901e+7 
           6510      1.51251e+7 
           6530      1.48206e+7 
           6550      1.35501e+7 
           6570      1.12378e+7 
           6590      1.42579e+7 
           6610      1.45537e+7 
           6630      1.45466e+7 
           6650      1.44788e+7 
           6670       1.4415e+7 
           6690      1.43163e+7 
           6710      1.42177e+7 
           6730      1.41208e+7 
           6750      1.40232e+7 
           6770      1.39273e+7 
           6790      1.38323e+7 
           6810      1.37382e+7 
           6830      1.36441e+7 
           6850      1.35517e+7 
           6870      1.34594e+7 
           6890      1.33679e+7 
           6910      1.32772e+7 
           6930      1.31873e+7 
           6950      1.30983e+7 
           6970        1.301e+7 
           6990      1.29226e+7 
           7010      1.28359e+7 
           7030        1.275e+7 
           7050      1.26641e+7 
           7070      1.25798e+7 
           7090      1.24954e+7 
           7110      1.24126e+7 
           7130      1.23297e+7 
           7150      1.22475e+7 
           7170      1.21661e+7 
           7190      1.20854e+7 
           7210      1.20054e+7 
           7230      1.19261e+7 
           7250      1.18475e+7 
           7270      1.17689e+7 
           7290      1.16916e+7 
           7310      1.16143e+7 
           7330      1.15384e+7 
           7350      1.14624e+7 
           7370      1.13878e+7 
           7390      1.13132e+7 
           7410      1.12392e+7 
           7430      1.11658e+7 
           7450       1.1093e+7 
           7470      1.10208e+7 
           7490      1.09493e+7 
           7510      1.08784e+7 
           7530      1.08074e+7 
           7550      1.07376e+7 
           7570      1.06685e+7 
           7590      1.05999e+7 
           7610      1.05313e+7 
           7630      1.04638e+7 
           7650      1.03963e+7 
           7670        1.033e+7 
           7690      1.02636e+7 
           7710      1.01984e+7 
           7730      1.01331e+7 
           7750      1.00683e+7 
           7770      1.00034e+7 
           7790      9.94094e+6 
           7810      9.87774e+6 
           7830      9.81505e+6 
           7850      9.75287e+6 
           7870       9.6912e+6 
           7890      9.63003e+6 
           7910      9.56935e+6 
           7930      9.50916e+6 
           7950      9.44945e+6 
           7970      9.39023e+6 
           7990      9.33088e+6 
           8010       9.2726e+6 
           8030      9.21479e+6 
           8050      9.15685e+6 
           8070      9.09995e+6 
           8090       9.0435e+6 
           8110      8.98692e+6 
           8130      8.93136e+6 
           8150      8.87567e+6 
           8170      8.82098e+6 
           8190      8.76615e+6 
           8210       8.7207e+6 
           8230      8.66947e+6 
           8250      8.61974e+6 
           8270      8.56983e+6 
           8290      8.51921e+6 
           8310      8.46625e+6 
           8330      8.41045e+6 
           8350      8.35724e+6 
           8370      8.28185e+6 
           8390      8.22636e+6 
           8410      8.15532e+6 
           8430      8.13788e+6 
           8450      8.09623e+6 
           8470      7.88055e+6 
           8490       8.1027e+6 
           8510      7.68856e+6 
           8530      8.08125e+6 
           8550      7.40704e+6 
           8570      8.08755e+6 
           8590      7.67927e+6 
