# Kurucz ODFNEW /NOVER (2003)
# teff = 8500 K (value for the effective temperature for the model. Temperatures are given in K)
# logg = 5 log(cm/s2) (value for Log(G) for the model.)
# meta = 0.5  (value for the Metallicity for the model.)
# lh = 1.25  (l/Hp where l is the  mixing length of the convective element and Hp is the pressure scale height)
# vtur = 2 km/s (Microturbulence velocity)
# alpha = 0.4  (Alpha)
#
# column 1: WAVELENGTH (ANGSTROM), Wavelength in Angstrom
# column 2: FLUX (ERG/CM2/S/A), Flux in erg/cm2/s/A
            318     7.06079e-23 
            328     8.90348e-22 
            338     8.94701e-21 
            348     7.82613e-20 
            357      4.9491e-19 
            366     2.84946e-18 
            375       1.504e-17 
            385     8.68848e-17 
            395     4.57774e-16 
            405     2.21492e-15 
            414     8.55464e-15 
            422     1.67561e-15 
            430      4.7355e-15 
            441     1.85055e-14 
            451     6.00041e-14 
            460     1.65024e-13 
            470     4.83592e-13 
            480     1.34993e-12 
            490     3.60223e-12 
            500     9.20214e-12 
            506     2.08408e-11 
            512     3.99602e-11 
            520     7.90937e-11 
            530      1.8119e-10 
            540     3.93628e-10 
            550     8.43662e-10 
            560      1.74237e-9 
            570      3.49562e-9 
            580      6.74081e-9 
            590      1.29945e-8 
            600      2.41431e-8 
            610       4.4024e-8 
            620      7.82556e-8 
            630      1.36369e-7 
            640      2.32798e-7 
            650      3.91183e-7 
            658      5.84362e-7 
            665      8.16806e-7 
            675      1.31658e-6 
            685      2.09165e-6 
            695      3.26381e-6 
            705      4.94324e-6 
            716      7.91663e-6 
            726       1.1832e-5 
            735      1.67937e-5 
            745      2.44225e-5 
            755      3.52167e-5 
            765      5.03201e-5 
            775      7.10462e-5 
            785      9.98091e-5 
            795     0.000135832 
            805      0.00018627 
            815     0.000256571 
            825     0.000346372 
            835     0.000462758 
            845     0.000613826 
            855     0.000807699 
            865      0.00105463 
            875      0.00135025 
            885      0.00175814 
            895      0.00224836 
            905      0.00282801 
            915        0.613089 
            925         1.84749 
            935         2.39812 
            945         3.12997 
            955         4.16374 
            965         5.34212 
            975          6.4842 
            985          8.1246 
            995         9.83581 
           1005         12.7029 
           1015         15.6656 
           1025         18.3057 
           1035         23.1543 
           1045         28.1457 
           1055          34.091 
           1065         40.6149 
           1075         49.3656 
           1085         59.4075 
           1095         69.8804 
           1105         184.686 
           1115         552.295 
           1125         773.596 
           1135         1059.54 
           1145         1304.42 
           1155         1415.45 
           1165         1891.75 
           1175          2237.2 
           1185         2338.62 
           1195         1396.28 
           1205         2123.89 
           1215         628.297 
           1225         2495.24 
           1235         4138.47 
           1245         7386.21 
           1255         13580.7 
           1265         11359.6 
           1275         16333.6 
           1285         20526.8 
           1295           23502 
           1305         18710.3 
           1315         26973.3 
           1325         30608.3 
           1335         33387.7 
           1345         38345.1 
           1355         39336.5 
           1365         42468.4 
           1375         45752.5 
           1385         48916.1 
           1395         54642.5 
           1405         59787.4 
           1415         62349.1 
           1425         68033.5 
           1435         68890.6 
           1442         77914.4 
           1447         81387.5 
           1455           88501 
           1465           90711 
           1475         97166.5 
           1485          105152 
           1495          115843 
           1505          125550 
           1512          127963 
           1517          136717 
           1525          153138 
           1535          231356 
           1545          369292 
           1555          399394 
           1565          388293 
           1575          556386 
           1585          691683 
           1595          832602 
           1605          906979 
           1615          902224 
           1625          786493 
           1635          990420 
           1645      1.60672e+6 
           1655          991454 
           1665      1.63277e+6 
           1672      1.06416e+6 
           1677      2.50793e+6 
           1685      4.21787e+6 
           1695      2.27531e+6 
           1705      4.27863e+6 
           1715      1.04614e+7 
           1725      1.18732e+7 
           1735      1.87725e+7 
           1745      1.81967e+7 
           1755      2.59073e+7 
           1765      1.24741e+7 
           1775       2.2836e+7 
           1785      2.49208e+7 
           1795      3.35476e+7 
           1805      2.35205e+7 
           1815      2.26777e+7 
           1825      2.12241e+7 
           1835      2.01845e+7 
           1845      1.52771e+7 
           1855      2.23014e+7 
           1865      2.92439e+7 
           1875      2.71251e+7 
           1885      2.84899e+7 
           1895      2.96608e+7 
           1905      2.59494e+7 
           1915      3.13045e+7 
           1925      2.88218e+7 
           1935      1.84107e+7 
           1945      3.24624e+7 
           1955      3.35023e+7 
           1967      3.79233e+7 
           1976      3.52341e+7 
           1984      3.19146e+7 
           1995      3.32731e+7 
           2005      2.96602e+7 
           2015      2.86633e+7 
           2025      2.64626e+7 
           2035      3.37646e+7 
           2045      3.63314e+7 
           2055      3.33863e+7 
           2065      3.37015e+7 
           2074      3.96157e+7 
           2078       4.4076e+7 
           2085      4.13514e+7 
           2095       3.7835e+7 
           2105      3.38595e+7 
           2115      3.49963e+7 
           2125       3.5819e+7 
           2135      2.87352e+7 
           2145      3.62046e+7 
           2155      3.59789e+7 
           2165      3.19019e+7 
           2175      3.16777e+7 
           2185      3.58697e+7 
           2195      3.82404e+7 
           2205       3.5005e+7 
           2215      2.94336e+7 
           2225      3.01003e+7 
           2235      3.67376e+7 
           2245      3.29592e+7 
           2255      2.89625e+7 
           2265      2.86478e+7 
           2275      3.16189e+7 
           2285      3.46611e+7 
           2295      2.97234e+7 
           2305      3.17464e+7 
           2315      3.05132e+7 
           2325       2.9385e+7 
           2335      2.45569e+7 
           2345      1.94105e+7 
           2355      2.87858e+7 
           2365      2.05155e+7 
           2375      2.43972e+7 
           2385      1.75456e+7 
           2395      2.10721e+7 
           2405       2.0636e+7 
           2415      2.11444e+7 
           2425      2.72619e+7 
           2435       2.5302e+7 
           2445      2.86251e+7 
           2455      2.86381e+7 
           2465      2.85469e+7 
           2475       2.5551e+7 
           2485      2.57637e+7 
           2495      2.41614e+7 
           2505      3.12345e+7 
           2513      2.25918e+7 
           2518       2.1211e+7 
           2525      1.92329e+7 
           2535      1.75385e+7 
           2545      1.50028e+7 
           2555      1.80591e+7 
           2565       1.9847e+7 
           2575      2.68958e+7 
           2585      2.82115e+7 
           2595      2.76834e+7 
           2605      2.50408e+7 
           2615      2.35423e+7 
           2625      3.03111e+7 
           2635      3.13425e+7 
           2645      3.86787e+7 
           2655      4.14102e+7 
           2665      3.15754e+7 
           2675      3.62745e+7 
           2685      3.62932e+7 
           2695      3.23069e+7 
           2705      3.53631e+7 
           2715      3.11949e+7 
           2725      3.18856e+7 
           2735      3.48822e+7 
           2745      2.45741e+7 
           2755      2.64936e+7 
           2765      2.84724e+7 
           2775      3.12352e+7 
           2785      2.21577e+7 
           2795      9.11295e+6 
           2805      1.19822e+7 
           2815       3.0032e+7 
           2825      3.76214e+7 
           2835      3.65929e+7 
           2845      3.40601e+7 
           2855      2.79646e+7 
           2865      3.72497e+7 
           2875      3.65726e+7 
           2885      3.59248e+7 
           2895      3.47169e+7 
           2910      4.15501e+7 
           2930      3.79928e+7 
           2950      3.84829e+7 
           2970       4.1105e+7 
           2990      4.06872e+7 
           3010      4.16934e+7 
           3030      4.14116e+7 
           3050      4.10444e+7 
           3070      4.14067e+7 
           3090      4.21232e+7 
           3110      4.05782e+7 
           3130      4.05651e+7 
           3150      4.14488e+7 
           3170      4.07775e+7 
           3190      3.74875e+7 
           3210      3.94275e+7 
           3230      3.66983e+7 
           3250      3.91228e+7 
           3270      4.05447e+7 
           3290      4.04709e+7 
           3310      4.13759e+7 
           3330      4.01432e+7 
           3350       3.9202e+7 
           3370      3.85424e+7 
           3390      3.91117e+7 
           3410      3.92277e+7 
           3430      3.92871e+7 
           3450      3.90798e+7 
           3470      3.85462e+7 
           3490      3.85449e+7 
           3510      3.93361e+7 
           3530      3.87223e+7 
           3550      4.02512e+7 
           3570      3.76555e+7 
           3590        3.724e+7 
           3610      3.74674e+7 
           3630      3.74674e+7 
           3640       3.6696e+7 
           3650      3.91985e+7 
           3670      3.87725e+7 
           3690      3.76865e+7 
           3710      3.69419e+7 
           3730      3.43427e+7 
           3750      3.78189e+7 
           3770      3.96903e+7 
           3790      4.74056e+7 
           3810      5.45885e+7 
           3830      4.27326e+7 
           3850      5.99412e+7 
           3870      6.77977e+7 
           3890      4.03241e+7 
           3910      6.68488e+7 
           3930      5.01691e+7 
           3950       6.4181e+7 
           3970      3.56916e+7 
           3990      6.74086e+7 
           4010      8.07714e+7 
           4030      8.17114e+7 
           4050      8.02082e+7 
           4070      7.52235e+7 
           4090      5.75946e+7 
           4110      4.45262e+7 
           4130      7.10704e+7 
           4150      7.89311e+7 
           4170      7.92547e+7 
           4190      7.91973e+7 
           4210      7.94817e+7 
           4230      7.61232e+7 
           4250       7.7417e+7 
           4270      7.24846e+7 
           4290      7.27888e+7 
           4310      6.42866e+7 
           4330      4.90038e+7 
           4350      4.18071e+7 
           4370      6.57174e+7 
           4390      6.91527e+7 
           4410      6.95071e+7 
           4430      6.70495e+7 
           4450      6.96576e+7 
           4470       7.0265e+7 
           4490      6.80688e+7 
           4510       7.1706e+7 
           4530      6.79534e+7 
           4550      6.75265e+7 
           4570      6.97111e+7 
           4590      6.66801e+7 
           4610      6.80652e+7 
           4630      6.58107e+7 
           4650      6.62302e+7 
           4670      6.63067e+7 
           4690      6.25413e+7 
           4710      5.87304e+7 
           4730       6.3416e+7 
           4750       6.2975e+7 
           4770      6.17592e+7 
           4790      6.06091e+7 
           4810      5.79795e+7 
           4830      5.42787e+7 
           4850      4.05085e+7 
           4870      3.24964e+7 
           4890      5.01269e+7 
           4910      5.46121e+7 
           4930      5.48845e+7 
           4950      5.64452e+7 
           4970      5.69497e+7 
           4990      5.44122e+7 
           5010      5.19539e+7 
           5030      5.36128e+7 
           5050      5.25035e+7 
           5070      5.39851e+7 
           5090      5.32128e+7 
           5110      5.32991e+7 
           5130       5.1961e+7 
           5150      5.05327e+7 
           5170      4.91009e+7 
           5190       4.8312e+7 
           5210      4.92714e+7 
           5230      4.88085e+7 
           5250      4.92246e+7 
           5270      4.43455e+7 
           5290      4.81357e+7 
           5310      4.75319e+7 
           5330      4.36909e+7 
           5350       4.6425e+7 
           5370      4.63999e+7 
           5390      4.57826e+7 
           5410      4.37135e+7 
           5430      4.48205e+7 
           5450      4.52151e+7 
           5470      4.45351e+7 
           5490      4.35137e+7 
           5510      4.35707e+7 
           5530      4.31711e+7 
           5550      4.32201e+7 
           5570      4.24258e+7 
           5590      4.17213e+7 
           5610      4.18337e+7 
           5630      4.19221e+7 
           5650      4.12505e+7 
           5670      4.01444e+7 
           5690      4.03352e+7 
           5710      3.98786e+7 
           5730      4.05783e+7 
           5750      3.93041e+7 
           5770      3.93942e+7 
           5790      3.88854e+7 
           5810      3.87587e+7 
           5830      3.85686e+7 
           5850      3.79905e+7 
           5870      3.76752e+7 
           5890      3.66955e+7 
           5910       3.7057e+7 
           5930       3.6711e+7 
           5950      3.62571e+7 
           5970      3.60939e+7 
           5990      3.55404e+7 
           6010      3.48912e+7 
           6030      3.46166e+7 
           6050      3.45044e+7 
           6070      3.46537e+7 
           6090      3.40933e+7 
           6110      3.35849e+7 
           6130      3.27615e+7 
           6150      3.16812e+7 
           6170      3.17196e+7 
           6190      3.27155e+7 
           6210      3.23527e+7 
           6230      3.18182e+7 
           6250      3.07141e+7 
           6270      3.16703e+7 
           6290      3.14388e+7 
           6310      3.06797e+7 
           6330      3.04476e+7 
           6350      2.94965e+7 
           6370      2.95697e+7 
           6390      2.98296e+7 
           6410      2.90835e+7 
           6430      2.91817e+7 
           6450      2.80619e+7 
           6470      2.82928e+7 
           6490      2.76751e+7 
           6510      2.72075e+7 
           6530      2.56593e+7 
           6550      2.15039e+7 
           6570       1.7245e+7 
           6590      2.38617e+7 
           6610      2.58507e+7 
           6630      2.63498e+7 
           6650      2.64335e+7 
           6670      2.62472e+7 
           6690      2.62353e+7 
           6710      2.60273e+7 
           6730      2.57722e+7 
           6750      2.51037e+7 
           6770      2.54907e+7 
           6790      2.52337e+7 
           6810      2.50191e+7 
           6830      2.48009e+7 
           6850      2.45495e+7 
           6870      2.44914e+7 
           6890      2.42653e+7 
           6910      2.40572e+7 
           6930      2.38181e+7 
           6950      2.36773e+7 
           6970      2.34222e+7 
           6990      2.33347e+7 
           7010      2.24259e+7 
           7030      2.28229e+7 
           7050      2.26951e+7 
           7070      2.25164e+7 
           7090      2.23783e+7 
           7110      2.16042e+7 
           7130      2.18144e+7 
           7150      2.16019e+7 
           7170      2.13482e+7 
           7190      2.11604e+7 
           7210       2.1183e+7 
           7230       2.0942e+7 
           7250      2.05615e+7 
           7270       2.0755e+7 
           7290      2.03187e+7 
           7310      2.04157e+7 
           7330      2.02224e+7 
           7350      2.01717e+7 
           7370      2.00028e+7 
           7390      1.96656e+7 
           7410      1.93654e+7 
           7430       1.9075e+7 
           7450      1.90542e+7 
           7470      1.89152e+7 
           7490      1.88808e+7 
           7510      1.88692e+7 
           7530      1.87525e+7 
           7550      1.86717e+7 
           7570      1.84398e+7 
           7590      1.83708e+7 
           7610      1.81664e+7 
           7630      1.81172e+7 
           7650      1.78611e+7 
           7670      1.75368e+7 
           7690      1.73623e+7 
           7710      1.74941e+7 
           7730      1.73691e+7 
           7750      1.71453e+7 
           7770      1.64843e+7 
           7790      1.70734e+7 
           7810      1.68143e+7 
           7830      1.66388e+7 
           7850      1.64117e+7 
           7870      1.63071e+7 
           7890      1.60593e+7 
           7910      1.59957e+7 
           7930      1.56168e+7 
           7950      1.55794e+7 
           7970      1.58868e+7 
           7990      1.54474e+7 
           8010      1.56158e+7 
           8030      1.53932e+7 
           8050      1.53186e+7 
           8070      1.52335e+7 
           8090      1.51249e+7 
           8110      1.50452e+7 
           8130      1.50197e+7 
           8150      1.49007e+7 
           8170      1.47884e+7 
           8190      1.43405e+7 
           8210       1.4117e+7 
           8230      1.40679e+7 
           8250      1.40612e+7 
           8270      1.43122e+7 
           8290      1.41665e+7 
           8310      1.39222e+7 
           8330      1.37887e+7 
           8350      1.37773e+7 
           8370      1.38363e+7 
           8390      1.36783e+7 
           8410      1.36309e+7 
           8430       1.3438e+7 
           8450      1.30115e+7 
           8470      1.32489e+7 
           8490      1.30172e+7 
           8510       1.2489e+7 
           8530      1.27893e+7 
           8550      1.11634e+7 
           8570      1.28733e+7 
           8590      1.24285e+7 
           8610      1.22849e+7 
           8630      1.26256e+7 
           8650      1.21992e+7 
           8670      1.03643e+7 
           8690      1.18692e+7 
           8710      1.24514e+7 
           8730      1.19164e+7 
           8750      1.03592e+7 
           8770      1.15963e+7 
           8790       1.2276e+7 
           8810      1.22912e+7 
           8830      1.18021e+7 
           8850      1.06743e+7 
           8870      9.46218e+6 
           8890      1.12787e+7 
           8910      1.18422e+7 
           8930      1.18832e+7 
           8950      1.21015e+7 
           8970      1.17091e+7 
           8990      1.10199e+7 
           9010       8.9639e+6 
           9030      9.64821e+6 
           9050      1.10601e+7 
           9070      1.12133e+7 
           9090      1.11344e+7 
           9110      1.14677e+7 
           9130      1.15784e+7 
           9150      1.15364e+7 
           9170      1.12505e+7 
           9190      1.07671e+7 
           9210      9.72645e+6 
           9230      7.75057e+6 
           9250      9.26606e+6 
           9270      1.00332e+7 
           9290      1.08164e+7 
           9310      1.09573e+7 
           9330      1.09069e+7 
           9350      1.09568e+7 
