# Kurucz ODFNEW /NOVER (2003)
# teff = 8000 K (value for the effective temperature for the model. Temperatures are given in K)
# logg = 4 log(cm/s2) (value for Log(G) for the model.)
# meta = 0.2  (value for the Metallicity for the model.)
# lh = 1.25  (l/Hp where l is the  mixing length of the convective element and Hp is the pressure scale height)
# vtur = 2 km/s (Microturbulence velocity)
# alpha = 0  (Alpha)
#
# column 1: WAVELENGTH (ANGSTROM), Wavelength in Angstrom
# column 2: FLUX (ERG/CM2/S/A), Flux in erg/cm2/s/A
            328     4.64223e-25 
            338     4.85075e-24 
            348     4.40022e-23 
            357     2.86124e-22 
            366     1.69097e-21 
            375     9.12161e-21 
            385      5.3821e-20 
            395     2.88466e-19 
            405     1.41599e-18 
            414     5.52996e-18 
            422     1.76131e-17 
            430     5.35734e-17 
            441     2.30534e-16 
            451     8.12724e-16 
            460     2.40245e-15 
            470       7.604e-15 
            480     2.28507e-14 
            490     6.54436e-14 
            500     1.78931e-13 
            506     4.24261e-13 
            512     8.43899e-13 
            520     1.75561e-12 
            530     4.27063e-12 
            540     9.84199e-12 
            550     2.22887e-11 
            560      4.8558e-11 
            570      1.0261e-10 
            580     2.08175e-10 
            590     4.21047e-10 
            600     8.20088e-10 
            610      1.56159e-9 
            620      2.90152e-9 
            630      5.27564e-9 
            640      9.39432e-9 
            650      1.64156e-8 
            658      2.52978e-8 
            665      3.65131e-8 
            675      6.09688e-8 
            685      1.00095e-7 
            695      1.61689e-7 
            705      2.55723e-7 
            716      4.20883e-7 
            726      6.49368e-7 
            735      9.48335e-7 
            745      1.42608e-6 
            755      2.11984e-6 
            765      3.11484e-6 
            775       4.5247e-6 
            785      6.50905e-6 
            795      9.15082e-6 
            805      1.29513e-5 
            815      1.81376e-5 
            825      2.50577e-5 
            835      3.43043e-5 
            845      4.65667e-5 
            855      6.26813e-5 
            865      8.36964e-5 
            875     0.000110412 
            885     0.000145776 
            895     0.000190358 
            905     0.000245391 
            915        0.108241 
            925        0.316292 
            935         0.41352 
            945         0.54774 
            955        0.744144 
            965        0.962795 
            975         1.20003 
            985         1.53538 
            995         1.87983 
           1005          2.4724 
           1015         3.09385 
           1025         3.70266 
           1035         4.72694 
           1045         5.84987 
           1055         7.19053 
           1065         8.68265 
           1075         10.6884 
           1085         13.0339 
           1095         15.5596 
           1105          41.461 
           1115         125.689 
           1125         180.434 
           1135         251.435 
           1145         314.366 
           1155         346.138 
           1165         467.794 
           1175         553.187 
           1185         586.037 
           1195         360.868 
           1205         383.598 
           1215         109.214 
           1225         444.958 
           1235         926.716 
           1245            2017 
           1255         4680.46 
           1265         4364.74 
           1275         6645.04 
           1285         9058.98 
           1295         10798.3 
           1305         9024.12 
           1315           13135 
           1325         15275.8 
           1335         16676.7 
           1345           20163 
           1355           20609 
           1365         22552.5 
           1375         24415.6 
           1385         26173.5 
           1395         29791.4 
           1405           33056 
           1415         34024.1 
           1425         37913.7 
           1435         38292.7 
           1442         44108.9 
           1447           46777 
           1455           51777 
           1465         52357.4 
           1475         57204.9 
           1485         62920.2 
           1495         70269.8 
           1505           76832 
           1512         77593.8 
           1517         83876.8 
           1525         95443.2 
           1535          148879 
           1545          264181 
           1555          275486 
           1565          258164 
           1575          402057 
           1585          523670 
           1595          620694 
           1605          632390 
           1615          701367 
           1625          687426 
           1635      1.01124e+6 
           1645      1.99069e+6 
           1655          974646 
           1665      2.12172e+6 
           1672      1.00209e+6 
           1677      3.33967e+6 
           1685      5.20573e+6 
           1695      3.93366e+6 
           1705      5.55616e+6 
           1715      9.28482e+6 
           1725      9.98218e+6 
           1735      1.31658e+7 
           1745      1.20995e+7 
           1755      1.58298e+7 
           1765      9.81119e+6 
           1775      1.44504e+7 
           1785      1.40217e+7 
           1795      1.92947e+7 
           1805      1.51234e+7 
           1815      1.66326e+7 
           1825      1.43526e+7 
           1835      1.32635e+7 
           1845      1.13007e+7 
           1855      1.39502e+7 
           1865      1.68629e+7 
           1875      1.56634e+7 
           1885      1.63691e+7 
           1895      1.80453e+7 
           1905      1.61954e+7 
           1915      1.77043e+7 
           1925      1.64971e+7 
           1935      1.03574e+7 
           1945      1.88274e+7 
           1955      1.93706e+7 
           1967       2.1872e+7 
           1976      2.11889e+7 
           1984       1.9889e+7 
           1995      1.97621e+7 
           2005      1.80107e+7 
           2015      1.72729e+7 
           2025      1.60288e+7 
           2035      1.91538e+7 
           2045      2.11956e+7 
           2055      1.96767e+7 
           2065      1.87454e+7 
           2074       2.2688e+7 
           2078      2.49921e+7 
           2085      2.36096e+7 
           2095      2.16105e+7 
           2105       1.9775e+7 
           2115       2.0738e+7 
           2125       2.1491e+7 
           2135      1.66305e+7 
           2145      2.06705e+7 
           2155      2.08539e+7 
           2165      1.88074e+7 
           2175      1.87607e+7 
           2185      2.02954e+7 
           2195      2.21384e+7 
           2205      2.07828e+7 
           2215      1.75379e+7 
           2225      1.72071e+7 
           2235      2.13501e+7 
           2245       1.9101e+7 
           2255      1.67175e+7 
           2265      1.68926e+7 
           2275      1.88262e+7 
           2285       2.0296e+7 
           2295      1.78035e+7 
           2305      1.89676e+7 
           2315      1.78382e+7 
           2325      1.72153e+7 
           2335      1.37799e+7 
           2345      1.06181e+7 
           2355      1.66314e+7 
           2365      1.11068e+7 
           2375      1.39768e+7 
           2385      9.11122e+6 
           2395      1.14076e+7 
           2405      1.10973e+7 
           2415      1.19991e+7 
           2425      1.63482e+7 
           2435      1.56652e+7 
           2445      1.74355e+7 
           2455      1.73756e+7 
           2465      1.70905e+7 
           2475      1.54871e+7 
           2485      1.55963e+7 
           2495      1.46606e+7 
           2505      1.93521e+7 
           2513      1.47508e+7 
           2518      1.50589e+7 
           2525       1.2908e+7 
           2535      1.17077e+7 
           2545       1.1353e+7 
           2555      1.41233e+7 
           2565       1.3348e+7 
           2575      1.60643e+7 
           2585      1.60209e+7 
           2595      1.52509e+7 
           2605      1.38539e+7 
           2615      1.27973e+7 
           2625      1.65391e+7 
           2635      1.79569e+7 
           2645      2.29279e+7 
           2655      2.40862e+7 
           2665      1.89085e+7 
           2675      2.13367e+7 
           2685      2.10437e+7 
           2695      1.90589e+7 
           2705      2.06868e+7 
           2715      1.82027e+7 
           2725      1.85919e+7 
           2735      2.06258e+7 
           2745      1.36782e+7 
           2755      1.54191e+7 
           2765      1.70196e+7 
           2775      2.02004e+7 
           2785      1.70587e+7 
           2795      7.17867e+6 
           2805      9.47327e+6 
           2815      2.06225e+7 
           2825      2.36806e+7 
           2835      2.21635e+7 
           2845      2.08858e+7 
           2855      1.83631e+7 
           2865      2.23929e+7 
           2875      2.18136e+7 
           2885      2.20039e+7 
           2895      2.06344e+7 
           2910      2.49743e+7 
           2930      2.32842e+7 
           2950      2.30609e+7 
           2970      2.45635e+7 
           2990      2.46515e+7 
           3010      2.54069e+7 
           3030      2.50271e+7 
           3050      2.49883e+7 
           3070      2.54152e+7 
           3090        2.602e+7 
           3110      2.50617e+7 
           3130      2.48443e+7 
           3150      2.58219e+7 
           3170      2.56433e+7 
           3190      2.37131e+7 
           3210      2.47716e+7 
           3230      2.32727e+7 
           3250      2.46471e+7 
           3270      2.54736e+7 
           3290      2.55258e+7 
           3310      2.61363e+7 
           3330      2.54781e+7 
           3350      2.51433e+7 
           3370       2.4642e+7 
           3390      2.49425e+7 
           3410      2.50574e+7 
           3430      2.52355e+7 
           3450      2.51466e+7 
           3470      2.47866e+7 
           3490      2.47622e+7 
           3510      2.53746e+7 
           3530      2.51154e+7 
           3550        2.608e+7 
           3570      2.45481e+7 
           3590      2.43563e+7 
           3610      2.45072e+7 
           3630      2.47348e+7 
           3640      2.43559e+7 
           3650      2.57581e+7 
           3670      2.54382e+7 
           3690      2.43876e+7 
           3710      2.52298e+7 
           3730      2.54763e+7 
           3750      3.11698e+7 
           3770      3.35329e+7 
           3790      4.08016e+7 
           3810      4.73815e+7 
           3830      3.75242e+7 
           3850      5.22224e+7 
           3870      5.86139e+7 
           3890      3.50611e+7 
           3910      5.79654e+7 
           3930       4.7969e+7 
           3950      5.69809e+7 
           3970      3.15923e+7 
           3990      5.76733e+7 
           4010      6.53556e+7 
           4030      6.54276e+7 
           4050      6.44844e+7 
           4070       6.1371e+7 
           4090      4.94038e+7 
           4110      3.82704e+7 
           4130      5.88322e+7 
           4150      6.31138e+7 
           4170      6.29323e+7 
           4190      6.24166e+7 
           4210      6.23585e+7 
           4230      6.03891e+7 
           4250      6.09295e+7 
           4270      5.80459e+7 
           4290      5.85622e+7 
           4310      5.31446e+7 
           4330      4.21841e+7 
           4350      3.61011e+7 
           4370      5.43821e+7 
           4390      5.60439e+7 
           4410      5.54011e+7 
           4430      5.45603e+7 
           4450      5.56195e+7 
           4470      5.54491e+7 
           4490      5.47058e+7 
           4510      5.64425e+7 
           4530      5.38633e+7 
           4550       5.3167e+7 
           4570      5.48799e+7 
           4590      5.25734e+7 
           4610      5.35665e+7 
           4630      5.19501e+7 
           4650      5.22813e+7 
           4670      5.22162e+7 
           4690      4.99683e+7 
           4710      4.79621e+7 
           4730      5.03509e+7 
           4750      5.01866e+7 
           4770      4.92385e+7 
           4790      4.86492e+7 
           4810      4.73613e+7 
           4830       4.5024e+7 
           4850       3.5036e+7 
           4870      2.81043e+7 
           4890      4.20337e+7 
           4910      4.45001e+7 
           4930       4.4101e+7 
           4950      4.50615e+7 
           4970      4.53004e+7 
           4990      4.34251e+7 
           5010      4.18708e+7 
           5030      4.30633e+7 
           5050      4.22058e+7 
           5070       4.3002e+7 
           5090      4.22823e+7 
           5110      4.22405e+7 
           5130      4.12891e+7 
           5150      4.02759e+7 
           5170      3.95279e+7 
           5190      3.90728e+7 
           5210      3.92106e+7 
           5230      3.88741e+7 
           5250      3.94314e+7 
           5270      3.67181e+7 
           5290      3.84455e+7 
           5310      3.79173e+7 
           5330      3.63443e+7 
           5350      3.74735e+7 
           5370      3.70512e+7 
           5390      3.66393e+7 
           5410      3.57253e+7 
           5430      3.59763e+7 
           5450      3.61237e+7 
           5470      3.56057e+7 
           5490      3.53567e+7 
           5510      3.51067e+7 
           5530      3.47202e+7 
           5550      3.46636e+7 
           5570      3.40788e+7 
           5590       3.3675e+7 
           5610      3.36293e+7 
           5630      3.35714e+7 
           5650      3.31571e+7 
           5670      3.25826e+7 
           5690      3.25809e+7 
           5710      3.22583e+7 
           5730      3.24994e+7 
           5750       3.1868e+7 
           5770      3.17256e+7 
           5790      3.13483e+7 
           5810      3.11775e+7 
           5830      3.10017e+7 
           5850      3.05919e+7 
           5870      3.03652e+7 
           5890      2.96229e+7 
           5910      2.98412e+7 
           5930      2.95835e+7 
           5950      2.93243e+7 
           5970      2.91186e+7 
           5990      2.87324e+7 
           6010      2.82849e+7 
           6030      2.82022e+7 
           6050       2.8048e+7 
           6070      2.79544e+7 
           6090      2.75934e+7 
           6110      2.72455e+7 
           6130      2.67151e+7 
           6150      2.62329e+7 
           6170      2.61511e+7 
           6190      2.64691e+7 
           6210      2.62696e+7 
           6230      2.58585e+7 
           6250      2.51253e+7 
           6270      2.56485e+7 
           6290      2.54475e+7 
           6310      2.49468e+7 
           6330      2.48458e+7 
           6350      2.44401e+7 
           6370      2.43045e+7 
           6390       2.4268e+7 
           6410      2.38215e+7 
           6430      2.37738e+7 
           6450      2.32671e+7 
           6470      2.32845e+7 
           6490      2.27978e+7 
           6510      2.26135e+7 
           6530      2.18249e+7 
           6550      1.88363e+7 
           6570      1.50657e+7 
           6590      2.05011e+7 
           6610      2.16206e+7 
           6630       2.1798e+7 
           6650      2.17301e+7 
           6670      2.15357e+7 
           6690      2.14963e+7 
           6710      2.13182e+7 
           6730      2.11684e+7 
           6750      2.08554e+7 
           6770      2.08943e+7 
           6790      2.07019e+7 
           6810      2.05358e+7 
           6830      2.03269e+7 
           6850      2.01522e+7 
           6870      2.00662e+7 
           6890      1.99165e+7 
           6910      1.97469e+7 
           6930      1.95735e+7 
           6950      1.94345e+7 
           6970      1.92634e+7 
           6990       1.9151e+7 
           7010      1.87851e+7 
           7030      1.87683e+7 
           7050      1.86695e+7 
           7070      1.85407e+7 
           7090       1.8401e+7 
           7110      1.78632e+7 
           7130       1.7975e+7 
           7150      1.78739e+7 
           7170      1.77237e+7 
           7190      1.75451e+7 
           7210      1.74798e+7 
           7230      1.73335e+7 
           7250      1.71577e+7 
           7270      1.71419e+7 
           7290      1.68799e+7 
           7310      1.68187e+7 
           7330      1.67004e+7 
           7350      1.66354e+7 
           7370      1.65252e+7 
           7390      1.62965e+7 
           7410      1.60824e+7 
           7430      1.59338e+7 
           7450      1.58844e+7 
           7470      1.56928e+7 
           7490      1.56447e+7 
           7510      1.55968e+7 
           7530      1.55081e+7 
           7550      1.54598e+7 
           7570      1.53059e+7 
           7590      1.52155e+7 
           7610      1.50914e+7 
           7630      1.49936e+7 
           7650      1.48471e+7 
           7670      1.46346e+7 
           7690      1.45835e+7 
           7710       1.4487e+7 
           7730      1.44405e+7 
           7750      1.42883e+7 
           7770       1.3919e+7 
           7790      1.41624e+7 
           7810      1.40307e+7 
           7830      1.38522e+7 
           7850      1.37059e+7 
           7870       1.3643e+7 
           7890       1.3514e+7 
           7910      1.34042e+7 
           7930      1.32708e+7 
           7950      1.31725e+7 
           7970      1.32559e+7 
           7990      1.30197e+7 
           8010      1.30205e+7 
           8030      1.28944e+7 
           8050      1.28356e+7 
           8070      1.27432e+7 
           8090      1.26376e+7 
           8110      1.26046e+7 
           8130      1.25358e+7 
           8150      1.24415e+7 
           8170      1.23547e+7 
           8190      1.20512e+7 
           8210      1.20054e+7 
           8230      1.19243e+7 
           8250      1.18804e+7 
           8270      1.19613e+7 
           8290      1.18614e+7 
           8310       1.1745e+7 
           8330      1.15578e+7 
           8350      1.16078e+7 
           8370      1.15605e+7 
           8390      1.14241e+7 
           8410      1.13789e+7 
           8430      1.12582e+7 
           8450      1.10145e+7 
           8470      1.09777e+7 
           8490       1.1039e+7 
           8510      1.04467e+7 
           8530      1.09466e+7 
           8550      9.60241e+6 
           8570          1.1e+7 
           8590      1.03393e+7 
           8610      1.01033e+7 
           8630      1.09265e+7 
           8650      1.05327e+7 
           8670      8.70595e+6 
           8690      1.04454e+7 
           8710       1.0908e+7 
           8730      1.04982e+7 
           8750      8.53321e+6 
           8770      1.00794e+7 
           8790       1.0782e+7 
           8810      1.08088e+7 
           8830      1.04285e+7 
           8850      9.44968e+6 
           8870      8.12385e+6 
           8890       1.0046e+7 
           8910      1.04783e+7 
           8930      1.05127e+7 
           8950      1.05782e+7 
           8970      1.03382e+7 
           8990      9.84427e+6 
           9010      7.92115e+6 
           9030      8.68168e+6 
           9050       9.8471e+6 
           9070      9.87058e+6 
           9090      9.76656e+6 
           9110      1.00092e+7 
           9130      1.00563e+7 
           9150       1.0025e+7 
           9170      9.84688e+6 
           9190      9.54446e+6 
           9210      8.81376e+6 
           9230      6.97494e+6 
           9250      8.46075e+6 
           9270       9.0569e+6 
           9290      9.47672e+6 
           9310      9.52471e+6 
           9330      9.47829e+6 
           9350      9.45934e+6 
           9370        9.422e+6 
