# Kurucz ODFNEW /NOVER (2003)
# teff = 5750 K (value for the effective temperature for the model. Temperatures are given in K)
# logg = 1 log(cm/s2) (value for Log(G) for the model.)
# meta = -4  (value for the Metallicity for the model.)
# lh = 1.25  (l/Hp where l is the  mixing length of the convective element and Hp is the pressure scale height)
# vtur = 2 km/s (Microturbulence velocity)
# alpha = 0.4  (Alpha)
#
# column 1: WAVELENGTH (ANGSTROM), Wavelength in Angstrom
# column 2: FLUX (ERG/CM2/S/A), Flux in erg/cm2/s/A
          147.2     1.73866e-35 
            151     1.65225e-35 
          155.2     1.56403e-35 
          158.8     1.49392e-35 
            162     1.43549e-35 
            166     1.36714e-35 
          170.3     1.29897e-35 
          173.4     1.25294e-35 
          176.8     1.20522e-35 
          180.2     1.16017e-35 
          181.7     1.14109e-35 
          186.1     1.08777e-35 
            191     1.03267e-35 
          193.9     1.00201e-35 
          198.4     9.57076e-36 
          201.8     9.25097e-36 
            205     8.96441e-36 
          210.5     8.50208e-36 
          216.2     8.05969e-36 
          219.8     7.79784e-36 
            223     7.57565e-36 
          226.8     7.32392e-36 
            230     7.12154e-36 
            234     6.88015e-36 
            240     6.54044e-36 
          246.5     6.20006e-36 
          252.4     5.91358e-36 
          256.8     5.71267e-36 
            260     5.57292e-36 
            264     5.40532e-36 
          268.5     5.22566e-36 
          273.5     5.03634e-36 
          278.5     4.85712e-36 
            284     4.67082e-36 
            290     4.47954e-36 
            296     4.29978e-36 
            301     4.15812e-36 
            308     3.97126e-36 
            318     3.11665e-49 
            328     8.40239e-48 
            338     3.29759e-36 
            348     1.17492e-45 
            357     2.95592e-36 
            366     3.43105e-43 
            375     1.25172e-42 
            385     2.54161e-36 
            395     2.41455e-36 
            405     1.77266e-39 
            414     2.19801e-36 
            422     2.11546e-36 
            430     2.03748e-36 
            441      1.9371e-36 
            451       2.265e-36 
            460     1.78038e-36 
            470     1.70543e-36 
            480     1.63511e-36 
            490     7.94882e-34 
            500     2.43789e-35 
            506     1.47139e-36 
            512     3.17903e-32 
            520     1.39323e-36 
            530        1.08e-31 
            540     1.29194e-36 
            550     1.24539e-36 
            560     1.37105e-30 
            570     1.15952e-36 
            580      6.1232e-30 
            590     3.30745e-29 
            600     5.90011e-29 
            610     1.01244e-36 
            620     9.80045e-37 
            630      1.5464e-27 
            640      9.1975e-37 
            650     8.91667e-37 
            658     8.70117e-37 
            665     8.51895e-37 
            675     8.26841e-37 
            685     6.65183e-26 
            695     1.24197e-25 
            705     7.57969e-37 
            716     3.18076e-25 
            726     7.14754e-37 
            735     1.14304e-24 
            745     6.78761e-37 
            755       6.609e-37 
            765     6.43734e-37 
            775     2.41414e-24 
            785      7.4438e-26 
            795     1.68478e-23 
            805     1.58842e-23 
            815     5.67171e-37 
            825     2.78313e-23 
            835     8.90783e-25 
            845     1.01196e-22 
            855     1.59458e-24 
            865     3.02003e-24 
            875     5.15624e-22 
            885     6.51944e-22 
            895     4.70309e-37 
            905     5.87248e-22 
            915     0.000548788 
            925      0.00238747 
            935      0.00293907 
            945      0.00489228 
            955      0.00812135 
            965      0.00724311 
            975      0.00531553 
            985       0.0213156 
            995       0.0261211 
           1005       0.0256263 
           1015       0.0180323 
           1025       0.0444563 
           1035       0.0378866 
           1045       0.0870908 
           1055        0.141265 
           1065        0.209106 
           1075        0.270971 
           1085        0.341552 
           1095        0.393688 
           1105        0.375364 
           1115        0.360116 
           1125        0.343056 
           1135        0.335137 
           1145        0.327901 
           1155        0.325693 
           1165        0.318654 
           1175        0.290878 
           1185         2.11396 
           1195        0.738936 
           1205        0.725192 
           1215        0.737879 
           1225         1.03168 
           1235         1.50109 
           1245        0.669012 
           1255        0.993187 
           1265         1.42916 
           1275         1.93402 
           1285         2.55575 
           1295         3.26764 
           1305         3.99664 
           1315         5.06329 
           1325         6.13303 
           1335         7.57908 
           1345         9.55284 
           1355         11.7098 
           1365         14.3941 
           1375         17.5777 
           1385         21.4011 
           1395         26.0571 
           1405          31.512 
           1415         38.0206 
           1425          45.509 
           1435         54.3207 
           1442          62.192 
           1447         67.7905 
           1455         77.7278 
           1465         91.8309 
           1475         108.356 
           1485         127.084 
           1495         151.012 
           1505         176.238 
           1512         196.642 
           1517         207.167 
           1525         227.532 
           1535         281.465 
           1545         348.301 
           1555         429.853 
           1565         519.528 
           1575         661.419 
           1585         759.285 
           1595         858.295 
           1605         958.033 
           1615         1039.01 
           1625         1115.97 
           1635         1204.77 
           1645         1274.44 
           1655         1358.28 
           1665         1463.17 
           1672         1568.19 
           1677         1672.31 
           1685         1947.98 
           1695         2801.78 
           1705         4383.99 
           1715         7387.87 
           1725         11265.1 
           1735         16332.1 
           1745         20099.5 
           1755         25939.1 
           1765         27826.4 
           1775         34130.9 
           1785         40517.4 
           1795         49891.1 
           1805         52265.3 
           1815           58436 
           1825         59163.7 
           1835         68775.7 
           1845         69551.7 
           1855         78196.2 
           1865         86272.8 
           1875           92584 
           1885          100947 
           1895          109325 
           1905          111783 
           1915          125463 
           1925          138904 
           1935          142503 
           1945          158349 
           1955          166955 
           1967          184125 
           1976          188665 
           1984          198373 
           1995          213315 
           2005          220704 
           2015          233884 
           2025          237285 
           2035          266380 
           2045          283077 
           2055          289865 
           2065          304955 
           2074          334071 
           2078          338273 
           2085          345686 
           2095          357286 
           2105          371584 
           2115          392754 
           2125          408705 
           2135          407795 
           2145          440692 
           2155          453922 
           2165          461433 
           2175          485327 
           2185          511654 
           2195          547381 
           2205          555747 
           2215          553090 
           2225          587867 
           2235          636874 
           2245          639121 
           2255          637177 
           2265          639832 
           2275          695799 
           2285          719514 
           2295          721483 
           2305          758773 
           2315          781475 
           2325          801877 
           2335          816651 
           2345          788669 
           2355          881160 
           2365          852305 
           2375          915939 
           2385          847343 
           2395          942805 
           2405          960969 
           2415          989652 
           2425      1.07011e+6 
           2435      1.07112e+6 
           2445      1.11222e+6 
           2455      1.13125e+6 
           2465      1.13752e+6 
           2475      1.14612e+6 
           2485      1.17822e+6 
           2495      1.19476e+6 
           2505      1.27451e+6 
           2513      1.23062e+6 
           2518      1.23536e+6 
           2525      1.22273e+6 
           2535      1.24476e+6 
           2545      1.29746e+6 
           2555      1.38318e+6 
           2565      1.40637e+6 
           2575      1.46399e+6 
           2585      1.49655e+6 
           2595      1.51049e+6 
           2605      1.51246e+6 
           2615      1.53017e+6 
           2625      1.57928e+6 
           2635      1.62027e+6 
           2645      1.74444e+6 
           2655      1.76558e+6 
           2665      1.73634e+6 
           2675      1.78982e+6 
           2685      1.84696e+6 
           2695      1.84552e+6 
           2705      1.88905e+6 
           2715      1.85369e+6 
           2725      1.89166e+6 
           2735       1.9397e+6 
           2745      1.85034e+6 
           2755      1.91159e+6 
           2765       2.0019e+6 
           2775      2.08486e+6 
           2785      2.09517e+6 
           2795      1.69836e+6 
           2805      1.88139e+6 
           2815      2.24557e+6 
           2825      2.27167e+6 
           2835      2.26045e+6 
           2845      2.28499e+6 
           2855      2.23453e+6 
           2865      2.29859e+6 
           2875      2.34238e+6 
           2885      2.39556e+6 
           2895      2.45321e+6 
           2910      2.52274e+6 
           2930      2.54801e+6 
           2950      2.57405e+6 
           2970      2.64666e+6 
           2990      2.71023e+6 
           3010      2.76876e+6 
           3030      2.83172e+6 
           3050      2.88712e+6 
           3070       2.9141e+6 
           3090       3.0007e+6 
           3110      3.03928e+6 
           3130      3.09735e+6 
           3150      3.15705e+6 
           3170      3.21447e+6 
           3190      3.21687e+6 
           3210       3.2886e+6 
           3230      3.28111e+6 
           3250      3.37439e+6 
           3270      3.46074e+6 
           3290      3.53442e+6 
           3310      3.58227e+6 
           3330      3.58591e+6 
           3350      3.59458e+6 
           3370      3.66383e+6 
           3390      3.70071e+6 
           3410      3.79286e+6 
           3430      3.83873e+6 
           3450      3.85101e+6 
           3470      3.88872e+6 
           3490      3.94635e+6 
           3510      4.00486e+6 
           3530      4.05514e+6 
           3550      4.10703e+6 
           3570      4.09395e+6 
           3590      4.13645e+6 
           3610      4.18036e+6 
           3630      4.22705e+6 
           3640       4.2448e+6 
           3650      4.27078e+6 
           3670      4.30463e+6 
           3690      4.64683e+6 
           3710      5.73712e+6 
           3730      6.78134e+6 
           3750      8.04788e+6 
           3770      8.18987e+6 
           3790      8.71476e+6 
           3810      9.33668e+6 
           3830      8.37547e+6 
           3850      9.63497e+6 
           3870      9.81963e+6 
           3890      8.35536e+6 
           3910      9.83758e+6 
           3930      9.53916e+6 
           3950      9.94334e+6 
           3970      8.23069e+6 
           3990      9.91441e+6 
           4010      1.00029e+7 
           4030      1.00025e+7 
           4050      9.99949e+6 
           4070      9.88577e+6 
           4090      9.63055e+6 
           4110      8.62311e+6 
           4130      9.92816e+6 
           4150      9.95498e+6 
           4170      9.94247e+6 
           4190      9.92675e+6 
           4210       9.8909e+6 
           4230      9.86117e+6 
           4250      9.86306e+6 
           4270      9.84692e+6 
           4290      9.82779e+6 
           4310      9.73983e+6 
           4330      9.32897e+6 
           4350      8.61804e+6 
           4370      9.74033e+6 
           4390      9.71571e+6 
           4410      9.70507e+6 
           4430      9.71669e+6 
           4450      9.68187e+6 
           4470      9.66424e+6 
           4490      9.65252e+6 
           4510      9.62248e+6 
           4530      9.59296e+6 
           4550      9.55394e+6 
           4570      9.54753e+6 
           4590      9.53013e+6 
           4610      9.51143e+6 
           4630      9.48269e+6 
           4650      9.45879e+6 
           4670      9.43357e+6 
           4690      9.40757e+6 
           4710      9.37879e+6 
           4730      9.35387e+6 
           4750      9.32736e+6 
           4770      9.29964e+6 
           4790       9.2719e+6 
           4810      9.24413e+6 
           4830      9.18695e+6 
           4850      8.86421e+6 
           4870      8.03085e+6 
           4890       9.0864e+6 
           4910      9.09832e+6 
           4930       9.0572e+6 
           4950      9.04151e+6 
           4970      9.01525e+6 
           4990      8.98367e+6 
           5010      8.94811e+6 
           5030      8.92564e+6 
           5050      8.89437e+6 
           5070      8.86596e+6 
           5090      8.83525e+6 
           5110      8.80475e+6 
           5130       8.7733e+6 
           5150      8.74095e+6 
           5170      8.66711e+6 
           5190      8.65568e+6 
           5210      8.64501e+6 
           5230      8.61028e+6 
           5250      8.58868e+6 
           5270       8.5464e+6 
           5290      8.52606e+6 
           5310      8.49402e+6 
           5330      8.45745e+6 
           5350      8.43237e+6 
           5370      8.39946e+6 
           5390      8.36798e+6 
           5410       8.3357e+6 
           5430      8.30315e+6 
           5450      8.27188e+6 
           5470       8.2431e+6 
           5490      8.21165e+6 
           5510      8.18006e+6 
           5530      8.14798e+6 
           5550      8.11774e+6 
           5570      8.08565e+6 
           5590      8.05334e+6 
           5610      8.02235e+6 
           5630      7.99172e+6 
           5650      7.95979e+6 
           5670      7.92835e+6 
           5690      7.89738e+6 
           5710      7.86572e+6 
           5730      7.83432e+6 
           5750       7.8027e+6 
           5770      7.77111e+6 
           5790      7.73965e+6 
           5810      7.70811e+6 
           5830      7.67671e+6 
           5850      7.64489e+6 
           5870      7.61388e+6 
           5890      7.57507e+6 
           5910      7.55139e+6 
           5930      7.52025e+6 
           5950      7.48915e+6 
           5970      7.45808e+6 
           5990      7.42695e+6 
           6010      7.39606e+6 
           6030      7.36521e+6 
           6050       7.3345e+6 
           6070      7.30384e+6 
           6090      7.27311e+6 
           6110      7.24243e+6 
           6130      7.21108e+6 
           6150      7.18059e+6 
           6170      7.14985e+6 
           6190      7.12054e+6 
           6210      7.09038e+6 
           6230      7.06007e+6 
           6250      7.02942e+6 
           6270      6.99998e+6 
           6290      6.97011e+6 
           6310      6.94018e+6 
           6330      6.91041e+6 
           6350      6.88068e+6 
           6370      6.85109e+6 
           6390      6.82156e+6 
           6410      6.79171e+6 
           6430      6.76238e+6 
           6450      6.73246e+6 
           6470      6.70368e+6 
           6490      6.67343e+6 
           6510      6.64537e+6 
           6530      6.59757e+6 
           6550      6.43142e+6 
           6570      5.67631e+6 
           6590      6.49013e+6 
           6610      6.49618e+6 
           6630      6.47316e+6 
           6650      6.44476e+6 
           6670      6.41633e+6 
           6690      6.38812e+6 
           6710      6.35997e+6 
           6730      6.33196e+6 
           6750        6.304e+6 
           6770       6.2761e+6 
           6790      6.24841e+6 
           6810      6.22078e+6 
           6830      6.19329e+6 
           6850      6.16585e+6 
           6870      6.13854e+6 
           6890      6.11136e+6 
           6910      6.08424e+6 
           6930      6.05726e+6 
           6950      6.03032e+6 
           6970      6.00352e+6 
           6990      5.97685e+6 
           7010      5.95023e+6 
           7030      5.92374e+6 
           7050       5.8973e+6 
           7070      5.87092e+6 
           7090      5.84474e+6 
           7110      5.81853e+6 
           7130      5.79253e+6 
           7150      5.76651e+6 
           7170      5.74076e+6 
           7190      5.71499e+6 
           7210      5.68934e+6 
           7230      5.66389e+6 
           7250      5.63849e+6 
           7270      5.61314e+6 
           7290      5.58784e+6 
           7310      5.56273e+6 
           7330      5.53761e+6 
           7350      5.51274e+6 
           7370      5.48793e+6 
           7390      5.46316e+6 
           7410      5.43851e+6 
           7430      5.41398e+6 
           7450      5.38957e+6 
           7470      5.36527e+6 
           7490      5.34102e+6 
           7510      5.31689e+6 
           7530        5.293e+6 
           7550      5.26909e+6 
           7570      5.24536e+6 
           7590      5.22168e+6 
           7610      5.19804e+6 
           7630      5.17458e+6 
           7650      5.15116e+6 
           7670      5.12786e+6 
           7690      5.10472e+6 
           7710      5.08157e+6 
           7730      5.05858e+6 
           7750      5.03577e+6 
           7770      5.01263e+6 
           7790       4.9904e+6 
           7810      4.96783e+6 
           7830      4.94538e+6 
           7850      4.92302e+6 
           7870      4.90077e+6 
           7890      4.87862e+6 
           7910      4.85657e+6 
           7930      4.83462e+6 
           7950      4.81277e+6 
           7970      4.79107e+6 
           7990      4.76942e+6 
           8010      4.74786e+6 
           8030       4.7264e+6 
           8050      4.70504e+6 
           8070      4.68383e+6 
           8090      4.66266e+6 
           8110      4.64158e+6 
           8130      4.62065e+6 
           8150      4.59976e+6 
           8170      4.57902e+6 
           8190      4.55814e+6 
           8210      4.53892e+6 
           8230      4.51889e+6 
           8250      4.49933e+6 
           8270      4.47859e+6 
           8290      4.45766e+6 
           8310      4.43394e+6 
           8330      4.41083e+6 
           8350      4.39605e+6 
           8370      4.35592e+6 
           8390      4.34583e+6 
           8410      4.32124e+6 
           8430      4.33188e+6 
           8450      4.30485e+6 
           8470       4.2449e+6 
           8490       4.3177e+6 
           8510      4.17169e+6 
           8530      4.29692e+6 
           8550      4.10807e+6 
           8570      4.27614e+6 
           8590      4.21306e+6 
