# Kurucz ODFNEW /NOVER (2003)
# teff = 25000 K (value for the effective temperature for the model. Temperatures are given in K)
# logg = 3 log(cm/s2) (value for Log(G) for the model.)
# meta = 0  (value for the Metallicity for the model.)
# lh = 1.25  (l/Hp where l is the  mixing length of the convective element and Hp is the pressure scale height)
# vtur = 2 km/s (Microturbulence velocity)
# alpha = 0  (Alpha)
#
# column 1: WAVELENGTH (ANGSTROM), Wavelength in Angstrom
# column 2: FLUX (ERG/CM2/S/A), Flux in erg/cm2/s/A
          147.2     7.99174e-14 
            151     3.41966e-13 
          155.2     1.57748e-12 
          158.8     5.51288e-12 
            162     1.60674e-11 
            166     5.79777e-11 
          170.3     2.16019e-10 
          173.4     5.37763e-10 
          176.8      1.41095e-9 
          180.2      3.57667e-9 
          181.7      5.33379e-9 
          186.1       1.6645e-8 
            191      5.57478e-8 
          193.9      1.10873e-7 
          198.4      3.10025e-7 
          201.8      6.54534e-7 
            205      1.29356e-6 
          210.5      3.98093e-6 
          216.2       1.2021e-5 
          219.8      2.34653e-5 
            223        4.176e-5 
          226.8       8.1647e-5 
            230      0.00876305 
            234       0.0202022 
            240         0.04439 
          246.5        0.103442 
          252.4        0.215621 
          256.8        0.340887 
            260         0.58577 
            264        0.929175 
          268.5          1.5435 
          273.5         2.59084 
          278.5         4.20083 
            284         8.42756 
            290         14.5348 
            296         24.3613 
            301          36.196 
            308          69.644 
            318         168.762 
            328         332.559 
            338         685.008 
            348         1303.61 
            357         7562.14 
            366         17854.4 
            375         25639.6 
            385         43214.9 
            395          100993 
            405          144851 
            414          219750 
            422          287152 
            430          401363 
            441          578651 
            451          734674 
            460          925088 
            470       1.2803e+6 
            480      1.69414e+6 
            490      2.21127e+6 
            500      2.81131e+6 
            506      1.26881e+7 
            512       1.1353e+8 
            520      1.14862e+8 
            530      1.14239e+8 
            540      1.13616e+8 
            550      1.71627e+8 
            560       2.1328e+8 
            570      2.36044e+8 
            580      2.12285e+8 
            590      2.64079e+8 
            600      2.52398e+8 
            610      3.18413e+8 
            620      3.68869e+8 
            630      3.79454e+8 
            640      3.49137e+8 
            650      2.64397e+8 
            658      3.61194e+8 
            665      4.38283e+8 
            675      4.60856e+8 
            685      4.02024e+8 
            695      5.82894e+8 
            705      5.07233e+8 
            716      6.50247e+8 
            726      6.35816e+8 
            735      6.64476e+8 
            745       7.2865e+8 
            755       7.5336e+8 
            765      7.95076e+8 
            775      8.56356e+8 
            785       9.1189e+8 
            795      9.29686e+8 
            805      9.28939e+8 
            815      9.30558e+8 
            825      1.02681e+9 
            835      7.91093e+8 
            845      1.01128e+9 
            855      1.01105e+9 
            865      1.07109e+9 
            875      1.12927e+9 
            885       1.2086e+9 
            895       1.2513e+9 
            905      1.22689e+9 
            915      2.53187e+9 
            925     1.40349e+10 
            935     2.05196e+10 
            945     2.30845e+10 
            955     2.35003e+10 
            965     2.33216e+10 
            975      6.12239e+9 
            985     1.59774e+10 
            995     1.82412e+10 
           1005     2.16849e+10 
           1015     2.27137e+10 
           1025     2.00631e+10 
           1035     1.98454e+10 
           1045     2.61555e+10 
           1055     2.42682e+10 
           1065     2.04277e+10 
           1075     2.26936e+10 
           1085     2.09542e+10 
           1095      2.2959e+10 
           1105     2.15743e+10 
           1115     2.10697e+10 
           1125     1.62545e+10 
           1135     2.13552e+10 
           1145     2.02183e+10 
           1155     2.01857e+10 
           1165     1.97235e+10 
           1175     1.09469e+10 
           1185     1.82084e+10 
           1195     1.79468e+10 
           1205     1.44426e+10 
           1215     1.48785e+10 
           1225     1.74363e+10 
           1235     1.86766e+10 
           1245     1.76883e+10 
           1255     1.79069e+10 
           1265     1.82888e+10 
           1275     1.88448e+10 
           1285     1.87109e+10 
           1295     1.52635e+10 
           1305     1.63243e+10 
           1315     1.84303e+10 
           1325     1.75084e+10 
           1335     1.69608e+10 
           1345     1.71234e+10 
           1355     1.69089e+10 
           1365     1.61113e+10 
           1375     1.55665e+10 
           1385     1.48914e+10 
           1395      9.62622e+9 
           1405     1.09458e+10 
           1415     1.38475e+10 
           1425     1.32032e+10 
           1435     1.38846e+10 
           1442     1.40779e+10 
           1447     1.38881e+10 
           1455     1.33667e+10 
           1465     1.26124e+10 
           1475     1.29473e+10 
           1485     1.28685e+10 
           1495      1.2554e+10 
           1505     1.17843e+10 
           1512     1.08236e+10 
           1517     1.11603e+10 
           1525     1.11531e+10 
           1535      9.48609e+9 
           1545      8.79521e+9 
           1555        8.598e+9 
           1565      9.63517e+9 
           1575     1.03353e+10 
           1585     1.03593e+10 
           1595     1.02492e+10 
           1605     1.00012e+10 
           1615       9.6751e+9 
           1625       9.7313e+9 
           1635     1.01876e+10 
           1645     1.02331e+10 
           1655     1.01153e+10 
           1665     1.01191e+10 
           1672      9.52003e+9 
           1677     1.08475e+10 
           1685     1.02827e+10 
           1695      9.74702e+9 
           1705      9.64365e+9 
           1715      9.08065e+9 
           1725      8.96225e+9 
           1735      9.25797e+9 
           1745      9.10144e+9 
           1755      9.10137e+9 
           1765      9.10229e+9 
           1775      8.56274e+9 
           1785      8.73759e+9 
           1795      8.78105e+9 
           1805      8.86221e+9 
           1815      8.11205e+9 
           1825      8.33739e+9 
           1835       8.2047e+9 
           1845      7.51605e+9 
           1855      7.72087e+9 
           1865      7.81668e+9 
           1875       7.9187e+9 
           1885      7.17289e+9 
           1895      6.73167e+9 
           1905      7.22695e+9 
           1915      6.90912e+9 
           1925      6.51668e+9 
           1935      6.96163e+9 
           1945      7.12754e+9 
           1955      6.37134e+9 
           1967      6.89869e+9 
           1976      7.20302e+9 
           1984      6.73571e+9 
           1995      6.60389e+9 
           2005      6.83572e+9 
           2015      6.81471e+9 
           2025      6.95254e+9 
           2035      6.37831e+9 
           2045      6.45301e+9 
           2055      5.95591e+9 
           2065      5.91127e+9 
           2074      6.35867e+9 
           2078      5.86266e+9 
           2085      6.25016e+9 
           2095      5.92541e+9 
           2105      6.12635e+9 
           2115      6.16464e+9 
           2125      6.20662e+9 
           2135      6.12242e+9 
           2145      5.81483e+9 
           2155      6.02593e+9 
           2165      5.96766e+9 
           2175      5.90001e+9 
           2185      5.76083e+9 
           2195      5.81551e+9 
           2205      5.78558e+9 
           2215      5.70389e+9 
           2225       5.5704e+9 
           2235      5.46124e+9 
           2245       5.4911e+9 
           2255      5.36731e+9 
           2265      5.37392e+9 
           2275      5.31681e+9 
           2285      5.27218e+9 
           2295       4.6562e+9 
           2305      5.09118e+9 
           2315      4.98676e+9 
           2325      4.93657e+9 
           2335      4.83869e+9 
           2345      4.87657e+9 
           2355      4.81248e+9 
           2365      4.76722e+9 
           2375      4.66866e+9 
           2385      4.61157e+9 
           2395      4.55548e+9 
           2405      4.51246e+9 
           2415       4.4545e+9 
           2425      4.43225e+9 
           2435      4.33124e+9 
           2445      4.31907e+9 
           2455      4.29777e+9 
           2465      4.23005e+9 
           2475      4.15565e+9 
           2485      4.02448e+9 
           2495      2.98139e+9 
           2505      3.83152e+9 
           2513      3.80752e+9 
           2518      3.90561e+9 
           2525       3.9228e+9 
           2535      3.89901e+9 
           2545      3.77426e+9 
           2555      3.78292e+9 
           2565      3.74815e+9 
           2575      3.72404e+9 
           2585       3.6751e+9 
           2595      3.64001e+9 
           2605      3.61239e+9 
           2615      3.55022e+9 
           2625      3.52519e+9 
           2635      3.49414e+9 
           2645      3.44128e+9 
           2655      3.41546e+9 
           2665      3.31445e+9 
           2675      3.29477e+9 
           2685      3.29634e+9 
           2695      3.19687e+9 
           2705      3.15129e+9 
           2715      3.14075e+9 
           2725      3.12819e+9 
           2735      3.08934e+9 
           2745      3.05862e+9 
           2755      3.03591e+9 
           2765      2.99202e+9 
           2775      2.99202e+9 
           2785      2.94259e+9 
           2795       2.8517e+9 
           2805      2.86946e+9 
           2815      2.86314e+9 
           2825       2.8287e+9 
           2835      2.75018e+9 
           2845      2.76612e+9 
           2855       2.7171e+9 
           2865      2.70248e+9 
           2875      2.67464e+9 
           2885      2.64998e+9 
           2895      2.61282e+9 
           2910      2.55815e+9 
           2930      2.52559e+9 
           2950      2.45453e+9 
           2970      2.41364e+9 
           2990      2.35892e+9 
           3010      2.27861e+9 
           3030      2.25716e+9 
           3050      2.22421e+9 
           3070      2.18873e+9 
           3090      2.10612e+9 
           3110      2.09762e+9 
           3130      2.04579e+9 
           3150      2.01188e+9 
           3170      1.96506e+9 
           3190      1.92713e+9 
           3210      1.89401e+9 
           3230      1.84914e+9 
           3250      1.82464e+9 
           3270      1.78019e+9 
           3290      1.74751e+9 
           3310      1.71545e+9 
           3330      1.67704e+9 
           3350      1.64687e+9 
           3370      1.61464e+9 
           3390      1.59201e+9 
           3410      1.56305e+9 
           3430      1.53207e+9 
           3450      1.49888e+9 
           3470      1.47214e+9 
           3490      1.44372e+9 
           3510      1.42034e+9 
           3530      1.40015e+9 
           3550      1.37285e+9 
           3570      1.34973e+9 
           3590      1.31582e+9 
           3610      1.29247e+9 
           3630      1.27238e+9 
           3640      1.26665e+9 
           3650      1.23342e+9 
           3670      1.21727e+9 
           3690      1.18435e+9 
           3710      1.15958e+9 
           3730      1.14336e+9 
           3750      1.18943e+9 
           3770      1.16998e+9 
           3790      1.17199e+9 
           3810      1.18977e+9 
           3830      1.10382e+9 
           3850      1.16751e+9 
           3870      1.13248e+9 
           3890      1.05841e+9 
           3910      1.11572e+9 
           3930      1.08017e+9 
           3950      1.06943e+9 
           3970      9.80301e+8 
           3990      1.03953e+9 
           4010      1.02248e+9 
           4030      9.94334e+8 
           4050      9.89958e+8 
           4070      9.55259e+8 
           4090      9.27833e+8 
           4110      8.75536e+8 
           4130      9.13326e+8 
           4150      9.03822e+8 
           4170       8.9565e+8 
           4190       8.8212e+8 
           4210       8.7157e+8 
           4230      8.56126e+8 
           4250      8.36261e+8 
           4270      8.17061e+8 
           4290      8.06676e+8 
           4310      7.88337e+8 
           4330      7.65499e+8 
           4350       7.2045e+8 
           4370      7.53206e+8 
           4390      7.46261e+8 
           4410      7.34917e+8 
           4430      7.28661e+8 
           4450      7.15886e+8 
           4470      6.97861e+8 
           4490      6.95806e+8 
           4510      6.85759e+8 
           4530      6.76615e+8 
           4550      6.65602e+8 
           4570      6.55767e+8 
           4590       6.4495e+8 
           4610      6.33428e+8 
           4630      6.23925e+8 
           4650      6.00241e+8 
           4670      6.04801e+8 
           4690      5.98267e+8 
           4710      5.82243e+8 
           4730      5.82264e+8 
           4750      5.72595e+8 
           4770       5.6941e+8 
           4790      5.60658e+8 
           4810      5.51104e+8 
           4830      5.42174e+8 
           4850      5.30648e+8 
           4870      4.93799e+8 
           4890      5.20742e+8 
           4910      5.13211e+8 
           4930      5.00794e+8 
           4950      4.96602e+8 
           4970      4.93147e+8 
           4990      4.85858e+8 
           5010       4.7067e+8 
           5030      4.71625e+8 
           5050      4.63539e+8 
           5070      4.59449e+8 
           5090      4.52661e+8 
           5110      4.46225e+8 
           5130      4.38586e+8 
           5150      4.33042e+8 
           5170      4.28006e+8 
           5190      4.22756e+8 
           5210      4.17129e+8 
           5230      4.11328e+8 
           5250      4.05603e+8 
           5270       3.9975e+8 
           5290      3.95118e+8 
           5310      3.89662e+8 
           5330       3.8486e+8 
           5350      3.79697e+8 
           5370      3.74784e+8 
           5390      3.69389e+8 
           5410      3.64603e+8 
           5430      3.60299e+8 
           5450      3.55478e+8 
           5470      3.50856e+8 
           5490      3.46267e+8 
           5510       3.4212e+8 
           5530      3.37371e+8 
           5550      3.33513e+8 
           5570      3.29046e+8 
           5590      3.24839e+8 
           5610      3.20935e+8 
           5630      3.16935e+8 
           5650      3.12559e+8 
           5670      3.07581e+8 
           5690      3.02013e+8 
           5710      2.99462e+8 
           5730      2.95976e+8 
           5750      2.91459e+8 
           5770      2.89091e+8 
           5790      2.85378e+8 
           5810      2.81944e+8 
           5830      2.78062e+8 
           5850      2.75272e+8 
           5870      2.67233e+8 
           5890      2.67745e+8 
           5910      2.65375e+8 
           5930      2.61895e+8 
           5950      2.58786e+8 
           5970      2.56717e+8 
           5990      2.52832e+8 
           6010      2.50307e+8 
           6030      2.46961e+8 
           6050       2.4425e+8 
           6070      2.41651e+8 
           6090      2.38858e+8 
           6110      2.35995e+8 
           6130      2.33315e+8 
           6150      2.29997e+8 
           6170      2.27459e+8 
           6190      2.25097e+8 
           6210      2.22643e+8 
           6230      2.20081e+8 
           6250      2.17343e+8 
           6270      2.14953e+8 
           6290      2.12569e+8 
           6310      2.10013e+8 
           6330      2.07776e+8 
           6350      2.05217e+8 
           6370      2.03095e+8 
           6390      2.00727e+8 
           6410      1.98468e+8 
           6430      1.96306e+8 
           6450      1.94058e+8 
           6470      1.91466e+8 
           6490      1.89366e+8 
           6510      1.87555e+8 
           6530      1.85286e+8 
           6550      1.82251e+8 
           6570      1.67755e+8 
           6590       1.7838e+8 
           6610      1.77285e+8 
           6630      1.75514e+8 
           6650      1.73446e+8 
           6670      1.70637e+8 
           6690      1.68819e+8 
           6710      1.67973e+8 
           6730      1.65779e+8 
           6750      1.64409e+8 
           6770      1.62708e+8 
           6790      1.60247e+8 
           6810       1.5912e+8 
           6830       1.5739e+8 
           6850       1.5583e+8 
           6870      1.54158e+8 
           6890      1.52328e+8 
           6910      1.50603e+8 
           6930      1.49366e+8 
           6950      1.47806e+8 
           6970      1.46261e+8 
           6990      1.44708e+8 
           7010      1.43194e+8 
           7030      1.41625e+8 
           7050      1.40209e+8 
           7070      1.37043e+8 
           7090      1.37365e+8 
           7110      1.35386e+8 
           7130      1.34124e+8 
           7150      1.33183e+8 
           7170      1.31781e+8 
           7190      1.30481e+8 
           7210      1.29156e+8 
           7230      1.26511e+8 
           7250      1.26273e+8 
           7270      1.25258e+8 
           7290      1.23232e+8 
           7310      1.22728e+8 
           7330      1.21484e+8 
           7350      1.20308e+8 
           7370      1.19122e+8 
           7390       1.1794e+8 
           7410      1.16769e+8 
           7430      1.15602e+8 
           7450      1.14466e+8 
           7470      1.12956e+8 
           7490      1.12146e+8 
           7510      1.11095e+8 
           7530      1.09974e+8 
           7550      1.08976e+8 
           7570      1.07908e+8 
           7590       1.0681e+8 
           7610       1.0569e+8 
           7630      1.04781e+8 
           7650      1.03776e+8 
           7670      1.02794e+8 
           7690      1.01776e+8 
           7710      1.00792e+8 
           7730      9.98048e+7 
           7750       9.8914e+7 
           7770      9.79063e+7 
           7790      9.70565e+7 
           7810      9.60968e+7 
           7830      9.52317e+7 
           7850      9.43742e+7 
           7870       9.3372e+7 
           7890      9.24151e+7 
           7910      9.16774e+7 
           7930      9.07782e+7 
           7950      8.99823e+7 
           7970      8.90983e+7 
           7990      8.82988e+7 
           8010      8.74239e+7 
           8030      8.66442e+7 
           8050      8.58945e+7 
           8070      8.51164e+7 
           8090      8.42528e+7 
           8110      8.31447e+7 
           8130      8.28331e+7 
           8150      8.19676e+7 
           8170      8.13523e+7 
           8190      8.03489e+7 
           8210      7.94381e+7 
           8230      7.86687e+7 
           8250      7.82324e+7 
           8270      7.69787e+7 
           8290      7.67392e+7 
           8310      7.61084e+7 
           8330      7.54122e+7 
           8350      7.44949e+7 
           8370      7.38812e+7 
           8390      7.33367e+7 
           8410      7.26101e+7 
           8430       7.1985e+7 
           8450       7.1096e+7 
           8470       7.0372e+7 
           8490      7.03597e+7 
           8510      6.87705e+7 
           8530        6.937e+7 
           8550      6.69484e+7 
           8570      6.87701e+7 
           8590      6.63467e+7 
