# Kurucz ODFNEW /NOVER (2003)
# teff = 22000 K (value for the effective temperature for the model. Temperatures are given in K)
# logg = 5 log(cm/s2) (value for Log(G) for the model.)
# meta = -0.5  (value for the Metallicity for the model.)
# lh = 1.25  (l/Hp where l is the  mixing length of the convective element and Hp is the pressure scale height)
# vtur = 2 km/s (Microturbulence velocity)
# alpha = 0.4  (Alpha)
#
# column 1: WAVELENGTH (ANGSTROM), Wavelength in Angstrom
# column 2: FLUX (ERG/CM2/S/A), Flux in erg/cm2/s/A
          147.2     6.80997e-17 
            151     3.47253e-16 
          155.2     1.91469e-15 
          158.8     7.69864e-15 
            162     2.51741e-14 
            166     1.03851e-13 
          170.3     4.42028e-13 
          173.4     1.20331e-12 
          176.8     3.46403e-12 
          180.2     9.58703e-12 
          181.7     1.48387e-11 
          186.1      5.1445e-11 
            191     1.92294e-10 
          193.9     4.06427e-10 
          198.4      1.24506e-9 
          201.8      2.81155e-9 
            205      5.91284e-9 
          210.5      2.01346e-8 
          216.2      6.72815e-8 
          219.8      1.39737e-7 
            223       2.6236e-7 
          226.8      5.42358e-7 
            230      3.95224e-6 
            234      9.48153e-6 
            240      2.62075e-5 
          246.5      7.39109e-5 
          252.4     0.000181825 
          256.8     0.000338533 
            260        0.000542 
            264      0.00093804 
          268.5      0.00170111 
          273.5       0.0032151 
          278.5      0.00596018 
            284       0.0114809 
            290       0.0226732 
            296        0.043445 
            301       0.0733408 
            308        0.146301 
            318         0.38424 
            328        0.925611 
            338          2.1494 
            348         4.70725 
            357         9.34811 
            366         17.7498 
            375         32.0833 
            385         60.3809 
            395         109.268 
            405           192.1 
            414         312.644 
            422         468.828 
            430         693.353 
            441         1166.81 
            451         1830.54 
            460          2680.9 
            470         4034.71 
            480         5948.37 
            490         8635.59 
            500         12335.2 
            506         98718.7 
            512          365687 
            520          461786 
            530          636591 
            540          722530 
            550      1.02605e+6 
            560      1.23758e+6 
            570       1.5533e+6 
            580      1.62047e+6 
            590      2.16449e+6 
            600      2.64045e+6 
            610      3.20438e+6 
            620      3.69693e+6 
            630      4.33282e+6 
            640      4.79015e+6 
            650      5.38193e+6 
            658        6.375e+6 
            665       6.9846e+6 
            675      7.79025e+6 
            685      8.76419e+6 
            695      1.03342e+7 
            705      1.14575e+7 
            716       1.3079e+7 
            726      1.44016e+7 
            735      1.58907e+7 
            745      1.78949e+7 
            755      1.98528e+7 
            765      2.18477e+7 
            775      2.41728e+7 
            785      2.65656e+7 
            795      2.86446e+7 
            805      3.12069e+7 
            815      3.36996e+7 
            825       3.6859e+7 
            835      3.86085e+7 
            845      4.22175e+7 
            855      4.53106e+7 
            865       4.9023e+7 
            875      5.27926e+7 
            885      5.70752e+7 
            895      6.09097e+7 
            905      6.31543e+7 
            915         8.59e+7 
            925      2.96175e+8 
            935      7.42793e+8 
            945      2.93604e+9 
            955        7.004e+9 
            965     1.01927e+10 
            975      2.22247e+9 
            985     1.60644e+10 
            995     1.61034e+10 
           1005     1.78603e+10 
           1015     1.33318e+10 
           1025      1.83014e+9 
           1035      9.48448e+9 
           1045     1.97471e+10 
           1055     1.94852e+10 
           1065     1.60447e+10 
           1075     1.86304e+10 
           1085     1.69761e+10 
           1095     1.85737e+10 
           1105     1.62586e+10 
           1115     1.54901e+10 
           1125     1.42509e+10 
           1135     1.66887e+10 
           1145     1.42629e+10 
           1155     1.54756e+10 
           1165     1.56554e+10 
           1175     1.20649e+10 
           1185     1.50724e+10 
           1195       1.136e+10 
           1205      6.35084e+9 
           1215      1.70689e+9 
           1225      6.55161e+9 
           1235     1.22435e+10 
           1245     1.31406e+10 
           1255       1.281e+10 
           1265     1.22724e+10 
           1275     1.28959e+10 
           1285     1.28372e+10 
           1295      9.17144e+9 
           1305      8.68389e+9 
           1315     1.20529e+10 
           1325     1.13966e+10 
           1335     1.07384e+10 
           1345     1.09902e+10 
           1355     1.09184e+10 
           1365     1.00977e+10 
           1375      9.99776e+9 
           1385     1.00912e+10 
           1395      8.60969e+9 
           1405      8.98051e+9 
           1415      9.24351e+9 
           1425      9.20031e+9 
           1435      9.15212e+9 
           1442      9.39756e+9 
           1447      9.23233e+9 
           1455       9.0172e+9 
           1465       8.6098e+9 
           1475      8.44653e+9 
           1485      8.12815e+9 
           1495      8.13254e+9 
           1505      7.51904e+9 
           1512      7.11671e+9 
           1517      7.33867e+9 
           1525      7.37009e+9 
           1535      6.76369e+9 
           1545      6.89043e+9 
           1555      6.53038e+9 
           1565      6.61377e+9 
           1575      6.84655e+9 
           1585      6.71814e+9 
           1595        6.751e+9 
           1605      6.57778e+9 
           1615      6.47867e+9 
           1625      6.35252e+9 
           1635      6.44388e+9 
           1645      6.34281e+9 
           1655      6.09102e+9 
           1665      6.28783e+9 
           1672      6.05525e+9 
           1677      6.19816e+9 
           1685      6.14648e+9 
           1695      5.92704e+9 
           1705      5.68083e+9 
           1715      5.44339e+9 
           1725      5.36021e+9 
           1735       5.4454e+9 
           1745       5.3124e+9 
           1755       5.3571e+9 
           1765      5.03898e+9 
           1775       5.0461e+9 
           1785      4.99433e+9 
           1795      5.08978e+9 
           1805      5.03123e+9 
           1815      4.75408e+9 
           1825      4.83073e+9 
           1835      4.67171e+9 
           1845      4.36002e+9 
           1855      4.28928e+9 
           1865      4.30655e+9 
           1875      4.43465e+9 
           1885      4.10845e+9 
           1895      3.89305e+9 
           1905       4.0897e+9 
           1915      3.91335e+9 
           1925      3.80326e+9 
           1935       3.8862e+9 
           1945      3.91864e+9 
           1955      3.67442e+9 
           1967      3.83595e+9 
           1976      3.93809e+9 
           1984      3.70388e+9 
           1995      3.61081e+9 
           2005      3.65978e+9 
           2015      3.59107e+9 
           2025      3.68936e+9 
           2035      3.48981e+9 
           2045      3.47603e+9 
           2055      3.35076e+9 
           2065      3.39957e+9 
           2074      3.43232e+9 
           2078      3.30927e+9 
           2085       3.3455e+9 
           2095      3.20918e+9 
           2105      3.25519e+9 
           2115      3.22617e+9 
           2125      3.25603e+9 
           2135      3.17485e+9 
           2145      3.08473e+9 
           2155      3.12195e+9 
           2165      3.07164e+9 
           2175      3.02658e+9 
           2185      2.98118e+9 
           2195      2.97621e+9 
           2205      2.92037e+9 
           2215      2.87548e+9 
           2225       2.8048e+9 
           2235      2.80245e+9 
           2245      2.78023e+9 
           2255      2.71288e+9 
           2265      2.72012e+9 
           2275      2.68294e+9 
           2285      2.67062e+9 
           2295      2.58173e+9 
           2305      2.57945e+9 
           2315      2.52888e+9 
           2325      2.50369e+9 
           2335      2.42487e+9 
           2345      2.38491e+9 
           2355      2.39446e+9 
           2365      2.33855e+9 
           2375      2.32792e+9 
           2385      2.28552e+9 
           2395      2.28808e+9 
           2405       2.2407e+9 
           2415      2.21481e+9 
           2425       2.2201e+9 
           2435      2.16352e+9 
           2445      2.15424e+9 
           2455       2.1456e+9 
           2465      2.10256e+9 
           2475      2.08161e+9 
           2485      2.06989e+9 
           2495      1.99723e+9 
           2505       2.0213e+9 
           2513      1.95649e+9 
           2518      1.98848e+9 
           2525      1.95242e+9 
           2535      1.92128e+9 
           2545       1.8844e+9 
           2555      1.90557e+9 
           2565      1.87345e+9 
           2575      1.87677e+9 
           2585      1.86205e+9 
           2595      1.84174e+9 
           2605       1.8249e+9 
           2615      1.80767e+9 
           2625      1.78802e+9 
           2635      1.76899e+9 
           2645      1.77293e+9 
           2655       1.7527e+9 
           2665      1.71082e+9 
           2675      1.70611e+9 
           2685      1.69745e+9 
           2695      1.65837e+9 
           2705      1.65602e+9 
           2715      1.63372e+9 
           2725      1.60126e+9 
           2735      1.60619e+9 
           2745      1.55476e+9 
           2755      1.54816e+9 
           2765      1.53407e+9 
           2775      1.54334e+9 
           2785      1.52179e+9 
           2795      1.45753e+9 
           2805      1.47885e+9 
           2815      1.48149e+9 
           2825      1.44826e+9 
           2835      1.41364e+9 
           2845      1.42551e+9 
           2855      1.41549e+9 
           2865      1.40751e+9 
           2875      1.39003e+9 
           2885      1.37743e+9 
           2895      1.36402e+9 
           2910      1.34194e+9 
           2930      1.30955e+9 
           2950      1.27636e+9 
           2970      1.26461e+9 
           2990      1.23531e+9 
           3010      1.21409e+9 
           3030       1.1936e+9 
           3050       1.1699e+9 
           3070      1.14751e+9 
           3090       1.1215e+9 
           3110      1.10221e+9 
           3130      1.08356e+9 
           3150       1.0627e+9 
           3170      1.04217e+9 
           3190      1.01134e+9 
           3210       1.0032e+9 
           3230      9.84893e+8 
           3250      9.67316e+8 
           3270      9.50799e+8 
           3290      9.32244e+8 
           3310      9.17023e+8 
           3330      9.00231e+8 
           3350      8.82398e+8 
           3370      8.68174e+8 
           3390      8.53108e+8 
           3410      8.38206e+8 
           3430      8.20486e+8 
           3450        8.035e+8 
           3470      7.91479e+8 
           3490      7.77825e+8 
           3510      7.65348e+8 
           3530      7.53163e+8 
           3550      7.40784e+8 
           3570      7.32625e+8 
           3590      7.14284e+8 
           3610      7.04975e+8 
           3630       6.9131e+8 
           3640        6.909e+8 
           3650      6.81153e+8 
           3670       6.7305e+8 
           3690       6.6237e+8 
           3710      6.40715e+8 
           3730      6.14312e+8 
           3750      6.16564e+8 
           3770      6.06381e+8 
           3790      6.46735e+8 
           3810      6.83615e+8 
           3830      5.85811e+8 
           3850      7.16275e+8 
           3870       7.4544e+8 
           3890      5.46294e+8 
           3910      7.41453e+8 
           3930      7.41975e+8 
           3950      7.20621e+8 
           3970      5.10803e+8 
           3990      6.84782e+8 
           4010      7.04091e+8 
           4030      6.47943e+8 
           4050      6.94455e+8 
           4070      6.70043e+8 
           4090      5.80292e+8 
           4110       4.9446e+8 
           4130      6.22313e+8 
           4150      6.28491e+8 
           4170       6.2772e+8 
           4190      6.21591e+8 
           4210      6.13702e+8 
           4230      6.02964e+8 
           4250      5.91066e+8 
           4270      5.74571e+8 
           4290      5.68694e+8 
           4310      5.50347e+8 
           4330      4.66187e+8 
           4350      4.20778e+8 
           4370       5.2005e+8 
           4390      5.02323e+8 
           4410      5.17439e+8 
           4430      5.08592e+8 
           4450      5.03422e+8 
           4470      4.61256e+8 
           4490      4.83617e+8 
           4510      4.82467e+8 
           4530       4.7403e+8 
           4550      4.66688e+8 
           4570       4.5969e+8 
           4590      4.52939e+8 
           4610      4.45791e+8 
           4630      4.38697e+8 
           4650      4.30558e+8 
           4670      4.25859e+8 
           4690      4.20505e+8 
           4710      4.04731e+8 
           4730      4.05879e+8 
           4750      3.99479e+8 
           4770      3.96054e+8 
           4790      3.88993e+8 
           4810       3.8044e+8 
           4830      3.69093e+8 
           4850       3.2222e+8 
           4870      2.83934e+8 
           4890      3.50323e+8 
           4910       3.5285e+8 
           4930      3.37516e+8 
           4950      3.46433e+8 
           4970      3.42735e+8 
           4990      3.37709e+8 
           5010      3.25577e+8 
           5030      3.27698e+8 
           5050      3.18342e+8 
           5070      3.19324e+8 
           5090      3.14754e+8 
           5110      3.10088e+8 
           5130      3.05585e+8 
           5150      3.01313e+8 
           5170      2.97844e+8 
           5190      2.93707e+8 
           5210      2.87987e+8 
           5230       2.8594e+8 
           5250      2.82084e+8 
           5270       2.7817e+8 
           5290      2.74671e+8 
           5310      2.70975e+8 
           5330      2.67063e+8 
           5350      2.63043e+8 
           5370      2.60381e+8 
           5390      2.56936e+8 
           5410      2.53418e+8 
           5430      2.49523e+8 
           5450      2.46553e+8 
           5470       2.4328e+8 
           5490      2.40599e+8 
           5510      2.37391e+8 
           5530      2.34309e+8 
           5550      2.31425e+8 
           5570       2.2837e+8 
           5590      2.25593e+8 
           5610      2.22431e+8 
           5630      2.19986e+8 
           5650       2.1606e+8 
           5670      2.13542e+8 
           5690      2.11322e+8 
           5710      2.09035e+8 
           5730      2.06523e+8 
           5750      2.03847e+8 
           5770      2.01486e+8 
           5790      1.98995e+8 
           5810      1.96467e+8 
           5830      1.94068e+8 
           5850      1.91719e+8 
           5870      1.81701e+8 
           5890      1.85845e+8 
           5910      1.84772e+8 
           5930      1.82618e+8 
           5950      1.80062e+8 
           5970      1.78276e+8 
           5990      1.75922e+8 
           6010      1.74096e+8 
           6030         1.72e+8 
           6050       1.6999e+8 
           6070      1.67972e+8 
           6090      1.65936e+8 
           6110      1.64074e+8 
           6130      1.62163e+8 
           6150      1.59895e+8 
           6170      1.58356e+8 
           6190      1.56577e+8 
           6210      1.54759e+8 
           6230      1.52971e+8 
           6250      1.51029e+8 
           6270      1.49444e+8 
           6290      1.47743e+8 
           6310      1.45957e+8 
           6330      1.44425e+8 
           6350      1.42134e+8 
           6370      1.40788e+8 
           6390      1.39548e+8 
           6410      1.37917e+8 
           6430      1.36523e+8 
           6450      1.34926e+8 
           6470      1.33355e+8 
           6490       1.3164e+8 
           6510      1.29784e+8 
           6530      1.27099e+8 
           6550      1.17482e+8 
           6570      1.02864e+8 
           6590      1.20814e+8 
           6610      1.22532e+8 
           6630      1.21794e+8 
           6650      1.20705e+8 
           6670      1.17823e+8 
           6690      1.16699e+8 
           6710      1.17075e+8 
           6730      1.15815e+8 
           6750      1.14617e+8 
           6770      1.13398e+8 
           6790      1.12004e+8 
           6810      1.10973e+8 
           6830      1.09775e+8 
           6850      1.08669e+8 
           6870      1.07527e+8 
           6890      1.06395e+8 
           6910      1.05283e+8 
           6930      1.04127e+8 
           6950      1.03108e+8 
           6970      1.02044e+8 
           6990      1.00975e+8 
           7010      9.99167e+7 
           7030      9.88916e+7 
           7050      9.78613e+7 
           7070      9.51755e+7 
           7090      9.59059e+7 
           7110      9.49199e+7 
           7130      9.39584e+7 
           7150      9.29766e+7 
           7170      9.20629e+7 
           7190      9.11506e+7 
           7210      9.02326e+7 
           7230      8.87323e+7 
           7250      8.83939e+7 
           7270      8.75518e+7 
           7290      8.59379e+7 
           7310      8.58137e+7 
           7330      8.49674e+7 
           7350      8.41361e+7 
           7370      8.33055e+7 
           7390      8.24896e+7 
           7410      8.16813e+7 
           7430      8.08327e+7 
           7450       8.0087e+7 
           7470      7.92672e+7 
           7490      7.85221e+7 
           7510      7.77638e+7 
           7530      7.70323e+7 
           7550      7.62943e+7 
           7570      7.55695e+7 
           7590      7.48383e+7 
           7610      7.41267e+7 
           7630      7.34215e+7 
           7650      7.27227e+7 
           7670      7.20365e+7 
           7690      7.13501e+7 
           7710      7.06763e+7 
           7730      7.00084e+7 
           7750      6.93527e+7 
           7770      6.83035e+7 
           7790       6.8065e+7 
           7810      6.73956e+7 
           7830      6.67999e+7 
           7850      6.61114e+7 
           7870      6.55082e+7 
           7890      6.48074e+7 
           7910      6.44078e+7 
           7930      6.38257e+7 
           7950      6.31235e+7 
           7970      6.26114e+7 
           7990      6.19089e+7 
           8010      6.15179e+7 
           8030      6.09139e+7 
           8050      6.03325e+7 
           8070       5.9814e+7 
           8090      5.91675e+7 
           8110       5.8687e+7 
           8130      5.81878e+7 
           8150      5.76303e+7 
           8170      5.71735e+7 
           8190      5.65801e+7 
           8210      5.59638e+7 
           8230      5.55092e+7 
           8250      5.51441e+7 
           8270      5.44541e+7 
           8290      5.41719e+7 
           8310      5.37134e+7 
           8330      5.32338e+7 
           8350      5.25668e+7 
           8370      5.22347e+7 
           8390      5.18751e+7 
           8410      5.14236e+7 
           8430       5.0943e+7 
           8450      5.00742e+7 
           8470      5.00638e+7 
           8490       4.9512e+7 
           8510      4.91313e+7 
           8530       4.8648e+7 
           8550      4.80182e+7 
           8570      4.80621e+7 
