# Kurucz ODFNEW /NOVER (2003)
# teff = 28000 K (value for the effective temperature for the model. Temperatures are given in K)
# logg = 4 log(cm/s2) (value for Log(G) for the model.)
# meta = -2  (value for the Metallicity for the model.)
# lh = 1.25  (l/Hp where l is the  mixing length of the convective element and Hp is the pressure scale height)
# vtur = 2 km/s (Microturbulence velocity)
# alpha = 0.4  (Alpha)
#
# column 1: WAVELENGTH (ANGSTROM), Wavelength in Angstrom
# column 2: FLUX (ERG/CM2/S/A), Flux in erg/cm2/s/A
          147.2     6.62898e-11 
            151     2.51439e-10 
          155.2      1.01626e-9 
          158.8      3.17489e-9 
            162      8.37808e-9 
            166      2.67208e-8 
          170.3      8.75196e-8 
          173.4      1.98441e-7 
          176.8      4.71155e-7 
          180.2      1.08288e-6 
          181.7        1.548e-6 
          186.1       4.2733e-6 
            191      1.25274e-5 
          193.9      2.30784e-5 
          198.4      5.74973e-5 
          201.8     0.000111511 
            205      0.00020386 
          210.5     0.000551726 
          216.2      0.00146582 
          219.8       0.0026462 
            223      0.00440342 
          226.8      0.00791423 
            230         1.09209 
            234          2.7169 
            240         5.55774 
          246.5         11.7479 
          252.4         22.5668 
          256.8         31.3386 
            260         48.6399 
            264         69.7287 
          268.5         107.513 
          273.5         168.405 
          278.5         258.598 
            284         414.278 
            290         663.958 
            296          1039.9 
            301         1453.72 
            308         2182.29 
            318         4743.95 
            328          8644.7 
            338         15599.6 
            348         26719.2 
            357         43289.5 
            366         67856.1 
            375          100209 
            385          155470 
            395          232163 
            405          338798 
            414          472439 
            422          614943 
            430          798141 
            441      1.12801e+6 
            451       1.5273e+6 
            460      1.95362e+6 
            470      2.56872e+6 
            480      3.31012e+6 
            490      4.22185e+6 
            500      5.34941e+6 
            506      3.49441e+7 
            512      1.10942e+8 
            520      1.18727e+8 
            530      1.36301e+8 
            540      1.34891e+8 
            550      1.65238e+8 
            560      1.79799e+8 
            570      1.98615e+8 
            580      1.93673e+8 
            590       2.2844e+8 
            600      2.46528e+8 
            610      2.69107e+8 
            620      2.87496e+8 
            630      3.11018e+8 
            640      3.22979e+8 
            650      3.51888e+8 
            658      3.71148e+8 
            665      3.87859e+8 
            675      4.02829e+8 
            685      4.19904e+8 
            695      4.66356e+8 
            705      4.78293e+8 
            716      5.20088e+8 
            726      5.42991e+8 
            735      5.73115e+8 
            745      6.06772e+8 
            755      6.35184e+8 
            765      6.65557e+8 
            775      7.00615e+8 
            785      7.36677e+8 
            795      7.62728e+8 
            805      7.96508e+8 
            815      8.23646e+8 
            825      8.62804e+8 
            835      8.56742e+8 
            845      9.21688e+8 
            855      9.52356e+8 
            865      9.89574e+8 
            875      1.02746e+9 
            885      1.06411e+9 
            895      1.09794e+9 
            905      1.12146e+9 
            915      1.58868e+9 
            925     1.12302e+10 
            935     2.30345e+10 
            945     4.25781e+10 
            955     4.83208e+10 
            965     5.80128e+10 
            975     3.08711e+10 
            985     5.65662e+10 
            995     5.29653e+10 
           1005     5.46244e+10 
           1015     5.23466e+10 
           1025     3.00853e+10 
           1035     4.91087e+10 
           1045     5.31204e+10 
           1055     5.16984e+10 
           1065     4.78092e+10 
           1075     4.84463e+10 
           1085     4.51093e+10 
           1095       4.734e+10 
           1105     4.54349e+10 
           1115     4.44963e+10 
           1125     4.14823e+10 
           1135     4.29946e+10 
           1145      4.0836e+10 
           1155     4.09198e+10 
           1165     4.03258e+10 
           1175     3.49954e+10 
           1185     3.81579e+10 
           1195     3.66144e+10 
           1205     3.35937e+10 
           1215     2.00149e+10 
           1225     3.38488e+10 
           1235     3.46244e+10 
           1245      3.3645e+10 
           1255     3.33598e+10 
           1265     3.26296e+10 
           1275       3.218e+10 
           1285       3.151e+10 
           1295     2.92281e+10 
           1305     2.94057e+10 
           1315     2.95658e+10 
           1325     2.86448e+10 
           1335     2.77671e+10 
           1345     2.75619e+10 
           1355     2.72735e+10 
           1365     2.64326e+10 
           1375     2.60116e+10 
           1385     2.55686e+10 
           1395     2.36314e+10 
           1405     2.35233e+10 
           1415     2.38788e+10 
           1425     2.33556e+10 
           1435     2.30733e+10 
           1442     2.28879e+10 
           1447     2.26292e+10 
           1455     2.22316e+10 
           1465     2.17799e+10 
           1475     2.13626e+10 
           1485     2.09837e+10 
           1495     2.05387e+10 
           1505     1.99157e+10 
           1512     1.97597e+10 
           1517     1.95953e+10 
           1525     1.92558e+10 
           1535     1.84493e+10 
           1545      1.8033e+10 
           1555     1.76164e+10 
           1565     1.76227e+10 
           1575     1.74755e+10 
           1585     1.72032e+10 
           1595     1.69275e+10 
           1605     1.63399e+10 
           1615     1.60111e+10 
           1625     1.58203e+10 
           1635     1.55907e+10 
           1645     1.49577e+10 
           1655     1.51736e+10 
           1665     1.48927e+10 
           1672     1.46779e+10 
           1677     1.47553e+10 
           1685     1.45014e+10 
           1695     1.42062e+10 
           1705     1.39079e+10 
           1715     1.35643e+10 
           1725     1.33303e+10 
           1735     1.32496e+10 
           1745     1.30029e+10 
           1755      1.2805e+10 
           1765     1.24959e+10 
           1775     1.23112e+10 
           1785     1.21477e+10 
           1795     1.19928e+10 
           1805     1.18349e+10 
           1815     1.15813e+10 
           1825      1.1405e+10 
           1835     1.12295e+10 
           1845     1.08594e+10 
           1855     1.06079e+10 
           1865     1.05277e+10 
           1875     1.04659e+10 
           1885     1.01057e+10 
           1895      9.81986e+9 
           1905       9.8904e+9 
           1915      9.58737e+9 
           1925      9.40008e+9 
           1935      9.38245e+9 
           1945      9.32546e+9 
           1955      8.96082e+9 
           1967      8.99106e+9 
           1976      8.95613e+9 
           1984      8.72939e+9 
           1995      8.47248e+9 
           2005      8.51253e+9 
           2015      8.43419e+9 
           2025      8.33676e+9 
           2035      8.14969e+9 
           2045      8.02586e+9 
           2055       7.5423e+9 
           2065      7.39089e+9 
           2074      7.45274e+9 
           2078      7.33308e+9 
           2085      7.39823e+9 
           2095      7.35429e+9 
           2105      7.35711e+9 
           2115      7.28745e+9 
           2125      7.19641e+9 
           2135      7.08692e+9 
           2145       6.9686e+9 
           2155      6.89044e+9 
           2165      6.78161e+9 
           2175       6.6967e+9 
           2185      6.59048e+9 
           2195      6.51751e+9 
           2205      6.42475e+9 
           2215      6.31826e+9 
           2225      6.24219e+9 
           2235      6.15161e+9 
           2245      6.07204e+9 
           2255      5.96837e+9 
           2265      5.90441e+9 
           2275      5.82342e+9 
           2285      5.74161e+9 
           2295      5.58726e+9 
           2305      5.57122e+9 
           2315      5.50751e+9 
           2325      5.43341e+9 
           2335      5.35643e+9 
           2345      5.28988e+9 
           2355      5.21944e+9 
           2365       5.1498e+9 
           2375      5.07954e+9 
           2385      4.99882e+9 
           2395       4.9439e+9 
           2405      4.88118e+9 
           2415        4.815e+9 
           2425      4.75429e+9 
           2435      4.68851e+9 
           2445      4.62982e+9 
           2455      4.57068e+9 
           2465      4.51215e+9 
           2475      4.45319e+9 
           2485      4.39638e+9 
           2495      4.19484e+9 
           2505      4.28251e+9 
           2513      4.20428e+9 
           2518      4.20507e+9 
           2525      4.17647e+9 
           2535      4.12447e+9 
           2545      4.05385e+9 
           2555      4.01595e+9 
           2565      3.96952e+9 
           2575      3.92176e+9 
           2585      3.87338e+9 
           2595      3.82574e+9 
           2605      3.79876e+9 
           2615      3.75169e+9 
           2625      3.70495e+9 
           2635      3.65535e+9 
           2645      3.60972e+9 
           2655      3.56206e+9 
           2665      3.51363e+9 
           2675      3.46892e+9 
           2685      3.44454e+9 
           2695      3.38096e+9 
           2705      3.36115e+9 
           2715      3.32167e+9 
           2725      3.26025e+9 
           2735      3.23635e+9 
           2745      3.20461e+9 
           2755       3.1672e+9 
           2765      3.10727e+9 
           2775      3.09421e+9 
           2785      3.05746e+9 
           2795      3.00216e+9 
           2805       2.9816e+9 
           2815      2.95304e+9 
           2825      2.89323e+9 
           2835       2.8706e+9 
           2845       2.8525e+9 
           2855      2.81915e+9 
           2865       2.7873e+9 
           2875      2.75582e+9 
           2885      2.72512e+9 
           2895       2.6941e+9 
           2910      2.64829e+9 
           2930      2.58961e+9 
           2950      2.51657e+9 
           2970      2.47681e+9 
           2990      2.42246e+9 
           3010        2.369e+9 
           3030      2.31871e+9 
           3050      2.26933e+9 
           3070      2.22115e+9 
           3090      2.16956e+9 
           3110      2.12784e+9 
           3130      2.08436e+9 
           3150      2.04074e+9 
           3170      1.99816e+9 
           3190      1.94231e+9 
           3210      1.91496e+9 
           3230      1.87659e+9 
           3250      1.83851e+9 
           3270      1.80312e+9 
           3290      1.76467e+9 
           3310      1.73178e+9 
           3330      1.69712e+9 
           3350      1.66093e+9 
           3370      1.63086e+9 
           3390      1.59915e+9 
           3410      1.56807e+9 
           3430      1.53146e+9 
           3450      1.49695e+9 
           3470       1.4722e+9 
           3490       1.4439e+9 
           3510      1.42055e+9 
           3530      1.39591e+9 
           3550      1.36983e+9 
           3570      1.35077e+9 
           3590       1.3177e+9 
           3610      1.29634e+9 
           3630      1.26943e+9 
           3640      1.26605e+9 
           3650      1.25027e+9 
           3670      1.23254e+9 
           3690      1.20571e+9 
           3710       1.1653e+9 
           3730      1.12085e+9 
           3750      1.16117e+9 
           3770      1.15376e+9 
           3790      1.19564e+9 
           3810      1.23508e+9 
           3830      1.09514e+9 
           3850      1.24879e+9 
           3870      1.24565e+9 
           3890      1.03834e+9 
           3910      1.21791e+9 
           3930      1.19591e+9 
           3950      1.17596e+9 
           3970      9.62326e+8 
           3990      1.13058e+9 
           4010       1.1161e+9 
           4030      1.06251e+9 
           4050      1.08759e+9 
           4070      1.06222e+9 
           4090      9.98232e+8 
           4110       8.8691e+8 
           4130      9.99641e+8 
           4150      9.87645e+8 
           4170        9.775e+8 
           4190       9.6229e+8 
           4210      9.46346e+8 
           4230      9.30701e+8 
           4250      9.14308e+8 
           4270      8.97726e+8 
           4290      8.83479e+8 
           4310      8.65646e+8 
           4330       8.0239e+8 
           4350      7.36894e+8 
           4370      8.22488e+8 
           4390      7.95933e+8 
           4410      7.99171e+8 
           4430      7.85003e+8 
           4450      7.74804e+8 
           4470      7.36343e+8 
           4490      7.49774e+8 
           4510      7.38397e+8 
           4530      7.26678e+8 
           4550      7.14407e+8 
           4570       7.0328e+8 
           4590      6.92211e+8 
           4610      6.81733e+8 
           4630      6.71234e+8 
           4650      6.58085e+8 
           4670      6.50094e+8 
           4690      6.38807e+8 
           4710      6.23136e+8 
           4730      6.21178e+8 
           4750      6.11566e+8 
           4770      6.02607e+8 
           4790      5.93497e+8 
           4810      5.84371e+8 
           4830      5.73195e+8 
           4850      5.39201e+8 
           4870      4.87001e+8 
           4890      5.47037e+8 
           4910      5.41605e+8 
           4930      5.23641e+8 
           4950       5.2623e+8 
           4970      5.18861e+8 
           4990      5.11306e+8 
           5010      4.98482e+8 
           5030      4.96595e+8 
           5050      4.86982e+8 
           5070      4.82444e+8 
           5090      4.75519e+8 
           5110       4.6876e+8 
           5130      4.62092e+8 
           5150      4.55541e+8 
           5170       4.4912e+8 
           5190      4.42854e+8 
           5210      4.36629e+8 
           5230      4.30583e+8 
           5250      4.24589e+8 
           5270      4.18713e+8 
           5290      4.12942e+8 
           5310      4.07258e+8 
           5330      4.01688e+8 
           5350      3.96189e+8 
           5370      3.90814e+8 
           5390      3.85494e+8 
           5410      3.80152e+8 
           5430      3.75185e+8 
           5450       3.7014e+8 
           5470      3.65197e+8 
           5490      3.60329e+8 
           5510      3.55547e+8 
           5530      3.50836e+8 
           5550      3.46208e+8 
           5570       3.4165e+8 
           5590      3.37172e+8 
           5610      3.32761e+8 
           5630       3.2844e+8 
           5650       3.2416e+8 
           5670      3.19944e+8 
           5690      3.15755e+8 
           5710      3.11779e+8 
           5730      3.07794e+8 
           5750      3.03788e+8 
           5770      2.99999e+8 
           5790        2.962e+8 
           5810      2.92457e+8 
           5830      2.88747e+8 
           5850      2.85135e+8 
           5870      2.74187e+8 
           5890       2.7779e+8 
           5910      2.74576e+8 
           5930      2.71162e+8 
           5950        2.678e+8 
           5970      2.64518e+8 
           5990      2.61263e+8 
           6010      2.58057e+8 
           6030      2.54908e+8 
           6050      2.51805e+8 
           6070      2.48747e+8 
           6090      2.45735e+8 
           6110      2.42766e+8 
           6130      2.39851e+8 
           6150      2.36959e+8 
           6170      2.34129e+8 
           6190      2.31341e+8 
           6210      2.28593e+8 
           6230      2.25885e+8 
           6250      2.23217e+8 
           6270      2.20578e+8 
           6290      2.17987e+8 
           6310      2.15434e+8 
           6330      2.12919e+8 
           6350       2.1043e+8 
           6370      2.07997e+8 
           6390       2.0559e+8 
           6410      2.03209e+8 
           6430       2.0088e+8 
           6450      1.98568e+8 
           6470      1.96289e+8 
           6490      1.94044e+8 
           6510      1.91849e+8 
           6530      1.89182e+8 
           6550      1.82602e+8 
           6570      1.64133e+8 
           6590      1.82118e+8 
           6610       1.8119e+8 
           6630      1.79242e+8 
           6650      1.77322e+8 
           6670       1.7383e+8 
           6690      1.71934e+8 
           6710      1.71504e+8 
           6730      1.69588e+8 
           6750      1.67741e+8 
           6770      1.65905e+8 
           6790      1.64079e+8 
           6810      1.62296e+8 
           6830      1.60532e+8 
           6850      1.58793e+8 
           6870      1.57071e+8 
           6890      1.55367e+8 
           6910      1.53696e+8 
           6930      1.52057e+8 
           6950      1.50427e+8 
           6970       1.4882e+8 
           6990      1.47237e+8 
           7010      1.45678e+8 
           7030      1.44133e+8 
           7050      1.42612e+8 
           7070      1.38987e+8 
           7090      1.39628e+8 
           7110      1.38158e+8 
           7130      1.36717e+8 
           7150       1.3529e+8 
           7170      1.33862e+8 
           7190      1.32499e+8 
           7210      1.31127e+8 
           7230      1.29682e+8 
           7250       1.2843e+8 
           7270      1.27119e+8 
           7290      1.24841e+8 
           7310      1.24519e+8 
           7330      1.23265e+8 
           7350      1.22016e+8 
           7370      1.20779e+8 
           7390      1.19554e+8 
           7410      1.18354e+8 
           7430      1.17158e+8 
           7450         1.16e+8 
           7470      1.14826e+8 
           7490       1.1369e+8 
           7510      1.12524e+8 
           7530      1.11442e+8 
           7550      1.10337e+8 
           7570      1.09249e+8 
           7590       1.0817e+8 
           7610      1.07102e+8 
           7630      1.06055e+8 
           7650      1.05019e+8 
           7670      1.03992e+8 
           7690       1.0298e+8 
           7710      1.01977e+8 
           7730       1.0099e+8 
           7750      1.00012e+8 
           7770      9.90419e+7 
           7790      9.80995e+7 
           7810      9.71036e+7 
           7830      9.62272e+7 
           7850      9.53951e+7 
           7870       9.4479e+7 
           7890      9.35347e+7 
           7910       9.2701e+7 
           7930      9.18266e+7 
           7950       9.0942e+7 
           7970      8.99346e+7 
           7990      8.90954e+7 
           8010        8.824e+7 
           8030      8.74096e+7 
           8050      8.66386e+7 
           8070      8.58626e+7 
           8090      8.49206e+7 
           8110      8.42044e+7 
           8130      8.35341e+7 
           8150      8.26425e+7 
           8170      8.20127e+7 
           8190      8.11464e+7 
           8210      8.02933e+7 
           8230      7.97756e+7 
           8250      7.90793e+7 
           8270      7.79812e+7 
           8290      7.75779e+7 
           8310      7.68995e+7 
           8330      7.61778e+7 
           8350      7.51379e+7 
           8370      7.46878e+7 
           8390      7.41127e+7 
           8410       7.3441e+7 
           8430      7.27113e+7 
           8450       7.1613e+7 
           8470       7.1312e+7 
           8490      7.06471e+7 
           8510      6.98473e+7 
           8530      6.94735e+7 
           8550      6.79327e+7 
           8570      6.89855e+7 
           8590      6.63008e+7 
