# Kurucz ODFNEW /NOVER (2003)
# teff = 22000 K (value for the effective temperature for the model. Temperatures are given in K)
# logg = 5 log(cm/s2) (value for Log(G) for the model.)
# meta = 0  (value for the Metallicity for the model.)
# lh = 1.25  (l/Hp where l is the  mixing length of the convective element and Hp is the pressure scale height)
# vtur = 2 km/s (Microturbulence velocity)
# alpha = 0  (Alpha)
#
# column 1: WAVELENGTH (ANGSTROM), Wavelength in Angstrom
# column 2: FLUX (ERG/CM2/S/A), Flux in erg/cm2/s/A
          147.2      1.4406e-16 
            151     7.10352e-16 
          155.2     3.78559e-15 
          158.8     1.48058e-14 
            162     4.73582e-14 
            166     1.90402e-13 
          170.3     7.90321e-13 
          173.4     2.11697e-12 
          176.8     5.98522e-12 
          180.2     1.62864e-11 
          181.7     2.50298e-11 
          186.1     8.50527e-11 
            191     3.11454e-10 
          193.9     6.50828e-10 
          198.4      1.96057e-9 
          201.8      4.37506e-9 
            205      9.10157e-9 
          210.5      3.04596e-8 
          216.2      1.00085e-7 
          219.8      2.05816e-7 
            223      3.83176e-7 
          226.8      7.84392e-7 
            230      6.84166e-6 
            234      1.63431e-5 
            240      4.43213e-5 
          246.5     0.000122674 
          252.4     0.000297276 
          256.8     0.000546674 
            260      0.00087166 
            264      0.00149387 
          268.5      0.00268102 
          273.5      0.00500985 
          278.5      0.00919551 
            284       0.0175534 
            290       0.0342654 
            296       0.0649525 
            301        0.108622 
            308        0.214424 
            318        0.555535 
            328         1.31661 
            338         3.02448 
            348         6.54075 
            357         13.0078 
            366         24.4994 
            375         43.7073 
            385         81.3847 
            395         146.169 
            405         254.529 
            414         411.159 
            422         612.129 
            430         901.624 
            441         1504.59 
            451          2341.3 
            460          3404.1 
            470         5099.75 
            480         7472.45 
            490         10804.8 
            500         15355.5 
            506          103988 
            512          529474 
            520          660586 
            530          891369 
            540      1.01983e+6 
            550      1.44814e+6 
            560        1.727e+6 
            570      2.18594e+6 
            580      2.25411e+6 
            590       3.0041e+6 
            600      3.61692e+6 
            610      4.40604e+6 
            620      5.02842e+6 
            630      5.81363e+6 
            640      6.18384e+6 
            650      6.18879e+6 
            658      8.04728e+6 
            665      9.09824e+6 
            675      1.01677e+7 
            685       1.1266e+7 
            695      1.35639e+7 
            705      1.49032e+7 
            716       1.6948e+7 
            726      1.85629e+7 
            735       2.0192e+7 
            745      2.28858e+7 
            755      2.52933e+7 
            765      2.78602e+7 
            775      3.06941e+7 
            785      3.36555e+7 
            795      3.60311e+7 
            805       3.8908e+7 
            815      4.17381e+7 
            825       4.5771e+7 
            835      4.72148e+7 
            845      5.14814e+7 
            855      5.50233e+7 
            865      5.94882e+7 
            875      6.43017e+7 
            885      6.96869e+7 
            895      7.41631e+7 
            905      7.59967e+7 
            915      1.02392e+8 
            925      3.61832e+8 
            935      8.84138e+8 
            945      3.02573e+9 
            955      6.82597e+9 
            965       9.6591e+9 
            975      1.78639e+9 
            985     1.38414e+10 
            995     1.37849e+10 
           1005     1.62419e+10 
           1015     1.26696e+10 
           1025       2.0848e+9 
           1035      8.45793e+9 
           1045     1.89447e+10 
           1055     1.85538e+10 
           1065     1.45939e+10 
           1075     1.76661e+10 
           1085     1.56302e+10 
           1095     1.76205e+10 
           1105     1.55434e+10 
           1115      1.4764e+10 
           1125     1.31168e+10 
           1135     1.61152e+10 
           1145     1.36617e+10 
           1155     1.47885e+10 
           1165     1.50053e+10 
           1175     1.04176e+10 
           1185     1.46201e+10 
           1195     1.11571e+10 
           1205      6.44892e+9 
           1215      2.04743e+9 
           1225      6.96333e+9 
           1235     1.25071e+10 
           1245     1.32172e+10 
           1255     1.29538e+10 
           1265     1.23872e+10 
           1275     1.31007e+10 
           1285     1.32369e+10 
           1295      9.15212e+9 
           1305      8.81706e+9 
           1315     1.24178e+10 
           1325     1.15032e+10 
           1335     1.05266e+10 
           1345     1.14073e+10 
           1355     1.11554e+10 
           1365     1.00645e+10 
           1375     1.00037e+10 
           1385     1.00843e+10 
           1395      8.51986e+9 
           1405      8.94158e+9 
           1415      9.00794e+9 
           1425      9.07972e+9 
           1435      9.07766e+9 
           1442      9.39738e+9 
           1447      9.22388e+9 
           1455      8.99139e+9 
           1465      8.36459e+9 
           1475      8.33017e+9 
           1485      8.05333e+9 
           1495      8.05417e+9 
           1505      7.33575e+9 
           1512      6.66996e+9 
           1517      6.93956e+9 
           1525      7.11106e+9 
           1535      6.31457e+9 
           1545       6.4007e+9 
           1555      6.08681e+9 
           1565      6.27661e+9 
           1575       6.5987e+9 
           1585      6.55304e+9 
           1595      6.57745e+9 
           1605      6.50759e+9 
           1615      6.42985e+9 
           1625      6.24053e+9 
           1635      6.47714e+9 
           1645      6.40726e+9 
           1655      6.10574e+9 
           1665      6.44193e+9 
           1672      6.17262e+9 
           1677      6.36186e+9 
           1685       6.3483e+9 
           1695      6.03758e+9 
           1705      5.74614e+9 
           1715      5.45543e+9 
           1725      5.34957e+9 
           1735      5.56354e+9 
           1745       5.3682e+9 
           1755       5.4843e+9 
           1765      5.13827e+9 
           1775       5.0999e+9 
           1785      5.11883e+9 
           1795      5.28212e+9 
           1805      5.26689e+9 
           1815      4.80898e+9 
           1825      4.96794e+9 
           1835       4.7469e+9 
           1845      4.37142e+9 
           1855      4.28402e+9 
           1865      4.34218e+9 
           1875      4.61253e+9 
           1885      4.15871e+9 
           1895       3.9004e+9 
           1905      4.18137e+9 
           1915      3.93728e+9 
           1925      3.80936e+9 
           1935      3.94999e+9 
           1945      4.01902e+9 
           1955      3.69738e+9 
           1967      3.95961e+9 
           1976      4.10588e+9 
           1984       3.7971e+9 
           1995       3.7137e+9 
           2005      3.80766e+9 
           2015      3.70149e+9 
           2025       3.8721e+9 
           2035      3.57432e+9 
           2045      3.60485e+9 
           2055      3.48662e+9 
           2065      3.53245e+9 
           2074      3.63717e+9 
           2078       3.3898e+9 
           2085      3.49776e+9 
           2095       3.3084e+9 
           2105      3.38868e+9 
           2115      3.36959e+9 
           2125      3.41671e+9 
           2135       3.3142e+9 
           2145      3.19469e+9 
           2155      3.28695e+9 
           2165      3.23488e+9 
           2175      3.18872e+9 
           2185      3.11036e+9 
           2195      3.13885e+9 
           2205      3.07542e+9 
           2215      3.01738e+9 
           2225       2.9248e+9 
           2235      2.94628e+9 
           2245      2.92592e+9 
           2255      2.82816e+9 
           2265       2.8675e+9 
           2275      2.83412e+9 
           2285       2.8339e+9 
           2295      2.70855e+9 
           2305        2.718e+9 
           2315      2.64269e+9 
           2325      2.61088e+9 
           2335      2.51518e+9 
           2345       2.4824e+9 
           2355      2.49696e+9 
           2365      2.43359e+9 
           2375      2.42309e+9 
           2385      2.37248e+9 
           2395      2.39862e+9 
           2405      2.32276e+9 
           2415      2.31817e+9 
           2425      2.32625e+9 
           2435      2.24638e+9 
           2445      2.25948e+9 
           2455      2.25305e+9 
           2465      2.20282e+9 
           2475      2.17183e+9 
           2485      2.17739e+9 
           2495      2.09182e+9 
           2505      2.13195e+9 
           2513      2.03405e+9 
           2518      2.09847e+9 
           2525      2.04046e+9 
           2535      2.01038e+9 
           2545      1.96804e+9 
           2555      2.00189e+9 
           2565      1.97165e+9 
           2575      1.98102e+9 
           2585      1.97159e+9 
           2595      1.95133e+9 
           2605      1.92572e+9 
           2615      1.90898e+9 
           2625      1.88856e+9 
           2635      1.87371e+9 
           2645      1.88256e+9 
           2655      1.86648e+9 
           2665      1.80943e+9 
           2675      1.81388e+9 
           2685      1.80202e+9 
           2695      1.75371e+9 
           2705      1.74916e+9 
           2715      1.72459e+9 
           2725      1.69461e+9 
           2735      1.70571e+9 
           2745      1.63701e+9 
           2755      1.63403e+9 
           2765      1.62317e+9 
           2775      1.63962e+9 
           2785      1.61567e+9 
           2795      1.54954e+9 
           2805      1.57323e+9 
           2815      1.57633e+9 
           2825      1.54211e+9 
           2835       1.4885e+9 
           2845      1.50426e+9 
           2855      1.49707e+9 
           2865      1.49774e+9 
           2875      1.47572e+9 
           2885       1.4627e+9 
           2895       1.4487e+9 
           2910      1.42718e+9 
           2930      1.39389e+9 
           2950      1.35484e+9 
           2970      1.34349e+9 
           2990      1.31028e+9 
           3010      1.28752e+9 
           3030      1.27074e+9 
           3050      1.24441e+9 
           3070      1.22022e+9 
           3090      1.19181e+9 
           3110      1.17158e+9 
           3130      1.15162e+9 
           3150      1.12956e+9 
           3170      1.10482e+9 
           3190      1.07316e+9 
           3210      1.06524e+9 
           3230      1.04577e+9 
           3250      1.02706e+9 
           3270      1.00893e+9 
           3290      9.89219e+8 
           3310      9.73278e+8 
           3330      9.54929e+8 
           3350      9.35773e+8 
           3370      9.20353e+8 
           3390      9.04543e+8 
           3410      8.88715e+8 
           3430      8.69191e+8 
           3450      8.50945e+8 
           3470      8.38098e+8 
           3490      8.23416e+8 
           3510      8.09992e+8 
           3530      7.97272e+8 
           3550      7.84189e+8 
           3570      7.75752e+8 
           3590       7.5471e+8 
           3610      7.44694e+8 
           3630       7.3105e+8 
           3640      7.31133e+8 
           3650      7.19922e+8 
           3670      7.11481e+8 
           3690       7.0011e+8 
           3710      6.76707e+8 
           3730      6.49378e+8 
           3750      6.50533e+8 
           3770      6.38745e+8 
           3790      6.79834e+8 
           3810      7.17509e+8 
           3830      6.15011e+8 
           3850      7.50511e+8 
           3870      7.77964e+8 
           3890      5.73904e+8 
           3910      7.75385e+8 
           3930      7.72002e+8 
           3950      7.52638e+8 
           3970      5.36139e+8 
           3990      7.15261e+8 
           4010      7.34665e+8 
           4030      6.75153e+8 
           4050      7.23187e+8 
           4070      6.95515e+8 
           4090      6.06439e+8 
           4110      5.18011e+8 
           4130      6.48375e+8 
           4150      6.53931e+8 
           4170      6.53198e+8 
           4190       6.4747e+8 
           4210      6.39654e+8 
           4230      6.27472e+8 
           4250      6.14635e+8 
           4270      5.94985e+8 
           4290      5.91763e+8 
           4310      5.71986e+8 
           4330      4.86783e+8 
           4350      4.39752e+8 
           4370      5.39481e+8 
           4390      5.22926e+8 
           4410      5.37391e+8 
           4430      5.28614e+8 
           4450      5.23759e+8 
           4470       4.8011e+8 
           4490      5.03014e+8 
           4510      5.02211e+8 
           4530      4.92848e+8 
           4550      4.85831e+8 
           4570       4.7854e+8 
           4590       4.7141e+8 
           4610      4.62826e+8 
           4630      4.54724e+8 
           4650      4.47005e+8 
           4670      4.42822e+8 
           4690      4.37529e+8 
           4710      4.20202e+8 
           4730       4.2068e+8 
           4750      4.14407e+8 
           4770       4.1228e+8 
           4790      4.04559e+8 
           4810      3.95291e+8 
           4830       3.8403e+8 
           4850      3.36186e+8 
           4870      2.96229e+8 
           4890      3.64738e+8 
           4910      3.66992e+8 
           4930      3.50706e+8 
           4950       3.6007e+8 
           4970      3.56355e+8 
           4990      3.50871e+8 
           5010      3.36549e+8 
           5030      3.40057e+8 
           5050      3.30219e+8 
           5070      3.31635e+8 
           5090      3.26838e+8 
           5110       3.2163e+8 
           5130      3.15734e+8 
           5150      3.11284e+8 
           5170      3.09092e+8 
           5190       3.0491e+8 
           5210      2.98521e+8 
           5230      2.96614e+8 
           5250      2.92704e+8 
           5270      2.88493e+8 
           5290      2.85131e+8 
           5310      2.81143e+8 
           5330      2.77075e+8 
           5350       2.7269e+8 
           5370      2.70258e+8 
           5390      2.66622e+8 
           5410      2.62981e+8 
           5430      2.58888e+8 
           5450      2.55799e+8 
           5470      2.52371e+8 
           5490      2.49548e+8 
           5510      2.46263e+8 
           5530      2.43056e+8 
           5550      2.40133e+8 
           5570      2.36918e+8 
           5590      2.34057e+8 
           5610      2.30787e+8 
           5630      2.28282e+8 
           5650      2.23825e+8 
           5670      2.20995e+8 
           5690      2.18664e+8 
           5710      2.16685e+8 
           5730      2.14085e+8 
           5750       2.1131e+8 
           5770      2.08954e+8 
           5790      2.06311e+8 
           5810       2.0371e+8 
           5830      2.01139e+8 
           5850      1.98743e+8 
           5870      1.88196e+8 
           5890      1.91969e+8 
           5910      1.91395e+8 
           5930      1.89131e+8 
           5950      1.86393e+8 
           5970      1.84777e+8 
           5990      1.82222e+8 
           6010      1.80427e+8 
           6030      1.78186e+8 
           6050      1.76124e+8 
           6070      1.74066e+8 
           6090      1.71919e+8 
           6110      1.69998e+8 
           6130      1.68038e+8 
           6150      1.65383e+8 
           6170      1.63996e+8 
           6190      1.62201e+8 
           6210      1.60327e+8 
           6230      1.58436e+8 
           6250      1.56285e+8 
           6270      1.54753e+8 
           6290      1.53009e+8 
           6310      1.51123e+8 
           6330      1.49568e+8 
           6350      1.47104e+8 
           6370      1.45755e+8 
           6390      1.44456e+8 
           6410      1.42786e+8 
           6430      1.41362e+8 
           6450       1.3968e+8 
           6470      1.37864e+8 
           6490      1.36202e+8 
           6510      1.34326e+8 
           6530      1.31579e+8 
           6550      1.21767e+8 
           6570      1.06382e+8 
           6590      1.24821e+8 
           6610      1.26801e+8 
           6630      1.26037e+8 
           6650      1.24913e+8 
           6670      1.21862e+8 
           6690      1.20705e+8 
           6710      1.21125e+8 
           6730      1.19782e+8 
           6750      1.18577e+8 
           6770      1.17327e+8 
           6790      1.15534e+8 
           6810      1.14726e+8 
           6830      1.13522e+8 
           6850      1.12387e+8 
           6870      1.11214e+8 
           6890       1.1003e+8 
           6910      1.08873e+8 
           6930      1.07657e+8 
           6950      1.06625e+8 
           6970      1.05526e+8 
           6990      1.04414e+8 
           7010      1.03313e+8 
           7030      1.02253e+8 
           7050      1.01128e+8 
           7070      9.83184e+7 
           7090      9.91585e+7 
           7110      9.80872e+7 
           7130      9.71004e+7 
           7150      9.61085e+7 
           7170      9.51627e+7 
           7190      9.42259e+7 
           7210      9.32763e+7 
           7230      9.12763e+7 
           7250       9.1354e+7 
           7270      9.04885e+7 
           7290      8.87947e+7 
           7310      8.86831e+7 
           7330      8.78142e+7 
           7350      8.69464e+7 
           7370      8.60868e+7 
           7390       8.5242e+7 
           7410      8.44051e+7 
           7430      8.35078e+7 
           7450       8.2741e+7 
           7470      8.18529e+7 
           7490      8.11075e+7 
           7510      8.03154e+7 
           7530      7.95571e+7 
           7550      7.88123e+7 
           7570      7.80611e+7 
           7590      7.72971e+7 
           7610      7.65661e+7 
           7630      7.58352e+7 
           7650      7.51109e+7 
           7670      7.43931e+7 
           7690      7.36881e+7 
           7710      7.29895e+7 
           7730      7.22907e+7 
           7750       7.1617e+7 
           7770      7.04938e+7 
           7790       7.0275e+7 
           7810      6.95882e+7 
           7830      6.89751e+7 
           7850      6.82328e+7 
           7870      6.76249e+7 
           7890       6.6871e+7 
           7910       6.6467e+7 
           7930      6.58866e+7 
           7950      6.51323e+7 
           7970      6.46041e+7 
           7990      6.38798e+7 
           8010      6.34438e+7 
           8030      6.28302e+7 
           8050      6.22103e+7 
           8070      6.16883e+7 
           8090       6.1044e+7 
           8110      6.05371e+7 
           8130      6.00174e+7 
           8150      5.94679e+7 
           8170      5.89852e+7 
           8190      5.83661e+7 
           8210      5.77188e+7 
           8230      5.72328e+7 
           8250      5.68782e+7 
           8270      5.61462e+7 
           8290      5.58592e+7 
           8310      5.53997e+7 
           8330      5.48951e+7 
           8350      5.41948e+7 
           8370      5.38554e+7 
           8390      5.34989e+7 
           8410      5.30306e+7 
           8430      5.25301e+7 
           8450      5.15911e+7 
           8470      5.16282e+7 
           8490      5.10413e+7 
           8510      5.06607e+7 
           8530      5.01583e+7 
           8550      4.95246e+7 
           8570      4.95548e+7 
           8590      4.80765e+7 
