# Kurucz ODFNEW /NOVER (2003)
# teff = 28000 K (value for the effective temperature for the model. Temperatures are given in K)
# logg = 5 log(cm/s2) (value for Log(G) for the model.)
# meta = 0.2  (value for the Metallicity for the model.)
# lh = 1.25  (l/Hp where l is the  mixing length of the convective element and Hp is the pressure scale height)
# vtur = 2 km/s (Microturbulence velocity)
# alpha = 0.4  (Alpha)
#
# column 1: WAVELENGTH (ANGSTROM), Wavelength in Angstrom
# column 2: FLUX (ERG/CM2/S/A), Flux in erg/cm2/s/A
          147.2     1.32793e-10 
            151     4.48272e-10 
          155.2      1.60814e-9 
          158.8      4.56424e-9 
            162      1.11227e-8 
            166      3.23329e-8 
          170.3      9.60201e-8 
          173.4      2.05583e-7 
          176.8      4.57753e-7 
          180.2      9.90538e-7 
          181.7      1.37901e-6 
          186.1      3.54983e-6 
            191      9.71807e-6 
          193.9      1.72457e-5 
          198.4      4.06556e-5 
          201.8      7.59051e-5 
            205     0.000134197 
          210.5     0.000344725 
          216.2     0.000873912 
          219.8      0.00153711 
            223      0.00250398 
          226.8      0.00444305 
            230        0.145678 
            234        0.309572 
            240        0.646111 
          246.5         1.38416 
          252.4         2.69553 
          256.8         4.15723 
            260         6.22439 
            264         9.07067 
          268.5         14.4192 
          273.5         23.1883 
          278.5         36.3658 
            284         65.3307 
            290           107.2 
            296         173.522 
            301          254.09 
            308         455.622 
            318         971.143 
            328         1815.92 
            338         3527.43 
            348         6348.19 
            357         29955.3 
            366           64020 
            375         90851.7 
            385          146424 
            395          300659 
            405          422699 
            414          624014 
            422          796915 
            430      1.06955e+6 
            441      1.49434e+6 
            451      1.94883e+6 
            460        2.411e+6 
            470      3.20911e+6 
            480      4.11328e+6 
            490       5.2899e+6 
            500      6.64038e+6 
            506      2.25005e+7 
            512      1.56875e+8 
            520      1.63314e+8 
            530      1.81538e+8 
            540      1.76531e+8 
            550      2.50285e+8 
            560      2.89587e+8 
            570      3.25107e+8 
            580       3.0387e+8 
            590      3.79132e+8 
            600      3.85844e+8 
            610      4.42943e+8 
            620      4.74391e+8 
            630      4.86046e+8 
            640       4.4538e+8 
            650      4.42624e+8 
            658      5.06078e+8 
            665       5.7071e+8 
            675      5.89505e+8 
            685      5.74803e+8 
            695      7.56945e+8 
            705      7.32122e+8 
            716      8.39649e+8 
            726      8.43052e+8 
            735      8.73857e+8 
            745      9.70764e+8 
            755      1.00688e+9 
            765      1.06544e+9 
            775      1.11741e+9 
            785      1.17911e+9 
            795      1.18844e+9 
            805       1.2152e+9 
            815      1.23258e+9 
            825      1.32238e+9 
            835      1.11875e+9 
            845      1.32489e+9 
            855      1.33572e+9 
            865      1.40461e+9 
            875      1.46071e+9 
            885      1.55329e+9 
            895       1.6031e+9 
            905      1.57081e+9 
            915      1.75674e+9 
            925      6.62956e+9 
            935     1.48916e+10 
            945     3.25898e+10 
            955     4.39258e+10 
            965     5.67466e+10 
            975     1.09215e+10 
            985     5.15495e+10 
            995     4.61843e+10 
           1005     5.25842e+10 
           1015     5.27013e+10 
           1025     2.20162e+10 
           1035     4.31055e+10 
           1045     6.45117e+10 
           1055     5.96086e+10 
           1065     4.39796e+10 
           1075     5.18171e+10 
           1085     4.76406e+10 
           1095     5.32532e+10 
           1105     4.68758e+10 
           1115      4.4066e+10 
           1125     3.20851e+10 
           1135     4.60331e+10 
           1145     3.98159e+10 
           1155     4.11401e+10 
           1165     4.12946e+10 
           1175     2.44417e+10 
           1185     3.84959e+10 
           1195      3.4707e+10 
           1205     2.31581e+10 
           1215     1.57467e+10 
           1225     2.98798e+10 
           1235     3.62521e+10 
           1245     3.53828e+10 
           1255     3.47184e+10 
           1265     3.54735e+10 
           1275     3.63306e+10 
           1285     3.60023e+10 
           1295     2.42725e+10 
           1305     2.61428e+10 
           1315     3.47226e+10 
           1325     3.20009e+10 
           1335     3.14176e+10 
           1345     3.03837e+10 
           1355     3.08212e+10 
           1365     2.74678e+10 
           1375     2.63962e+10 
           1385     2.53271e+10 
           1395     1.58569e+10 
           1405     1.82362e+10 
           1415     2.28044e+10 
           1425     2.20681e+10 
           1435     2.30312e+10 
           1442     2.38463e+10 
           1447     2.34551e+10 
           1455     2.25056e+10 
           1465     2.07583e+10 
           1475     2.10908e+10 
           1485     2.05976e+10 
           1495     2.01712e+10 
           1505     1.78184e+10 
           1512      1.6422e+10 
           1517     1.68795e+10 
           1525     1.73249e+10 
           1535     1.44984e+10 
           1545     1.38121e+10 
           1555     1.34323e+10 
           1565     1.45937e+10 
           1575     1.55043e+10 
           1585     1.53617e+10 
           1595     1.54022e+10 
           1605     1.54975e+10 
           1615     1.49234e+10 
           1625     1.47603e+10 
           1635     1.54907e+10 
           1645     1.54964e+10 
           1655     1.52561e+10 
           1665     1.53669e+10 
           1672      1.4589e+10 
           1677     1.61605e+10 
           1685     1.55364e+10 
           1695     1.46783e+10 
           1705     1.41684e+10 
           1715     1.34926e+10 
           1725     1.29732e+10 
           1735     1.35362e+10 
           1745     1.33481e+10 
           1755     1.32808e+10 
           1765     1.30679e+10 
           1775     1.21869e+10 
           1785     1.23558e+10 
           1795     1.26897e+10 
           1805     1.27322e+10 
           1815     1.15081e+10 
           1825     1.18653e+10 
           1835     1.14253e+10 
           1845     1.03634e+10 
           1855     1.05767e+10 
           1865     1.06936e+10 
           1875     1.09387e+10 
           1885      9.81184e+9 
           1895      9.16681e+9 
           1905      9.86372e+9 
           1915      9.28185e+9 
           1925      8.74393e+9 
           1935       9.3077e+9 
           1945      9.52453e+9 
           1955      8.53441e+9 
           1967      9.22085e+9 
           1976      9.69665e+9 
           1984      8.88166e+9 
           1995      8.77859e+9 
           2005      9.01877e+9 
           2015      8.90637e+9 
           2025      9.07927e+9 
           2035      8.34145e+9 
           2045      8.45006e+9 
           2055       7.9755e+9 
           2065      7.98237e+9 
           2074      8.17266e+9 
           2078      7.59246e+9 
           2085      7.90632e+9 
           2095      7.50605e+9 
           2105      7.87429e+9 
           2115      7.90149e+9 
           2125      7.93058e+9 
           2135      7.75902e+9 
           2145      7.40624e+9 
           2155      7.66288e+9 
           2165      7.57232e+9 
           2175      7.45388e+9 
           2185        7.247e+9 
           2195      7.29669e+9 
           2205      7.25646e+9 
           2215       7.1219e+9 
           2225      6.92668e+9 
           2235      6.81763e+9 
           2245      6.84956e+9 
           2255      6.62018e+9 
           2265      6.67957e+9 
           2275      6.56828e+9 
           2285      6.48811e+9 
           2295      5.90276e+9 
           2305      6.26256e+9 
           2315      6.10805e+9 
           2325      6.04481e+9 
           2335      5.87582e+9 
           2345      5.91885e+9 
           2355      5.85945e+9 
           2365      5.79809e+9 
           2375      5.65546e+9 
           2385      5.60833e+9 
           2395      5.53184e+9 
           2405      5.44471e+9 
           2415      5.36683e+9 
           2425      5.35072e+9 
           2435      5.18925e+9 
           2445      5.17771e+9 
           2455      5.15174e+9 
           2465       5.0833e+9 
           2475      4.99729e+9 
           2485      4.87626e+9 
           2495      4.03132e+9 
           2505      4.69082e+9 
           2513      4.52356e+9 
           2518      4.63752e+9 
           2525      4.64895e+9 
           2535       4.6168e+9 
           2545      4.40365e+9 
           2555      4.46222e+9 
           2565      4.37985e+9 
           2575      4.40027e+9 
           2585      4.35197e+9 
           2595      4.30574e+9 
           2605      4.26137e+9 
           2615      4.19925e+9 
           2625      4.16535e+9 
           2635      4.11763e+9 
           2645      4.05909e+9 
           2655      4.02189e+9 
           2665      3.86085e+9 
           2675      3.87316e+9 
           2685      3.86547e+9 
           2695      3.72024e+9 
           2705        3.652e+9 
           2715      3.65193e+9 
           2725        3.627e+9 
           2735      3.59715e+9 
           2745      3.52135e+9 
           2755      3.50546e+9 
           2765      3.45176e+9 
           2775       3.4827e+9 
           2785      3.41728e+9 
           2795      3.26768e+9 
           2805      3.31054e+9 
           2815      3.32405e+9 
           2825      3.26233e+9 
           2835      3.14654e+9 
           2845      3.19726e+9 
           2855      3.13381e+9 
           2865      3.12193e+9 
           2875      3.08111e+9 
           2885      3.04557e+9 
           2895       2.9998e+9 
           2910      2.91993e+9 
           2930      2.89363e+9 
           2950      2.80202e+9 
           2970      2.76372e+9 
           2990      2.68916e+9 
           3010      2.58177e+9 
           3030      2.56368e+9 
           3050       2.5277e+9 
           3070      2.49471e+9 
           3090      2.37884e+9 
           3110      2.37748e+9 
           3130      2.30801e+9 
           3150      2.27412e+9 
           3170      2.21339e+9 
           3190      2.16395e+9 
           3210      2.13923e+9 
           3230      2.08155e+9 
           3250      2.05244e+9 
           3270      2.00278e+9 
           3290      1.96239e+9 
           3310      1.92517e+9 
           3330      1.88112e+9 
           3350      1.84811e+9 
           3370      1.80637e+9 
           3390      1.78122e+9 
           3410      1.74597e+9 
           3430      1.71033e+9 
           3450      1.66919e+9 
           3470      1.63734e+9 
           3490      1.60331e+9 
           3510      1.57687e+9 
           3530      1.55367e+9 
           3550       1.5224e+9 
           3570      1.50143e+9 
           3590      1.45262e+9 
           3610      1.43487e+9 
           3630      1.40623e+9 
           3640      1.40696e+9 
           3650      1.38484e+9 
           3670       1.3692e+9 
           3690      1.34624e+9 
           3710      1.29331e+9 
           3730      1.25557e+9 
           3750      1.23811e+9 
           3770      1.19516e+9 
           3790      1.23357e+9 
           3810      1.27538e+9 
           3830      1.11866e+9 
           3850      1.29355e+9 
           3870      1.29651e+9 
           3890      1.04596e+9 
           3910       1.3043e+9 
           3930      1.27386e+9 
           3950      1.24393e+9 
           3970      9.70955e+8 
           3990      1.20056e+9 
           4010      1.21223e+9 
           4030      1.13161e+9 
           4050      1.17324e+9 
           4070      1.10238e+9 
           4090      1.00834e+9 
           4110      8.97749e+8 
           4130      1.05821e+9 
           4150      1.05736e+9 
           4170      1.06007e+9 
           4190      1.04546e+9 
           4210      1.03929e+9 
           4230      1.01345e+9 
           4250      9.76128e+8 
           4270      9.48038e+8 
           4290      9.34265e+8 
           4310      8.99676e+8 
           4330      8.13582e+8 
           4350      7.45197e+8 
           4370      8.56735e+8 
           4390      8.50374e+8 
           4410      8.52015e+8 
           4430      8.49484e+8 
           4450      8.31611e+8 
           4470      7.82574e+8 
           4490      8.04134e+8 
           4510      8.03815e+8 
           4530      7.91262e+8 
           4550      7.79481e+8 
           4570      7.65368e+8 
           4590      7.51292e+8 
           4610      7.31439e+8 
           4630      7.20951e+8 
           4650      6.95249e+8 
           4670      6.99913e+8 
           4690      6.94316e+8 
           4710      6.60972e+8 
           4730      6.72552e+8 
           4750       6.6079e+8 
           4770      6.61254e+8 
           4790      6.48585e+8 
           4810      6.31136e+8 
           4830      6.14374e+8 
           4850      5.61639e+8 
           4870      5.01662e+8 
           4890      5.88629e+8 
           4910      5.86313e+8 
           4930      5.63012e+8 
           4950      5.68573e+8 
           4970      5.67804e+8 
           4990      5.58147e+8 
           5010      5.32252e+8 
           5030      5.39672e+8 
           5050      5.26291e+8 
           5070      5.27042e+8 
           5090      5.16612e+8 
           5110      5.08277e+8 
           5130      4.98008e+8 
           5150      4.92103e+8 
           5170      4.87767e+8 
           5190      4.81889e+8 
           5210       4.7277e+8 
           5230       4.6872e+8 
           5250      4.62326e+8 
           5270      4.54415e+8 
           5290      4.49626e+8 
           5310      4.42932e+8 
           5330      4.36644e+8 
           5350      4.29542e+8 
           5370      4.25329e+8 
           5390      4.18833e+8 
           5410      4.13503e+8 
           5430      4.07306e+8 
           5450      4.01253e+8 
           5470      3.95856e+8 
           5490      3.91277e+8 
           5510      3.86767e+8 
           5530      3.80697e+8 
           5550      3.76515e+8 
           5570      3.71266e+8 
           5590      3.66758e+8 
           5610      3.61358e+8 
           5630      3.57274e+8 
           5650      3.50241e+8 
           5670        3.444e+8 
           5690      3.39225e+8 
           5710       3.3698e+8 
           5730       3.3376e+8 
           5750      3.27967e+8 
           5770      3.25822e+8 
           5790       3.2135e+8 
           5810      3.17233e+8 
           5830      3.12499e+8 
           5850      3.08979e+8 
           5870      2.94457e+8 
           5890      2.97901e+8 
           5910      2.96212e+8 
           5930      2.92503e+8 
           5950       2.8839e+8 
           5970      2.86895e+8 
           5990      2.81843e+8 
           6010      2.79501e+8 
           6030      2.75474e+8 
           6050       2.7239e+8 
           6070      2.69452e+8 
           6090      2.66121e+8 
           6110      2.62919e+8 
           6130      2.59943e+8 
           6150      2.55028e+8 
           6170      2.52724e+8 
           6190      2.50425e+8 
           6210      2.47622e+8 
           6230      2.44783e+8 
           6250      2.41116e+8 
           6270      2.38555e+8 
           6290      2.35993e+8 
           6310      2.32797e+8 
           6330      2.30529e+8 
           6350      2.26659e+8 
           6370      2.24885e+8 
           6390      2.22326e+8 
           6410      2.19694e+8 
           6430      2.17509e+8 
           6450      2.14841e+8 
           6470      2.11202e+8 
           6490      2.09159e+8 
           6510       2.0665e+8 
           6530       2.0262e+8 
           6550       1.9184e+8 
           6570      1.68654e+8 
           6590      1.93517e+8 
           6610      1.94771e+8 
           6630      1.93435e+8 
           6650      1.91174e+8 
           6670      1.86913e+8 
           6690      1.85006e+8 
           6710       1.8521e+8 
           6730      1.82589e+8 
           6750      1.81318e+8 
           6770      1.79319e+8 
           6790      1.75772e+8 
           6810      1.75042e+8 
           6830      1.72872e+8 
           6850       1.7147e+8 
           6870      1.69547e+8 
           6890       1.6739e+8 
           6910      1.65184e+8 
           6930      1.64106e+8 
           6950      1.62445e+8 
           6970      1.60716e+8 
           6990      1.58918e+8 
           7010      1.57177e+8 
           7030      1.55461e+8 
           7050      1.53852e+8 
           7070      1.49479e+8 
           7090       1.5054e+8 
           7110      1.48331e+8 
           7130      1.46847e+8 
           7150      1.45732e+8 
           7170      1.44393e+8 
           7190      1.42942e+8 
           7210      1.41454e+8 
           7230      1.37862e+8 
           7250      1.38113e+8 
           7270      1.37076e+8 
           7290      1.34454e+8 
           7310      1.34241e+8 
           7330      1.32829e+8 
           7350      1.31507e+8 
           7370      1.30205e+8 
           7390      1.28874e+8 
           7410      1.27568e+8 
           7430      1.26145e+8 
           7450      1.24933e+8 
           7470      1.22698e+8 
           7490      1.22292e+8 
           7510      1.21181e+8 
           7530      1.19834e+8 
           7550      1.18836e+8 
           7570       1.1767e+8 
           7590      1.16462e+8 
           7610      1.15025e+8 
           7630      1.14164e+8 
           7650      1.13027e+8 
           7670      1.11958e+8 
           7690      1.10848e+8 
           7710      1.09741e+8 
           7730      1.08581e+8 
           7750      1.07651e+8 
           7770      1.05869e+8 
           7790      1.05574e+8 
           7810      1.04509e+8 
           7830      1.03552e+8 
           7850      1.02462e+8 
           7870      1.01261e+8 
           7890      1.00004e+8 
           7910      9.95711e+7 
           7930      9.86022e+7 
           7950      9.74987e+7 
           7970      9.66779e+7 
           7990      9.55985e+7 
           8010      9.48986e+7 
           8030      9.39415e+7 
           8050      9.30625e+7 
           8070      9.22547e+7 
           8090      9.12869e+7 
           8110       8.9663e+7 
           8130      8.96726e+7 
           8150      8.88474e+7 
           8170      8.81025e+7 
           8190      8.66169e+7 
           8210      8.60165e+7 
           8230      8.50316e+7 
           8250      8.48191e+7 
           8270      8.29937e+7 
           8290      8.31584e+7 
           8310      8.25458e+7 
           8330      8.18242e+7 
           8350      8.06978e+7 
           8370      8.00975e+7 
           8390      7.96198e+7 
           8410      7.88367e+7 
           8430      7.81715e+7 
           8450      7.67045e+7 
           8470      7.68048e+7 
           8490      7.58893e+7 
           8510      7.53198e+7 
           8530      7.45683e+7 
           8550      7.37973e+7 
           8570      7.35199e+7 
