# Kurucz ODFNEW /NOVER (2003)
# teff = 19000 K (value for the effective temperature for the model. Temperatures are given in K)
# logg = 4 log(cm/s2) (value for Log(G) for the model.)
# meta = -0.5  (value for the Metallicity for the model.)
# lh = 1.25  (l/Hp where l is the  mixing length of the convective element and Hp is the pressure scale height)
# vtur = 2 km/s (Microturbulence velocity)
# alpha = 0.4  (Alpha)
#
# column 1: WAVELENGTH (ANGSTROM), Wavelength in Angstrom
# column 2: FLUX (ERG/CM2/S/A), Flux in erg/cm2/s/A
          147.2      2.9425e-21 
            151     1.92933e-20 
          155.2     1.38268e-19 
          158.8     6.87459e-19 
            162     2.70116e-18 
            166     1.38874e-17 
          170.3     7.40921e-17 
          173.4     2.35867e-16 
          176.8     8.01662e-16 
          180.2     2.60562e-15 
          181.7     4.32256e-15 
          186.1     1.82539e-14 
            191     8.41649e-14 
          193.9     2.00393e-13 
          198.4     7.33972e-13 
          201.8      1.8896e-12 
            205     4.48131e-12 
          210.5     1.85796e-11 
          216.2     7.53935e-11 
          219.8     1.76153e-10 
            223     3.65851e-10 
          226.8     8.49794e-10 
            230      3.93358e-9 
            234      1.02287e-8 
            240      3.35675e-8 
          246.5      1.12884e-7 
          252.4      3.22675e-7 
          256.8      6.73239e-7 
            260      1.16045e-6 
            264      2.20889e-6 
          268.5      4.44442e-6 
          273.5      9.39831e-6 
          278.5      1.94057e-5 
            284       4.1851e-5 
            290      9.32685e-5 
            296     0.000200761 
            301     0.000372131 
            308     0.000844528 
            318      0.00261659 
            328      0.00742751 
            338        0.019986 
            348       0.0504633 
            357        0.111935 
            366        0.237538 
            375        0.480847 
            385         1.01537 
            395         2.05384 
            405         4.01202 
            414         7.12901 
            422         11.5764 
            430         18.4227 
            441          34.155 
            451         58.1335 
            460         91.6222 
            470         148.792 
            480         236.126 
            490         367.566 
            500         561.071 
            506         6121.58 
            512           21594 
            520         28168.3 
            530           41455 
            540         48844.3 
            550         74332.1 
            560         94710.9 
            570          124347 
            580          133087 
            590          187834 
            600          244319 
            610          309817 
            620          372486 
            630          454638 
            640          527035 
            650          613253 
            658          752312 
            665          832745 
            675          959136 
            685      1.12033e+6 
            695      1.35046e+6 
            705      1.54777e+6 
            716      1.81995e+6 
            726      2.06249e+6 
            735      2.32959e+6 
            745      2.69808e+6 
            755       3.0755e+6 
            765      3.47198e+6 
            775      3.93994e+6 
            785      4.43529e+6 
            795      4.90188e+6 
            805       5.4637e+6 
            815      6.01542e+6 
            825      6.73007e+6 
            835      7.19769e+6 
            845      8.02606e+6 
            855      8.80156e+6 
            865      9.69887e+6 
            875       1.0654e+7 
            885      1.17508e+7 
            895      1.27694e+7 
            905      1.34363e+7 
            915      2.27534e+7 
            925      1.01251e+8 
            935      3.49755e+8 
            945      1.57876e+9 
            955      3.36998e+9 
            965      4.77615e+9 
            975      8.82473e+8 
            985      6.45922e+9 
            995      6.22349e+9 
           1005      7.09577e+9 
           1015      6.05853e+9 
           1025      9.86444e+8 
           1035      4.02358e+9 
           1045      8.25267e+9 
           1055      7.93653e+9 
           1065      6.58647e+9 
           1075      7.76751e+9 
           1085      7.02496e+9 
           1095       7.8282e+9 
           1105      6.69429e+9 
           1115       6.3187e+9 
           1125      6.11727e+9 
           1135      7.38559e+9 
           1145      6.46434e+9 
           1155      6.87984e+9 
           1165       7.1328e+9 
           1175      5.67485e+9 
           1185      7.05262e+9 
           1195      4.69637e+9 
           1205      2.50601e+9 
           1215        8.064e+8 
           1225       3.5684e+9 
           1235      6.12879e+9 
           1245      6.57953e+9 
           1255      6.37536e+9 
           1265      5.81071e+9 
           1275      6.27517e+9 
           1285      6.37159e+9 
           1295      4.23157e+9 
           1305      3.85993e+9 
           1315      6.00946e+9 
           1325      5.75794e+9 
           1335      5.25452e+9 
           1345       5.6871e+9 
           1355      5.57782e+9 
           1365      5.11708e+9 
           1375       5.1284e+9 
           1385      5.19641e+9 
           1395      4.53076e+9 
           1405      4.74856e+9 
           1415      4.77595e+9 
           1425      4.82065e+9 
           1435      4.82432e+9 
           1442       4.9758e+9 
           1447      4.89613e+9 
           1455      4.78354e+9 
           1465      4.56679e+9 
           1475      4.48153e+9 
           1485      4.35851e+9 
           1495      4.35248e+9 
           1505      4.08427e+9 
           1512      3.81303e+9 
           1517      3.96228e+9 
           1525       3.9874e+9 
           1535      3.65709e+9 
           1545      3.76773e+9 
           1555      3.56004e+9 
           1565      3.59006e+9 
           1575      3.74144e+9 
           1585      3.71132e+9 
           1595      3.75245e+9 
           1605      3.64485e+9 
           1615      3.61675e+9 
           1625      3.50004e+9 
           1635      3.58546e+9 
           1645      3.54813e+9 
           1655      3.36248e+9 
           1665      3.54263e+9 
           1672      3.40522e+9 
           1677      3.47081e+9 
           1685      3.48185e+9 
           1695      3.33953e+9 
           1705      3.19135e+9 
           1715      3.04844e+9 
           1725      3.01903e+9 
           1735      3.10046e+9 
           1745      3.01146e+9 
           1755      3.06787e+9 
           1765      2.87007e+9 
           1775      2.89773e+9 
           1785      2.87753e+9 
           1795      2.95395e+9 
           1805      2.92431e+9 
           1815      2.73802e+9 
           1825      2.80243e+9 
           1835      2.70473e+9 
           1845       2.5283e+9 
           1855      2.46684e+9 
           1865      2.49007e+9 
           1875      2.60749e+9 
           1885      2.40687e+9 
           1895      2.27704e+9 
           1905      2.41639e+9 
           1915      2.30451e+9 
           1925      2.24332e+9 
           1935      2.30431e+9 
           1945      2.32141e+9 
           1955      2.17707e+9 
           1967      2.30083e+9 
           1976      2.36405e+9 
           1984      2.22376e+9 
           1995      2.16296e+9 
           2005      2.20301e+9 
           2015      2.15104e+9 
           2025      2.23192e+9 
           2035      2.10033e+9 
           2045      2.10515e+9 
           2055      2.01897e+9 
           2065      2.05936e+9 
           2074      2.09968e+9 
           2078      2.00549e+9 
           2085      2.04526e+9 
           2095      1.95419e+9 
           2105      1.98379e+9 
           2115      1.97038e+9 
           2125      1.99693e+9 
           2135      1.94232e+9 
           2145      1.88749e+9 
           2155      1.92566e+9 
           2165      1.88878e+9 
           2175        1.865e+9 
           2185      1.83108e+9 
           2195      1.84384e+9 
           2205      1.80406e+9 
           2215      1.76992e+9 
           2225      1.71813e+9 
           2235      1.74261e+9 
           2245       1.7236e+9 
           2255      1.67331e+9 
           2265      1.68882e+9 
           2275       1.6751e+9 
           2285      1.67447e+9 
           2295      1.61813e+9 
           2305      1.60944e+9 
           2315      1.57567e+9 
           2325      1.56145e+9 
           2335      1.50471e+9 
           2345      1.47608e+9 
           2355      1.49278e+9 
           2365      1.45095e+9 
           2375      1.45419e+9 
           2385      1.41652e+9 
           2395      1.43769e+9 
           2405      1.39964e+9 
           2415      1.39091e+9 
           2425      1.39945e+9 
           2435      1.35456e+9 
           2445       1.3619e+9 
           2455       1.3564e+9 
           2465      1.32737e+9 
           2475       1.3107e+9 
           2485      1.31878e+9 
           2495      1.27519e+9 
           2505      1.29552e+9 
           2513      1.25102e+9 
           2518       1.2716e+9 
           2525      1.23803e+9 
           2535       1.2216e+9 
           2545      1.19597e+9 
           2555      1.22073e+9 
           2565      1.19961e+9 
           2575       1.2119e+9 
           2585      1.20609e+9 
           2595      1.19508e+9 
           2605      1.18037e+9 
           2615      1.17015e+9 
           2625      1.15797e+9 
           2635      1.14806e+9 
           2645      1.16152e+9 
           2655      1.14932e+9 
           2665      1.12013e+9 
           2675      1.12425e+9 
           2685      1.11594e+9 
           2695      1.09351e+9 
           2705      1.08997e+9 
           2715      1.07322e+9 
           2725      1.05551e+9 
           2735      1.06111e+9 
           2745      1.02194e+9 
           2755      1.01707e+9 
           2765      1.01529e+9 
           2775      1.02301e+9 
           2785      1.00975e+9 
           2795      9.66752e+8 
           2805       9.8477e+8 
           2815      9.87579e+8 
           2825      9.70026e+8 
           2835      9.44914e+8 
           2845      9.45032e+8 
           2855      9.42676e+8 
           2865      9.42532e+8 
           2875      9.29196e+8 
           2885      9.23037e+8 
           2895      9.15592e+8 
           2910      9.03864e+8 
           2930      8.82088e+8 
           2950      8.63328e+8 
           2970      8.54602e+8 
           2990      8.36128e+8 
           3010      8.24554e+8 
           3030      8.12433e+8 
           3050      7.97075e+8 
           3070      7.82846e+8 
           3090      7.67497e+8 
           3110      7.54347e+8 
           3130      7.42892e+8 
           3150      7.29426e+8 
           3170      7.16502e+8 
           3190      6.97439e+8 
           3210      6.91151e+8 
           3230      6.79983e+8 
           3250      6.68964e+8 
           3270      6.58481e+8 
           3290      6.46915e+8 
           3310      6.37126e+8 
           3330      6.26201e+8 
           3350      6.14617e+8 
           3370      6.05419e+8 
           3390      5.95674e+8 
           3410       5.8618e+8 
           3430       5.7501e+8 
           3450      5.64311e+8 
           3470      5.56229e+8 
           3490      5.47305e+8 
           3510      5.40046e+8 
           3530      5.31978e+8 
           3550       5.2367e+8 
           3570      5.17168e+8 
           3590      5.06511e+8 
           3610      4.99267e+8 
           3630      4.91179e+8 
           3640      4.89706e+8 
           3650      4.83831e+8 
           3670      4.78181e+8 
           3690      4.66592e+8 
           3710       4.5361e+8 
           3730      4.40365e+8 
           3750      4.84384e+8 
           3770      4.93041e+8 
           3790      5.31834e+8 
           3810      5.62703e+8 
           3830      4.82132e+8 
           3850      5.83781e+8 
           3870      5.96251e+8 
           3890       4.5378e+8 
           3910       5.9126e+8 
           3930      5.79111e+8 
           3950       5.7302e+8 
           3970      4.23677e+8 
           3990      5.48313e+8 
           4010       5.5094e+8 
           4030       5.1758e+8 
           4050      5.39766e+8 
           4070      5.24832e+8 
           4090      4.75548e+8 
           4110      4.06567e+8 
           4130      4.90743e+8 
           4150      4.90115e+8 
           4170      4.87504e+8 
           4190      4.82583e+8 
           4210      4.76138e+8 
           4230      4.68067e+8 
           4250      4.59897e+8 
           4270       4.4816e+8 
           4290       4.4436e+8 
           4310      4.34324e+8 
           4330      3.83865e+8 
           4350      3.46259e+8 
           4370      4.12773e+8 
           4390       3.9954e+8 
           4410      4.05338e+8 
           4430      3.97771e+8 
           4450      3.94413e+8 
           4470      3.70698e+8 
           4490      3.79138e+8 
           4510      3.77339e+8 
           4530      3.70636e+8 
           4550      3.65238e+8 
           4570      3.60172e+8 
           4590      3.55002e+8 
           4610      3.49677e+8 
           4630      3.44132e+8 
           4650       3.3832e+8 
           4670      3.34496e+8 
           4690      3.30348e+8 
           4710      3.19414e+8 
           4730      3.19059e+8 
           4750      3.14174e+8 
           4770      3.11992e+8 
           4790      3.07142e+8 
           4810      3.00816e+8 
           4830      2.94793e+8 
           4850      2.67014e+8 
           4870      2.35137e+8 
           4890      2.81853e+8 
           4910      2.80561e+8 
           4930      2.70539e+8 
           4950      2.74308e+8 
           4970      2.70961e+8 
           4990      2.66962e+8 
           5010      2.58411e+8 
           5030      2.59175e+8 
           5050      2.52177e+8 
           5070       2.5283e+8 
           5090      2.49262e+8 
           5110      2.45583e+8 
           5130      2.42255e+8 
           5150      2.38971e+8 
           5170      2.36237e+8 
           5190      2.33049e+8 
           5210      2.28238e+8 
           5230       2.2706e+8 
           5250      2.24131e+8 
           5270      2.21009e+8 
           5290      2.18466e+8 
           5310       2.1554e+8 
           5330      2.12467e+8 
           5350      2.09302e+8 
           5370      2.07367e+8 
           5390      2.04729e+8 
           5410      2.01944e+8 
           5430      1.98772e+8 
           5450      1.96568e+8 
           5470      1.93975e+8 
           5490      1.92051e+8 
           5510      1.89468e+8 
           5530      1.87078e+8 
           5550      1.84888e+8 
           5570       1.8247e+8 
           5590      1.80347e+8 
           5610      1.77818e+8 
           5630      1.76046e+8 
           5650      1.72666e+8 
           5670      1.70876e+8 
           5690      1.69293e+8 
           5710      1.67508e+8 
           5730      1.65537e+8 
           5750      1.63465e+8 
           5770      1.61598e+8 
           5790      1.59641e+8 
           5810      1.57662e+8 
           5830      1.55784e+8 
           5850      1.53961e+8 
           5870      1.47775e+8 
           5890      1.49803e+8 
           5910       1.4851e+8 
           5930      1.46835e+8 
           5950      1.44711e+8 
           5970      1.43416e+8 
           5990      1.41515e+8 
           6010      1.40147e+8 
           6030      1.38493e+8 
           6050       1.3692e+8 
           6070      1.35324e+8 
           6090      1.33706e+8 
           6110      1.32277e+8 
           6130      1.30773e+8 
           6150      1.28938e+8 
           6170      1.27777e+8 
           6190      1.26373e+8 
           6210      1.24944e+8 
           6230      1.23522e+8 
           6250      1.21961e+8 
           6270      1.20753e+8 
           6290      1.19387e+8 
           6310      1.17941e+8 
           6330      1.16792e+8 
           6350       1.1489e+8 
           6370      1.13826e+8 
           6390      1.12912e+8 
           6410      1.11621e+8 
           6430      1.10554e+8 
           6450      1.09281e+8 
           6470      1.08094e+8 
           6490      1.06928e+8 
           6510      1.05525e+8 
           6530      1.03899e+8 
           6550       9.8102e+7 
           6570      8.60549e+7 
           6590      9.94911e+7 
           6610      9.98901e+7 
           6630      9.91598e+7 
           6650      9.82065e+7 
           6670      9.62805e+7 
           6690      9.53101e+7 
           6710      9.51193e+7 
           6730      9.41306e+7 
           6750      9.31767e+7 
           6770      9.22078e+7 
           6790      9.11261e+7 
           6810      9.02829e+7 
           6830      8.93108e+7 
           6850      8.84448e+7 
           6870      8.75315e+7 
           6890      8.66352e+7 
           6910      8.57478e+7 
           6930      8.48065e+7 
           6950      8.40149e+7 
           6970       8.3169e+7 
           6990      8.23082e+7 
           7010      8.14635e+7 
           7030        8.065e+7 
           7050      7.98141e+7 
           7070      7.79236e+7 
           7090       7.8279e+7 
           7110      7.74816e+7 
           7130       7.6714e+7 
           7150      7.59317e+7 
           7170      7.51936e+7 
           7190      7.44698e+7 
           7210      7.37456e+7 
           7230      7.25814e+7 
           7250      7.22604e+7 
           7270      7.15925e+7 
           7290      7.04346e+7 
           7310      7.01985e+7 
           7330       6.9527e+7 
           7350      6.88612e+7 
           7370      6.81966e+7 
           7390      6.75403e+7 
           7410      6.68929e+7 
           7430       6.6203e+7 
           7450       6.5607e+7 
           7470      6.49517e+7 
           7490      6.43521e+7 
           7510      6.37453e+7 
           7530      6.31586e+7 
           7550       6.2568e+7 
           7570      6.19848e+7 
           7590      6.13878e+7 
           7610      6.08275e+7 
           7630      6.02599e+7 
           7650      5.96961e+7 
           7670      5.91431e+7 
           7690      5.85944e+7 
           7710      5.80525e+7 
           7730      5.75098e+7 
           7750      5.69844e+7 
           7770      5.60705e+7 
           7790      5.59456e+7 
           7810       5.5413e+7 
           7830        5.493e+7 
           7850      5.43503e+7 
           7870      5.38737e+7 
           7890      5.32947e+7 
           7910      5.29918e+7 
           7930      5.25217e+7 
           7950      5.19401e+7 
           7970      5.15404e+7 
           7990      5.09445e+7 
           8010      5.06458e+7 
           8030        5.018e+7 
           8050      4.97269e+7 
           8070      4.92951e+7 
           8090      4.88093e+7 
           8110      4.83907e+7 
           8130      4.79905e+7 
           8150      4.75318e+7 
           8170      4.71718e+7 
           8190      4.67199e+7 
           8210      4.61706e+7 
           8230      4.58007e+7 
           8250      4.55297e+7 
           8270      4.49853e+7 
           8290      4.47279e+7 
           8310       4.4347e+7 
           8330       4.3978e+7 
           8350      4.34509e+7 
           8370      4.31473e+7 
           8390      4.28455e+7 
           8410      4.24443e+7 
           8430        4.202e+7 
           8450      4.13412e+7 
           8470      4.11267e+7 
           8490       4.0916e+7 
           8510      4.02021e+7 
           8530      4.03788e+7 
           8550       3.8842e+7 
           8570      4.02474e+7 
