# Kurucz ODFNEW /NOVER (2003)
# teff = 26000 K (value for the effective temperature for the model. Temperatures are given in K)
# logg = 3.5 log(cm/s2) (value for Log(G) for the model.)
# meta = -0.5  (value for the Metallicity for the model.)
# lh = 1.25  (l/Hp where l is the  mixing length of the convective element and Hp is the pressure scale height)
# vtur = 2 km/s (Microturbulence velocity)
# alpha = 0.4  (Alpha)
#
# column 1: WAVELENGTH (ANGSTROM), Wavelength in Angstrom
# column 2: FLUX (ERG/CM2/S/A), Flux in erg/cm2/s/A
          147.2      3.6098e-13 
            151     1.50432e-12 
          155.2     6.76742e-12 
          158.8     2.31827e-11 
            162     6.64114e-11 
            166     2.34656e-10 
          170.3     8.55465e-10 
          173.4       2.0953e-9 
          176.8      5.40057e-9 
          180.2       1.3444e-8 
          181.7      1.98892e-8 
          186.1      6.06029e-8 
            191      1.97499e-7 
          193.9      3.86387e-7 
          198.4      1.05278e-6 
          201.8      2.17897e-6 
            205      4.22591e-6 
          210.5      1.25856e-5 
          216.2       3.6732e-5 
          219.8      7.01579e-5 
            223     0.000122483 
          226.8     0.000233501 
            230       0.0275582 
            234       0.0625502 
            240         0.13574 
          246.5        0.305936 
          252.4        0.622227 
          256.8        0.957102 
            260         1.51907 
            264         2.26029 
          268.5         3.69835 
          273.5         6.11311 
          278.5         9.78856 
            284         18.2872 
            290         30.8515 
            296         51.1244 
            301         75.5654 
            308         136.238 
            318         314.336 
            328         608.004 
            338          1220.4 
            348         2264.66 
            357         9771.99 
            366         19703.8 
            375         28948.9 
            385         47705.9 
            395         88584.8 
            405          129157 
            414          190059 
            422          242791 
            430          327891 
            441          470871 
            451          637344 
            460          809470 
            470      1.09376e+6 
            480      1.42238e+6 
            490      1.86058e+6 
            500      2.39841e+6 
            506       1.2999e+7 
            512      6.32745e+7 
            520      6.65713e+7 
            530      7.39886e+7 
            540      7.30553e+7 
            550      1.02257e+8 
            560      1.20527e+8 
            570      1.37137e+8 
            580      1.28932e+8 
            590      1.63008e+8 
            600      1.70501e+8 
            610      1.98813e+8 
            620      2.20422e+8 
            630      2.34419e+8 
            640      2.28916e+8 
            650      2.16969e+8 
            658      2.64289e+8 
            665      2.95028e+8 
            675      3.01243e+8 
            685      3.00966e+8 
            695      3.75368e+8 
            705       3.6406e+8 
            716       4.2197e+8 
            726       4.2773e+8 
            735      4.48261e+8 
            745      4.96466e+8 
            755      5.18172e+8 
            765      5.51416e+8 
            775       5.8486e+8 
            785      6.21621e+8 
            795      6.38269e+8 
            805      6.58553e+8 
            815       6.7017e+8 
            825      7.22213e+8 
            835       6.3067e+8 
            845      7.44146e+8 
            855      7.61627e+8 
            865       8.0187e+8 
            875      8.42152e+8 
            885      8.94511e+8 
            895       9.2872e+8 
            905      9.30801e+8 
            915      1.44014e+9 
            925     1.09467e+10 
            935     2.03804e+10 
            945     2.99388e+10 
            955     3.27233e+10 
            965     3.62119e+10 
            975     1.13943e+10 
            985     3.05725e+10 
            995     2.91338e+10 
           1005     3.17459e+10 
           1015     3.24469e+10 
           1025     2.27861e+10 
           1035     2.83877e+10 
           1045     3.62784e+10 
           1055     3.40064e+10 
           1065      2.8645e+10 
           1075     3.16624e+10 
           1085      2.9323e+10 
           1095     3.19821e+10 
           1105     2.93133e+10 
           1115     2.85078e+10 
           1125     2.31236e+10 
           1135     2.92499e+10 
           1145     2.68697e+10 
           1155     2.72689e+10 
           1165     2.72669e+10 
           1175     1.83016e+10 
           1185     2.54815e+10 
           1195     2.40388e+10 
           1205     1.81841e+10 
           1215     1.60935e+10 
           1225     2.28828e+10 
           1235     2.44497e+10 
           1245     2.37085e+10 
           1255     2.34961e+10 
           1265     2.35988e+10 
           1275     2.40296e+10 
           1285     2.35954e+10 
           1295      1.8413e+10 
           1305      1.9754e+10 
           1315     2.27882e+10 
           1325     2.16451e+10 
           1335     2.10627e+10 
           1345     2.08666e+10 
           1355     2.09004e+10 
           1365     1.96703e+10 
           1375     1.91519e+10 
           1385     1.86371e+10 
           1395     1.28609e+10 
           1405     1.42636e+10 
           1415       1.727e+10 
           1425     1.65265e+10 
           1435       1.709e+10 
           1442     1.73774e+10 
           1447     1.70747e+10 
           1455     1.65264e+10 
           1465     1.57676e+10 
           1475     1.58474e+10 
           1485     1.56369e+10 
           1495     1.52478e+10 
           1505     1.42836e+10 
           1512      1.3322e+10 
           1517     1.36183e+10 
           1525     1.36574e+10 
           1535     1.19459e+10 
           1545      1.1607e+10 
           1555     1.11611e+10 
           1565     1.19549e+10 
           1575     1.25254e+10 
           1585     1.23762e+10 
           1595     1.23478e+10 
           1605     1.19714e+10 
           1615     1.16177e+10 
           1625     1.16047e+10 
           1635     1.19562e+10 
           1645     1.18031e+10 
           1655     1.17478e+10 
           1665      1.1646e+10 
           1672     1.12009e+10 
           1677     1.21573e+10 
           1685     1.17132e+10 
           1695      1.1211e+10 
           1705     1.09205e+10 
           1715     1.04469e+10 
           1725     1.02386e+10 
           1735     1.04558e+10 
           1745     1.02953e+10 
           1755      1.0256e+10 
           1765      1.0103e+10 
           1775      9.62155e+9 
           1785      9.68526e+9 
           1795      9.75759e+9 
           1805      9.77743e+9 
           1815      9.07851e+9 
           1825       9.2459e+9 
           1835      9.04191e+9 
           1845      8.29972e+9 
           1855      8.41422e+9 
           1865      8.52114e+9 
           1875      8.58394e+9 
           1885      7.83268e+9 
           1895      7.33783e+9 
           1905      7.80787e+9 
           1915       7.4692e+9 
           1925      7.11304e+9 
           1935      7.47819e+9 
           1945       7.6164e+9 
           1955      6.91287e+9 
           1967      7.34338e+9 
           1976      7.65765e+9 
           1984      7.14189e+9 
           1995      6.99917e+9 
           2005       7.1342e+9 
           2015      7.12072e+9 
           2025      7.22135e+9 
           2035      6.70271e+9 
           2045      6.73109e+9 
           2055      6.29945e+9 
           2065      6.27516e+9 
           2074      6.56799e+9 
           2078      6.16296e+9 
           2085      6.39523e+9 
           2095      6.16145e+9 
           2105      6.32717e+9 
           2115      6.31885e+9 
           2125      6.35529e+9 
           2135      6.24391e+9 
           2145      5.97851e+9 
           2155      6.12985e+9 
           2165      6.05937e+9 
           2175      5.97224e+9 
           2185      5.85276e+9 
           2195      5.86391e+9 
           2205      5.80704e+9 
           2215      5.72309e+9 
           2225      5.60038e+9 
           2235      5.50008e+9 
           2245      5.50658e+9 
           2255      5.37798e+9 
           2265      5.36988e+9 
           2275      5.30313e+9 
           2285      5.24087e+9 
           2295      4.86735e+9 
           2305       5.0782e+9 
           2315      4.98008e+9 
           2325      4.92249e+9 
           2335      4.81664e+9 
           2345      4.83156e+9 
           2355      4.77974e+9 
           2365      4.72836e+9 
           2375      4.63646e+9 
           2385      4.58223e+9 
           2395      4.52008e+9 
           2405      4.47208e+9 
           2415      4.39623e+9 
           2425       4.3737e+9 
           2435      4.27679e+9 
           2445      4.25076e+9 
           2455      4.21964e+9 
           2465       4.1665e+9 
           2475      4.09557e+9 
           2485      4.01515e+9 
           2495       3.2884e+9 
           2505      3.86646e+9 
           2513      3.78139e+9 
           2518      3.84036e+9 
           2525        3.849e+9 
           2535      3.81852e+9 
           2545       3.6816e+9 
           2555      3.69682e+9 
           2565      3.64852e+9 
           2575      3.63689e+9 
           2585      3.59206e+9 
           2595      3.55341e+9 
           2605      3.52729e+9 
           2615      3.47733e+9 
           2625        3.444e+9 
           2635       3.4012e+9 
           2645       3.3577e+9 
           2655      3.32081e+9 
           2665       3.2431e+9 
           2675      3.22174e+9 
           2685      3.21117e+9 
           2695      3.12218e+9 
           2705        3.096e+9 
           2715      3.07553e+9 
           2725      3.03438e+9 
           2735      3.00745e+9 
           2745      2.97193e+9 
           2755      2.94553e+9 
           2765      2.89785e+9 
           2775       2.8973e+9 
           2785      2.85191e+9 
           2795      2.75988e+9 
           2805      2.77595e+9 
           2815      2.76825e+9 
           2825      2.72338e+9 
           2835      2.66248e+9 
           2845      2.67601e+9 
           2855      2.63118e+9 
           2865       2.6106e+9 
           2875      2.58126e+9 
           2885      2.55773e+9 
           2895       2.5231e+9 
           2910      2.47047e+9 
           2930      2.42926e+9 
           2950      2.36172e+9 
           2970      2.32489e+9 
           2990      2.27186e+9 
           3010      2.20168e+9 
           3030      2.17255e+9 
           3050      2.13633e+9 
           3070      2.09911e+9 
           3090      2.02113e+9 
           3110       2.0087e+9 
           3130      1.95884e+9 
           3150      1.92448e+9 
           3170      1.88295e+9 
           3190      1.83828e+9 
           3210       1.8119e+9 
           3230      1.76884e+9 
           3250      1.74093e+9 
           3270      1.70307e+9 
           3290      1.66871e+9 
           3310      1.63877e+9 
           3330      1.60376e+9 
           3350      1.57379e+9 
           3370      1.54246e+9 
           3390      1.51759e+9 
           3410      1.48947e+9 
           3430      1.45701e+9 
           3450      1.42443e+9 
           3470      1.39908e+9 
           3490      1.37187e+9 
           3510      1.35251e+9 
           3530      1.33152e+9 
           3550      1.30589e+9 
           3570      1.28592e+9 
           3590      1.25286e+9 
           3610        1.233e+9 
           3630      1.21008e+9 
           3640      1.20705e+9 
           3650      1.17986e+9 
           3670      1.16552e+9 
           3690      1.13641e+9 
           3710      1.10166e+9 
           3730      1.07171e+9 
           3750      1.13103e+9 
           3770      1.12068e+9 
           3790      1.14791e+9 
           3810      1.17708e+9 
           3830      1.06157e+9 
           3850      1.17486e+9 
           3870      1.15075e+9 
           3890       1.0128e+9 
           3910      1.13609e+9 
           3930      1.10117e+9 
           3950      1.08937e+9 
           3970      9.38232e+8 
           3990      1.05559e+9 
           4010      1.04195e+9 
           4030      1.00136e+9 
           4050      1.01022e+9 
           4070      9.71383e+8 
           4090      9.27968e+8 
           4110       8.4942e+8 
           4130      9.25231e+8 
           4150      9.17188e+8 
           4170      9.10447e+8 
           4190      8.95768e+8 
           4210      8.85704e+8 
           4230      8.69011e+8 
           4250      8.47899e+8 
           4270      8.26937e+8 
           4290      8.15622e+8 
           4310      7.97037e+8 
           4330      7.57662e+8 
           4350      7.00819e+8 
           4370      7.61235e+8 
           4390       7.4892e+8 
           4410      7.42491e+8 
           4430      7.35053e+8 
           4450      7.22145e+8 
           4470      6.95956e+8 
           4490      7.00179e+8 
           4510      6.92612e+8 
           4530      6.82324e+8 
           4550      6.70406e+8 
           4570      6.59338e+8 
           4590      6.48258e+8 
           4610      6.37026e+8 
           4630      6.28565e+8 
           4650      6.07349e+8 
           4670      6.07686e+8 
           4690      6.01144e+8 
           4710      5.81377e+8 
           4730       5.8415e+8 
           4750      5.73931e+8 
           4770      5.69989e+8 
           4790      5.61085e+8 
           4810      5.51023e+8 
           4830      5.40817e+8 
           4850      5.19341e+8 
           4870       4.7442e+8 
           4890      5.18852e+8 
           4910      5.12274e+8 
           4930      4.97136e+8 
           4950      4.95433e+8 
           4970      4.91911e+8 
           4990      4.84557e+8 
           5010      4.69574e+8 
           5030       4.7024e+8 
           5050      4.61057e+8 
           5070      4.57705e+8 
           5090      4.50625e+8 
           5110      4.44205e+8 
           5130      4.37312e+8 
           5150      4.31479e+8 
           5170      4.25723e+8 
           5190       4.2035e+8 
           5210      4.14173e+8 
           5230      4.09001e+8 
           5250      4.03444e+8 
           5270      3.97593e+8 
           5290      3.92573e+8 
           5310      3.87083e+8 
           5330      3.81982e+8 
           5350      3.76657e+8 
           5370      3.71897e+8 
           5390      3.66497e+8 
           5410      3.61848e+8 
           5430      3.57067e+8 
           5450      3.52168e+8 
           5470      3.47595e+8 
           5490      3.43155e+8 
           5510      3.38844e+8 
           5530      3.34217e+8 
           5550      3.30088e+8 
           5570      3.25719e+8 
           5590      3.21548e+8 
           5610      3.17356e+8 
           5630      3.13417e+8 
           5650      3.08913e+8 
           5670      3.04405e+8 
           5690      2.99779e+8 
           5710      2.97117e+8 
           5730      2.93658e+8 
           5750      2.89066e+8 
           5770      2.86545e+8 
           5790      2.82838e+8 
           5810      2.79332e+8 
           5830      2.75557e+8 
           5850      2.72377e+8 
           5870      2.63024e+8 
           5890       2.6477e+8 
           5910      2.62096e+8 
           5930      2.58756e+8 
           5950      2.55519e+8 
           5970       2.5306e+8 
           5990      2.49525e+8 
           6010      2.46824e+8 
           6030      2.43635e+8 
           6050      2.40843e+8 
           6070      2.38073e+8 
           6090      2.35232e+8 
           6110      2.32433e+8 
           6130      2.29716e+8 
           6150       2.2659e+8 
           6170      2.24055e+8 
           6190      2.21587e+8 
           6210      2.19058e+8 
           6230      2.16518e+8 
           6250      2.13852e+8 
           6270      2.11436e+8 
           6290      2.09008e+8 
           6310      2.06493e+8 
           6330      2.04222e+8 
           6350      2.01611e+8 
           6370      1.99511e+8 
           6390      1.97212e+8 
           6410      1.94957e+8 
           6430      1.92816e+8 
           6450      1.90608e+8 
           6470      1.88136e+8 
           6490      1.86083e+8 
           6510       1.8416e+8 
           6530      1.81743e+8 
           6550      1.77096e+8 
           6570      1.60476e+8 
           6590      1.74823e+8 
           6610      1.74025e+8 
           6630      1.72206e+8 
           6650      1.70183e+8 
           6670      1.67242e+8 
           6690      1.65452e+8 
           6710       1.6481e+8 
           6730      1.62726e+8 
           6750      1.61292e+8 
           6770      1.59551e+8 
           6790      1.57395e+8 
           6810      1.56041e+8 
           6830      1.54265e+8 
           6850      1.52747e+8 
           6870      1.51101e+8 
           6890      1.49344e+8 
           6910      1.47613e+8 
           6930      1.46323e+8 
           6950      1.44803e+8 
           6970      1.43268e+8 
           6990       1.4174e+8 
           7010       1.4025e+8 
           7030      1.38759e+8 
           7050      1.37329e+8 
           7070      1.34005e+8 
           7090       1.3448e+8 
           7110      1.32852e+8 
           7130       1.3156e+8 
           7150      1.30346e+8 
           7170      1.28989e+8 
           7190       1.2769e+8 
           7210      1.26381e+8 
           7230      1.24097e+8 
           7250      1.23592e+8 
           7270      1.22543e+8 
           7290      1.20432e+8 
           7310      1.20056e+8 
           7330      1.18841e+8 
           7350      1.17658e+8 
           7370      1.16486e+8 
           7390      1.15319e+8 
           7410      1.14169e+8 
           7430      1.13016e+8 
           7450      1.11901e+8 
           7470      1.10424e+8 
           7490      1.09668e+8 
           7510      1.08583e+8 
           7530      1.07502e+8 
           7550      1.06497e+8 
           7570      1.05455e+8 
           7590      1.04417e+8 
           7610      1.03289e+8 
           7630      1.02393e+8 
           7650      1.01395e+8 
           7670      1.00425e+8 
           7690      9.94443e+7 
           7710      9.84917e+7 
           7730      9.75099e+7 
           7750      9.66121e+7 
           7770      9.55288e+7 
           7790      9.47844e+7 
           7810       9.3824e+7 
           7830      9.29889e+7 
           7850       9.2155e+7 
           7870      9.11945e+7 
           7890      9.02365e+7 
           7910       8.9564e+7 
           7930      8.86815e+7 
           7950      8.78186e+7 
           7970      8.69158e+7 
           7990      8.61272e+7 
           8010      8.53042e+7 
           8030      8.45468e+7 
           8050      8.37958e+7 
           8070      8.30512e+7 
           8090      8.21691e+7 
           8110      8.11515e+7 
           8130       8.0804e+7 
           8150      7.99428e+7 
           8170      7.93656e+7 
           8190      7.83775e+7 
           8210      7.75211e+7 
           8230      7.69223e+7 
           8250      7.63892e+7 
           8270      7.51058e+7 
           8290      7.49083e+7 
           8310      7.42863e+7 
           8330      7.36151e+7 
           8350       7.2647e+7 
           8370      7.21174e+7 
           8390       7.1592e+7 
           8410      7.09057e+7 
           8430       7.0225e+7 
           8450      6.92124e+7 
           8470      6.87704e+7 
           8490      6.84102e+7 
           8510      6.72723e+7 
           8530      6.74076e+7 
           8550       6.5325e+7 
           8570      6.70004e+7 
