# Kurucz ODFNEW /NOVER (2003)
# teff = 23000 K (value for the effective temperature for the model. Temperatures are given in K)
# logg = 4.5 log(cm/s2) (value for Log(G) for the model.)
# meta = -2  (value for the Metallicity for the model.)
# lh = 1.25  (l/Hp where l is the  mixing length of the convective element and Hp is the pressure scale height)
# vtur = 2 km/s (Microturbulence velocity)
# alpha = 0.4  (Alpha)
#
# column 1: WAVELENGTH (ANGSTROM), Wavelength in Angstrom
# column 2: FLUX (ERG/CM2/S/A), Flux in erg/cm2/s/A
          147.2      1.1544e-16 
            151     6.26021e-16 
          155.2     3.70269e-15 
          158.8     1.58222e-14 
            162     5.46562e-14 
            166     2.41273e-13 
          170.3     1.10405e-12 
          173.4     3.15754e-12 
          176.8     9.59196e-12 
          180.2     2.79646e-11 
          181.7     4.42743e-11 
          186.1     1.63361e-10 
            191     6.51544e-10 
          193.9      1.42957e-9 
          198.4      4.62277e-9 
          201.8      1.08329e-8 
            205      2.35235e-8 
          210.5       8.4339e-8 
          216.2      2.95315e-7 
          219.8      6.29621e-7 
            223      1.20832e-6 
          226.8      2.55663e-6 
            230      1.17498e-5 
            234      2.70397e-5 
            240      7.41424e-5 
          246.5     0.000208558 
          252.4     0.000512111 
          256.8     0.000953845 
            260      0.00151784 
            264      0.00262023 
          268.5      0.00474025 
          273.5      0.00894202 
          278.5       0.0165021 
            284       0.0315313 
            290       0.0620282 
            296        0.118437 
            301        0.199149 
            308        0.395339 
            318         1.02423 
            328          2.4671 
            338         5.62898 
            348         12.2102 
            357         23.5581 
            366         43.9596 
            375            79.3 
            385         147.637 
            395         265.479 
            405         462.801 
            414          744.64 
            422         1114.64 
            430         1640.17 
            441         2727.25 
            451         4225.31 
            460         6151.94 
            470         9168.05 
            480           13409 
            490         19280.5 
            500         27269.2 
            506          178598 
            512          562571 
            520          709642 
            530          996583 
            540       1.0951e+6 
            550      1.53282e+6 
            560      1.84256e+6 
            570      2.24229e+6 
            580      2.29543e+6 
            590      3.01351e+6 
            600      3.71685e+6 
            610      4.38549e+6 
            620      5.06742e+6 
            630      5.89839e+6 
            640      6.68364e+6 
            650      7.73709e+6 
            658      8.64531e+6 
            665      9.42111e+6 
            675      1.05166e+7 
            685      1.18127e+7 
            695      1.35366e+7 
            705      1.50457e+7 
            716      1.69429e+7 
            726      1.87594e+7 
            735      2.07038e+7 
            745      2.29197e+7 
            755      2.52404e+7 
            765      2.76136e+7 
            775      3.03127e+7 
            785      3.30765e+7 
            795      3.58803e+7 
            805      3.89737e+7 
            815      4.21216e+7 
            825       4.5569e+7 
            835      4.84322e+7 
            845      5.26168e+7 
            855      5.62292e+7 
            865      6.04701e+7 
            875      6.46412e+7 
            885      6.90905e+7 
            895      7.35281e+7 
            905      7.72111e+7 
            915      1.17128e+8 
            925      5.95106e+8 
            935      1.87877e+9 
            945      7.57403e+9 
            955     1.33624e+10 
            965     1.84322e+10 
            975      6.19253e+9 
            985     2.38216e+10 
            995     2.37474e+10 
           1005     2.43943e+10 
           1015     2.03093e+10 
           1025      4.29144e+9 
           1035     1.73569e+10 
           1045     2.37817e+10 
           1055     2.34393e+10 
           1065     2.15882e+10 
           1075     2.23161e+10 
           1085     2.07238e+10 
           1095      2.1732e+10 
           1105     2.04682e+10 
           1115     2.02406e+10 
           1125     1.90397e+10 
           1135     1.95561e+10 
           1145     1.83436e+10 
           1155     1.86751e+10 
           1165     1.83767e+10 
           1175     1.61811e+10 
           1185     1.74491e+10 
           1195     1.57886e+10 
           1205     1.22438e+10 
           1215      3.14889e+9 
           1225        1.18e+10 
           1235     1.50623e+10 
           1245     1.51504e+10 
           1255     1.48307e+10 
           1265     1.45647e+10 
           1275     1.45705e+10 
           1285     1.42622e+10 
           1295     1.29593e+10 
           1305     1.28502e+10 
           1315     1.33694e+10 
           1325     1.29165e+10 
           1335      1.2395e+10 
           1345      1.2449e+10 
           1355     1.23556e+10 
           1365     1.19429e+10 
           1375     1.17722e+10 
           1385     1.16014e+10 
           1395     1.09521e+10 
           1405     1.08958e+10 
           1415     1.08699e+10 
           1425     1.07055e+10 
           1435     1.05293e+10 
           1442     1.04469e+10 
           1447     1.03356e+10 
           1455     1.01678e+10 
           1465      9.95227e+9 
           1475      9.77535e+9 
           1485      9.57239e+9 
           1495      9.40009e+9 
           1505      9.10078e+9 
           1512      9.00633e+9 
           1517      8.96785e+9 
           1525      8.81472e+9 
           1535      8.49975e+9 
           1545      8.45115e+9 
           1555      8.22268e+9 
           1565      8.20792e+9 
           1575      8.11207e+9 
           1585      7.96579e+9 
           1595      7.85053e+9 
           1605      7.62592e+9 
           1615      7.49407e+9 
           1625      7.43508e+9 
           1635      7.34018e+9 
           1645      7.15069e+9 
           1655      7.08407e+9 
           1665      6.99584e+9 
           1672       6.8324e+9 
           1677      6.87585e+9 
           1685      6.77966e+9 
           1695      6.64339e+9 
           1705      6.51333e+9 
           1715      6.37086e+9 
           1725      6.28063e+9 
           1735      6.20406e+9 
           1745      6.09789e+9 
           1755      6.03068e+9 
           1765      5.82564e+9 
           1775      5.79367e+9 
           1785       5.7203e+9 
           1795      5.66446e+9 
           1805      5.58522e+9 
           1815      5.47204e+9 
           1825      5.40477e+9 
           1835      5.31805e+9 
           1845       5.1531e+9 
           1855      5.02401e+9 
           1865      4.99042e+9 
           1875      4.98609e+9 
           1885      4.81617e+9 
           1895      4.67966e+9 
           1905      4.72627e+9 
           1915      4.58602e+9 
           1925      4.51216e+9 
           1935      4.49925e+9 
           1945       4.4772e+9 
           1955      4.31964e+9 
           1967      4.33477e+9 
           1976      4.31921e+9 
           1984      4.21601e+9 
           1995      4.10225e+9 
           2005      4.11795e+9 
           2015      4.08376e+9 
           2025      4.04509e+9 
           2035      3.96022e+9 
           2045      3.90546e+9 
           2055      3.79876e+9 
           2065      3.77363e+9 
           2074      3.78264e+9 
           2078      3.70711e+9 
           2085      3.70106e+9 
           2095       3.6199e+9 
           2105       3.6082e+9 
           2115      3.57197e+9 
           2125      3.53743e+9 
           2135       3.4861e+9 
           2145      3.43091e+9 
           2155      3.39558e+9 
           2165      3.35247e+9 
           2175      3.30578e+9 
           2185      3.26573e+9 
           2195       3.2265e+9 
           2205      3.18343e+9 
           2215      3.14293e+9 
           2225      3.09952e+9 
           2235      3.06061e+9 
           2245      3.02488e+9 
           2255      2.98389e+9 
           2265      2.94945e+9 
           2275      2.91193e+9 
           2285      2.87726e+9 
           2295      2.82149e+9 
           2305      2.80479e+9 
           2315      2.76789e+9 
           2325      2.73493e+9 
           2335      2.69594e+9 
           2345      2.66114e+9 
           2355      2.63574e+9 
           2365       2.6011e+9 
           2375      2.57036e+9 
           2385      2.53567e+9 
           2395      2.50686e+9 
           2405      2.47752e+9 
           2415      2.44613e+9 
           2425      2.42234e+9 
           2435      2.39131e+9 
           2445      2.36378e+9 
           2455      2.33769e+9 
           2465      2.30909e+9 
           2475      2.28266e+9 
           2485      2.25584e+9 
           2495      2.20578e+9 
           2505      2.20285e+9 
           2513      2.17274e+9 
           2518      2.16876e+9 
           2525      2.15167e+9 
           2535      2.12628e+9 
           2545      2.09536e+9 
           2555      2.07956e+9 
           2565      2.05445e+9 
           2575      2.03437e+9 
           2585      2.01156e+9 
           2595       1.9887e+9 
           2605       1.9804e+9 
           2615       1.9595e+9 
           2625       1.9382e+9 
           2635      1.91359e+9 
           2645      1.89376e+9 
           2655      1.86974e+9 
           2665      1.84433e+9 
           2675      1.82246e+9 
           2685      1.81545e+9 
           2695      1.78026e+9 
           2705      1.77578e+9 
           2715      1.75633e+9 
           2725      1.72165e+9 
           2735      1.71875e+9 
           2745        1.696e+9 
           2755       1.6789e+9 
           2765        1.648e+9 
           2775      1.64661e+9 
           2785      1.62874e+9 
           2795      1.58889e+9 
           2805      1.58515e+9 
           2815      1.57814e+9 
           2825      1.54291e+9 
           2835      1.53102e+9 
           2845      1.52884e+9 
           2855      1.51306e+9 
           2865      1.49756e+9 
           2875      1.48201e+9 
           2885      1.46682e+9 
           2895      1.45176e+9 
           2910      1.42936e+9 
           2930      1.39973e+9 
           2950      1.36112e+9 
           2970      1.34477e+9 
           2990      1.31761e+9 
           3010      1.29172e+9 
           3030      1.26652e+9 
           3050       1.2417e+9 
           3070       1.2175e+9 
           3090      1.19323e+9 
           3110      1.17084e+9 
           3130       1.1497e+9 
           3150      1.12782e+9 
           3170      1.10606e+9 
           3190      1.07539e+9 
           3210      1.06451e+9 
           3230      1.04437e+9 
           3250      1.02485e+9 
           3270      1.00713e+9 
           3290      9.87165e+8 
           3310       9.7063e+8 
           3330      9.52992e+8 
           3350      9.33994e+8 
           3370      9.18894e+8 
           3390      9.02445e+8 
           3410      8.86382e+8 
           3430      8.67013e+8 
           3450      8.48666e+8 
           3470      8.36252e+8 
           3490      8.21591e+8 
           3510      8.09136e+8 
           3530      7.96849e+8 
           3550      7.83292e+8 
           3570      7.74304e+8 
           3590      7.55967e+8 
           3610      7.45417e+8 
           3630      7.30707e+8 
           3640      7.29768e+8 
           3650      7.22608e+8 
           3670       7.1383e+8 
           3690      7.00442e+8 
           3710      6.76105e+8 
           3730      6.46886e+8 
           3750      6.70063e+8 
           3770       6.6944e+8 
           3790      7.15109e+8 
           3810      7.52857e+8 
           3830      6.46523e+8 
           3850      7.84416e+8 
           3870      8.02338e+8 
           3890      6.08434e+8 
           3910      7.91772e+8 
           3930      7.87783e+8 
           3950      7.67922e+8 
           3970      5.67118e+8 
           3990       7.3431e+8 
           4010      7.38132e+8 
           4030      6.87377e+8 
           4050      7.24083e+8 
           4070         7.07e+8 
           4090      6.32022e+8 
           4110      5.42008e+8 
           4130      6.60567e+8 
           4150      6.58328e+8 
           4170      6.54736e+8 
           4190      6.46312e+8 
           4210      6.35913e+8 
           4230      6.25408e+8 
           4250      6.15031e+8 
           4270      6.03622e+8 
           4290      5.93217e+8 
           4310      5.78638e+8 
           4330      5.07519e+8 
           4350      4.59103e+8 
           4370       5.4895e+8 
           4390      5.27716e+8 
           4410      5.39425e+8 
           4430       5.2896e+8 
           4450      5.23321e+8 
           4470      4.85823e+8 
           4490      5.06003e+8 
           4510      4.99673e+8 
           4530       4.9193e+8 
           4550      4.84266e+8 
           4570       4.7679e+8 
           4590      4.69622e+8 
           4610      4.62525e+8 
           4630      4.55532e+8 
           4650      4.48242e+8 
           4670      4.41872e+8 
           4690      4.35337e+8 
           4710      4.22375e+8 
           4730      4.22313e+8 
           4750      4.15909e+8 
           4770      4.10177e+8 
           4790      4.03902e+8 
           4810      3.96691e+8 
           4830      3.87518e+8 
           4850      3.47877e+8 
           4870       3.0738e+8 
           4890      3.68614e+8 
           4910      3.67836e+8 
           4930       3.5314e+8 
           4950      3.59701e+8 
           4970      3.54708e+8 
           4990      3.49676e+8 
           5010      3.39686e+8 
           5030      3.39878e+8 
           5050      3.32553e+8 
           5070      3.30506e+8 
           5090      3.25907e+8 
           5110      3.21385e+8 
           5130      3.16951e+8 
           5150      3.12591e+8 
           5170       3.0833e+8 
           5190      3.04126e+8 
           5210      2.99895e+8 
           5230      2.95939e+8 
           5250      2.91939e+8 
           5270      2.88018e+8 
           5290      2.84148e+8 
           5310      2.80355e+8 
           5330       2.7661e+8 
           5350      2.72914e+8 
           5370      2.69343e+8 
           5390      2.65792e+8 
           5410      2.62312e+8 
           5430      2.58837e+8 
           5450      2.55482e+8 
           5470      2.52169e+8 
           5490      2.48911e+8 
           5510      2.45692e+8 
           5530      2.42526e+8 
           5550      2.39424e+8 
           5570       2.3636e+8 
           5590      2.33357e+8 
           5610      2.30368e+8 
           5630      2.27474e+8 
           5650      2.24545e+8 
           5670      2.21733e+8 
           5690      2.18967e+8 
           5710      2.16257e+8 
           5730      2.13568e+8 
           5750        2.109e+8 
           5770      2.08298e+8 
           5790      2.05726e+8 
           5810      2.03196e+8 
           5830      2.00707e+8 
           5850      1.98247e+8 
           5870      1.88896e+8 
           5890      1.93001e+8 
           5910      1.91115e+8 
           5930       1.8881e+8 
           5950      1.86521e+8 
           5970      1.84301e+8 
           5990      1.82085e+8 
           6010      1.79926e+8 
           6030      1.77782e+8 
           6050      1.75682e+8 
           6070      1.73606e+8 
           6090      1.71553e+8 
           6110      1.69544e+8 
           6130      1.67557e+8 
           6150      1.65603e+8 
           6170       1.6368e+8 
           6190      1.61778e+8 
           6210      1.59907e+8 
           6230      1.58067e+8 
           6250      1.56247e+8 
           6270      1.54456e+8 
           6290      1.52685e+8 
           6310      1.50943e+8 
           6330      1.49239e+8 
           6350      1.47487e+8 
           6370      1.45857e+8 
           6390      1.44235e+8 
           6410      1.42612e+8 
           6430      1.41015e+8 
           6450      1.39445e+8 
           6470      1.37882e+8 
           6490      1.36345e+8 
           6510      1.34468e+8 
           6530       1.3225e+8 
           6550      1.24463e+8 
           6570       1.0948e+8 
           6590      1.26721e+8 
           6610      1.27059e+8 
           6630      1.26114e+8 
           6650       1.2493e+8 
           6670      1.22082e+8 
           6690      1.20798e+8 
           6710      1.20932e+8 
           6730      1.19632e+8 
           6750      1.18354e+8 
           6770      1.17089e+8 
           6790      1.15828e+8 
           6810      1.14612e+8 
           6830      1.13393e+8 
           6850      1.12194e+8 
           6870      1.11015e+8 
           6890      1.09847e+8 
           6910      1.08692e+8 
           6930      1.07555e+8 
           6950      1.06438e+8 
           6970      1.05332e+8 
           6990      1.04236e+8 
           7010       1.0316e+8 
           7030      1.02093e+8 
           7050      1.01045e+8 
           7070      9.82883e+7 
           7090      9.89861e+7 
           7110      9.79754e+7 
           7130      9.69745e+7 
           7150      9.59906e+7 
           7170      9.50015e+7 
           7190      9.40583e+7 
           7210      9.31096e+7 
           7230      9.20979e+7 
           7250      9.12536e+7 
           7270      9.03388e+7 
           7290      8.86671e+7 
           7310      8.85351e+7 
           7330      8.76739e+7 
           7350      8.68069e+7 
           7370       8.5948e+7 
           7390      8.50972e+7 
           7410      8.42679e+7 
           7430      8.34395e+7 
           7450      8.26392e+7 
           7470      8.18327e+7 
           7490      8.10336e+7 
           7510      8.02152e+7 
           7530      7.94707e+7 
           7550      7.87066e+7 
           7570      7.79494e+7 
           7590      7.71991e+7 
           7610      7.64555e+7 
           7630      7.57252e+7 
           7650      7.50079e+7 
           7670      7.42907e+7 
           7690      7.35862e+7 
           7710      7.28881e+7 
           7730      7.22024e+7 
           7750      7.15229e+7 
           7770      7.08245e+7 
           7790      7.01881e+7 
           7810      6.94894e+7 
           7830      6.88768e+7 
           7850      6.83062e+7 
           7870      6.76736e+7 
           7890      6.69981e+7 
           7910      6.64309e+7 
           7930      6.58207e+7 
           7950      6.51978e+7 
           7970      6.44915e+7 
           7990      6.38739e+7 
           8010      6.32794e+7 
           8030      6.26958e+7 
           8050      6.21289e+7 
           8070      6.16015e+7 
           8090      6.09519e+7 
           8110       6.0497e+7 
           8130      5.99718e+7 
           8150      5.93828e+7 
           8170      5.89288e+7 
           8190      5.83212e+7 
           8210      5.77468e+7 
           8230      5.73886e+7 
           8250      5.69003e+7 
           8270      5.61242e+7 
           8290      5.58647e+7 
           8310      5.53997e+7 
           8330      5.48842e+7 
           8350      5.41299e+7 
           8370      5.38447e+7 
           8390      5.34566e+7 
           8410      5.29854e+7 
           8430      5.24724e+7 
           8450      5.16534e+7 
           8470      5.15205e+7 
           8490      5.09661e+7 
           8510      5.05026e+7 
           8530      5.00853e+7 
           8550      4.91788e+7 
           8570      4.97128e+7 
