# Kurucz ODFNEW /NOVER (2003)
# teff = 21000 K (value for the effective temperature for the model. Temperatures are given in K)
# logg = 5 log(cm/s2) (value for Log(G) for the model.)
# meta = -0.5  (value for the Metallicity for the model.)
# lh = 1.25  (l/Hp where l is the  mixing length of the convective element and Hp is the pressure scale height)
# vtur = 2 km/s (Microturbulence velocity)
# alpha = 0  (Alpha)
#
# column 1: WAVELENGTH (ANGSTROM), Wavelength in Angstrom
# column 2: FLUX (ERG/CM2/S/A), Flux in erg/cm2/s/A
          147.2     4.68359e-18 
            151     2.59965e-17 
          155.2     1.56857e-16 
          158.8     6.78167e-16 
            162     2.36166e-15 
            166     1.05081e-14 
          170.3     4.83712e-14 
          173.4     1.38839e-13 
          176.8     4.23031e-13 
          180.2     1.23662e-12 
          181.7     1.95959e-12 
          186.1     7.25966e-12 
            191     2.90956e-11 
          193.9     6.39486e-11 
          198.4     2.07638e-10 
          201.8      4.8921e-10 
            205      1.06936e-9 
          210.5      3.87431e-9 
          216.2      1.37482e-8 
          219.8      2.96014e-8 
            223      5.72878e-8 
          226.8      1.22602e-7 
            230      5.34778e-7 
            234      1.29381e-6 
            240      3.79575e-6 
          246.5      1.13628e-5 
          252.4      2.93574e-5 
          256.8      5.69108e-5 
            260      9.31681e-5 
            264     0.000166484 
          268.5     0.000312641 
          273.5      0.00061393 
          278.5      0.00117897 
            284      0.00235143 
            290      0.00483477 
            296      0.00962978 
            301       0.0167643 
            308       0.0348939 
            318       0.0964064 
            328        0.246171 
            338        0.596335 
            348         1.36657 
            357         2.77124 
            366         5.42359 
            375         10.1977 
            385         19.8853 
            395         37.3385 
            405         67.8813 
            414         113.336 
            422         174.794 
            430         264.505 
            441          458.57 
            451         736.026 
            460         1103.61 
            470         1699.29 
            480         2562.71 
            490         3798.52 
            500         5529.63 
            506         40764.9 
            512          136557 
            520          174196 
            530          242427 
            540          283025 
            550          403978 
            560          497256 
            570          632010 
            580          674350 
            590          908058 
            600      1.12768e+6 
            610      1.38077e+6 
            620      1.62403e+6 
            630      1.93547e+6 
            640      2.19277e+6 
            650      2.52074e+6 
            658      2.97702e+6 
            665      3.28448e+6 
            675       3.7193e+6 
            685      4.25091e+6 
            695      5.01555e+6 
            705      5.65907e+6 
            716      6.49424e+6 
            726      7.26261e+6 
            735      8.07469e+6 
            745      9.15174e+6 
            755      1.02473e+7 
            765      1.13819e+7 
            775      1.26857e+7 
            785      1.40592e+7 
            795      1.53535e+7 
            805      1.68458e+7 
            815      1.83389e+7 
            825      2.01957e+7 
            835      2.15574e+7 
            845      2.35812e+7 
            855      2.54735e+7 
            865      2.77477e+7 
            875      3.01054e+7 
            885      3.26799e+7 
            895      3.50888e+7 
            905      3.67422e+7 
            915      5.13915e+7 
            925      1.66542e+8 
            935       3.9468e+8 
            945      1.64314e+9 
            955      4.56359e+9 
            965      6.62495e+9 
            975      1.48211e+9 
            985     1.16914e+10 
            995     1.24846e+10 
           1005     1.37577e+10 
           1015       9.4937e+9 
           1025      1.07379e+9 
           1035      6.55146e+9 
           1045     1.49436e+10 
           1055     1.50966e+10 
           1065     1.27883e+10 
           1075     1.47562e+10 
           1085     1.33187e+10 
           1095     1.45124e+10 
           1105     1.31763e+10 
           1115     1.28689e+10 
           1125     1.18214e+10 
           1135     1.32002e+10 
           1145     1.16953e+10 
           1155     1.23672e+10 
           1165     1.25419e+10 
           1175      9.85411e+9 
           1185     1.20083e+10 
           1195      9.25477e+9 
           1205       5.4272e+9 
           1215      1.06313e+9 
           1225      4.95645e+9 
           1235      9.69151e+9 
           1245     1.05575e+10 
           1255      1.0388e+10 
           1265          9.9e+9 
           1275     1.04046e+10 
           1285     1.03944e+10 
           1295      8.26546e+9 
           1305      7.87293e+9 
           1315      9.79151e+9 
           1325      9.26253e+9 
           1335      8.60703e+9 
           1345      9.08137e+9 
           1355       8.9074e+9 
           1365      8.36974e+9 
           1375      8.28929e+9 
           1385      8.31909e+9 
           1395      7.55346e+9 
           1405      7.75702e+9 
           1415      7.68539e+9 
           1425      7.65434e+9 
           1435      7.58664e+9 
           1442      7.71263e+9 
           1447      7.58997e+9 
           1455      7.42292e+9 
           1465      7.09357e+9 
           1475      6.99736e+9 
           1485       6.7613e+9 
           1495      6.73757e+9 
           1505      6.35526e+9 
           1512      5.95792e+9 
           1517      6.12022e+9 
           1525      6.12989e+9 
           1535       5.6771e+9 
           1545      5.78708e+9 
           1555       5.4901e+9 
           1565      5.52891e+9 
           1575      5.69356e+9 
           1585      5.61924e+9 
           1595      5.63845e+9 
           1605      5.46998e+9 
           1615      5.39667e+9 
           1625      5.27396e+9 
           1635      5.33888e+9 
           1645      5.25718e+9 
           1655      5.02191e+9 
           1665      5.23179e+9 
           1672      5.01666e+9 
           1677      5.11727e+9 
           1685      5.09891e+9 
           1695      4.92196e+9 
           1705       4.7221e+9 
           1715      4.54359e+9 
           1725      4.46106e+9 
           1735      4.54895e+9 
           1745      4.41221e+9 
           1755      4.47742e+9 
           1765      4.17553e+9 
           1775      4.23479e+9 
           1785      4.20557e+9 
           1795      4.25787e+9 
           1805      4.21545e+9 
           1815      4.00136e+9 
           1825      4.04778e+9 
           1835      3.92233e+9 
           1845      3.67973e+9 
           1855      3.59735e+9 
           1865      3.61704e+9 
           1875      3.73866e+9 
           1885      3.46701e+9 
           1895      3.30284e+9 
           1905       3.4602e+9 
           1915      3.30838e+9 
           1925      3.22774e+9 
           1935      3.28421e+9 
           1945        3.329e+9 
           1955       3.1179e+9 
           1967      3.24638e+9 
           1976      3.31973e+9 
           1984      3.13681e+9 
           1995      3.05092e+9 
           2005      3.09197e+9 
           2015      3.04865e+9 
           2025      3.11388e+9 
           2035      2.95845e+9 
           2045      2.94409e+9 
           2055      2.84602e+9 
           2065      2.87594e+9 
           2074      2.91979e+9 
           2078      2.80884e+9 
           2085      2.83551e+9 
           2095       2.7255e+9 
           2105      2.75969e+9 
           2115      2.73399e+9 
           2125      2.75796e+9 
           2135      2.69012e+9 
           2145      2.62088e+9 
           2155      2.64537e+9 
           2165      2.59599e+9 
           2175      2.56126e+9 
           2185      2.52438e+9 
           2195      2.52551e+9 
           2205      2.47159e+9 
           2215      2.42997e+9 
           2225      2.37104e+9 
           2235        2.382e+9 
           2245       2.3544e+9 
           2255       2.2983e+9 
           2265      2.30463e+9 
           2275      2.27575e+9 
           2285      2.26793e+9 
           2295        2.199e+9 
           2305      2.18875e+9 
           2315      2.14605e+9 
           2325      2.12603e+9 
           2335       2.0646e+9 
           2345      2.01757e+9 
           2355      2.03254e+9 
           2365      1.97975e+9 
           2375      1.97668e+9 
           2385      1.93093e+9 
           2395      1.94281e+9 
           2405      1.89947e+9 
           2415      1.88293e+9 
           2425       1.8871e+9 
           2435      1.83599e+9 
           2445      1.83266e+9 
           2455      1.82688e+9 
           2465      1.78605e+9 
           2475      1.76845e+9 
           2485      1.76541e+9 
           2495      1.71401e+9 
           2505      1.72977e+9 
           2513      1.67481e+9 
           2518      1.70274e+9 
           2525      1.66448e+9 
           2535      1.63607e+9 
           2545      1.61766e+9 
           2555      1.63445e+9 
           2565      1.60782e+9 
           2575      1.60876e+9 
           2585      1.59797e+9 
           2595      1.58009e+9 
           2605      1.56265e+9 
           2615       1.5489e+9 
           2625      1.53166e+9 
           2635      1.51653e+9 
           2645      1.52624e+9 
           2655       1.5091e+9 
           2665      1.47541e+9 
           2675      1.47093e+9 
           2685      1.46193e+9 
           2695      1.43051e+9 
           2705      1.42767e+9 
           2715      1.40624e+9 
           2725      1.38016e+9 
           2735      1.38514e+9 
           2745      1.33837e+9 
           2755      1.33225e+9 
           2765      1.32381e+9 
           2775      1.33234e+9 
           2785      1.31419e+9 
           2795      1.26651e+9 
           2805      1.28115e+9 
           2815      1.28186e+9 
           2825      1.25444e+9 
           2835      1.22479e+9 
           2845      1.23123e+9 
           2855      1.22466e+9 
           2865      1.21952e+9 
           2875      1.20362e+9 
           2885      1.19353e+9 
           2895      1.18273e+9 
           2910      1.16608e+9 
           2930      1.13814e+9 
           2950      1.10934e+9 
           2970      1.09907e+9 
           2990       1.0748e+9 
           3010      1.05749e+9 
           3030      1.03968e+9 
           3050      1.01945e+9 
           3070      1.00009e+9 
           3090      9.80599e+8 
           3110      9.62574e+8 
           3130      9.46352e+8 
           3150      9.28601e+8 
           3170      9.10998e+8 
           3190      8.85616e+8 
           3210      8.78052e+8 
           3230      8.62481e+8 
           3250      8.47155e+8 
           3270      8.32984e+8 
           3290      8.17353e+8 
           3310      8.04205e+8 
           3330      7.89953e+8 
           3350      7.74809e+8 
           3370      7.62521e+8 
           3390      7.49486e+8 
           3410      7.36702e+8 
           3430      7.21988e+8 
           3450      7.07754e+8 
           3470      6.97273e+8 
           3490      6.85592e+8 
           3510      6.74683e+8 
           3530      6.64399e+8 
           3550      6.53257e+8 
           3570      6.45633e+8 
           3590      6.30684e+8 
           3610      6.22414e+8 
           3630      6.10657e+8 
           3640      6.09666e+8 
           3650      6.02173e+8 
           3670      5.95013e+8 
           3690       5.8562e+8 
           3710      5.67006e+8 
           3730      5.42529e+8 
           3750      5.47125e+8 
           3770      5.40116e+8 
           3790      5.79909e+8 
           3810      6.16502e+8 
           3830      5.26356e+8 
           3850      6.48694e+8 
           3870      6.78756e+8 
           3890      4.89008e+8 
           3910      6.74156e+8 
           3930      6.79776e+8 
           3950      6.56225e+8 
           3970      4.58193e+8 
           3990      6.23445e+8 
           4010      6.43669e+8 
           4030      5.93896e+8 
           4050      6.35289e+8 
           4070      6.14756e+8 
           4090      5.26513e+8 
           4110      4.45841e+8 
           4130      5.70476e+8 
           4150      5.76934e+8 
           4170      5.75876e+8 
           4190      5.70048e+8 
           4210      5.62179e+8 
           4230      5.52601e+8 
           4250      5.42532e+8 
           4270      5.28267e+8 
           4290      5.22248e+8 
           4310      5.04737e+8 
           4330      4.23268e+8 
           4350      3.81199e+8 
           4370      4.76768e+8 
           4390      4.61722e+8 
           4410      4.75617e+8 
           4430      4.67108e+8 
           4450      4.62367e+8 
           4470      4.24471e+8 
           4490      4.44916e+8 
           4510      4.42979e+8 
           4530      4.35643e+8 
           4550      4.29092e+8 
           4570      4.22765e+8 
           4590      4.16532e+8 
           4610      4.10001e+8 
           4630      4.03408e+8 
           4650      3.97123e+8 
           4670      3.92019e+8 
           4690      3.86559e+8 
           4710      3.73467e+8 
           4730      3.73532e+8 
           4750      3.67705e+8 
           4770      3.64065e+8 
           4790       3.5773e+8 
           4810      3.50333e+8 
           4830       3.3946e+8 
           4850      2.93648e+8 
           4870      2.58027e+8 
           4890      3.21523e+8 
           4910      3.24738e+8 
           4930      3.11413e+8 
           4950      3.19111e+8 
           4970      3.15557e+8 
           4990       3.1105e+8 
           5010      3.00542e+8 
           5030      3.02013e+8 
           5050      2.94189e+8 
           5070      2.94159e+8 
           5090      2.90078e+8 
           5110      2.85879e+8 
           5130      2.81764e+8 
           5150      2.77805e+8 
           5170      2.74574e+8 
           5190      2.70882e+8 
           5210      2.66238e+8 
           5230      2.63641e+8 
           5250      2.60133e+8 
           5270      2.56602e+8 
           5290      2.53373e+8 
           5310      2.49958e+8 
           5330      2.46574e+8 
           5350       2.4305e+8 
           5370      2.40315e+8 
           5390       2.3716e+8 
           5410      2.34007e+8 
           5430      2.30664e+8 
           5450       2.2787e+8 
           5470       2.2491e+8 
           5490      2.22212e+8 
           5510      2.19299e+8 
           5530      2.16533e+8 
           5550      2.13826e+8 
           5570      2.11078e+8 
           5590       2.0845e+8 
           5610      2.05721e+8 
           5630      2.03311e+8 
           5650      2.00151e+8 
           5670      1.97769e+8 
           5690      1.95509e+8 
           5710      1.93321e+8 
           5730      1.90964e+8 
           5750       1.8859e+8 
           5770      1.86334e+8 
           5790      1.84049e+8 
           5810       1.8178e+8 
           5830       1.7957e+8 
           5850      1.77398e+8 
           5870      1.68538e+8 
           5890       1.7214e+8 
           5910      1.71053e+8 
           5930      1.69033e+8 
           5950      1.66824e+8 
           5970      1.65042e+8 
           5990      1.62965e+8 
           6010      1.61184e+8 
           6030      1.59267e+8 
           6050      1.57413e+8 
           6070      1.55569e+8 
           6090      1.53737e+8 
           6110      1.51985e+8 
           6130      1.50223e+8 
           6150      1.48291e+8 
           6170      1.46748e+8 
           6190      1.45093e+8 
           6210      1.43417e+8 
           6230       1.4176e+8 
           6250      1.40044e+8 
           6270      1.38558e+8 
           6290      1.36984e+8 
           6310      1.35388e+8 
           6330      1.33923e+8 
           6350      1.31959e+8 
           6370      1.30668e+8 
           6390      1.29445e+8 
           6410      1.27988e+8 
           6430      1.26637e+8 
           6450      1.25174e+8 
           6470      1.23717e+8 
           6490      1.22106e+8 
           6510      1.20379e+8 
           6530      1.17787e+8 
           6550      1.08437e+8 
           6570      9.47913e+7 
           6590      1.11887e+8 
           6610       1.1366e+8 
           6630      1.13027e+8 
           6650      1.12033e+8 
           6670      1.09507e+8 
           6690      1.08458e+8 
           6710      1.08716e+8 
           6730      1.07555e+8 
           6750      1.06431e+8 
           6770       1.0531e+8 
           6790      1.04078e+8 
           6810      1.03077e+8 
           6830      1.01998e+8 
           6850      1.00946e+8 
           6870      9.98957e+7 
           6890      9.88563e+7 
           6910      9.78273e+7 
           6930      9.67771e+7 
           6950      9.58153e+7 
           6970      9.48398e+7 
           6990      9.38506e+7 
           7010      9.28865e+7 
           7030      9.19395e+7 
           7050      9.09714e+7 
           7070      8.86034e+7 
           7090      8.91759e+7 
           7110       8.8265e+7 
           7130      8.73778e+7 
           7150      8.64917e+7 
           7170      8.56288e+7 
           7190      8.47814e+7 
           7210      8.39349e+7 
           7230      8.26424e+7 
           7250      8.22587e+7 
           7270      8.14575e+7 
           7290      8.00329e+7 
           7310      7.98493e+7 
           7330      7.90706e+7 
           7350      7.82992e+7 
           7370       7.7535e+7 
           7390      7.67778e+7 
           7410      7.60277e+7 
           7430       7.5271e+7 
           7450      7.45619e+7 
           7470      7.38256e+7 
           7490       7.3123e+7 
           7510      7.24134e+7 
           7530      7.17303e+7 
           7550      7.10533e+7 
           7570       7.0376e+7 
           7590      6.97048e+7 
           7610      6.90461e+7 
           7630       6.8387e+7 
           7650      6.77402e+7 
           7670      6.71056e+7 
           7690      6.64767e+7 
           7710      6.58534e+7 
           7730      6.52293e+7 
           7750      6.46234e+7 
           7770      6.37795e+7 
           7790      6.34276e+7 
           7810       6.2819e+7 
           7830      6.22589e+7 
           7850      6.16669e+7 
           7870      6.11045e+7 
           7890      6.04853e+7 
           7910      6.00431e+7 
           7930      5.94986e+7 
           7950      5.88974e+7 
           7970      5.83934e+7 
           7990      5.78034e+7 
           8010      5.73613e+7 
           8030      5.68364e+7 
           8050      5.63131e+7 
           8070      5.58168e+7 
           8090      5.52551e+7 
           8110      5.47887e+7 
           8130      5.43148e+7 
           8150      5.37956e+7 
           8170      5.33565e+7 
           8190      5.28238e+7 
           8210      5.22633e+7 
           8230      5.18633e+7 
           8250      5.14754e+7 
           8270      5.08775e+7 
           8290      5.05742e+7 
           8310      5.01609e+7 
           8330      4.97096e+7 
           8350       4.9126e+7 
           8370      4.88092e+7 
           8390      4.84569e+7 
           8410       4.8035e+7 
           8430      4.75937e+7 
           8450      4.68827e+7 
           8470       4.6764e+7 
           8490      4.62747e+7 
           8510      4.58863e+7 
           8530      4.54679e+7 
           8550      4.48313e+7 
           8570      4.49147e+7 
           8590      4.36158e+7 
