# Kurucz ODFNEW /NOVER (2003)
# teff = 8250 K (value for the effective temperature for the model. Temperatures are given in K)
# logg = 5 log(cm/s2) (value for Log(G) for the model.)
# meta = 0.2  (value for the Metallicity for the model.)
# lh = 1.25  (l/Hp where l is the  mixing length of the convective element and Hp is the pressure scale height)
# vtur = 2 km/s (Microturbulence velocity)
# alpha = 0  (Alpha)
#
# column 1: WAVELENGTH (ANGSTROM), Wavelength in Angstrom
# column 2: FLUX (ERG/CM2/S/A), Flux in erg/cm2/s/A
            318     3.61329e-23 
            328     4.98505e-22 
            338     5.10994e-21 
            348     4.54269e-20 
            357     2.91244e-19 
            366     1.69888e-18 
            375     7.30848e-19 
            385     3.88866e-18 
            395     1.88931e-17 
            405     8.44756e-17 
            414      3.0449e-16 
            422     9.05755e-16 
            430     2.57945e-15 
            441     1.01791e-14 
            451     3.32906e-14 
            460     9.22364e-14 
            470     2.72459e-13 
            480     7.66311e-13 
            490     2.05985e-12 
            500     5.29893e-12 
            506     1.21012e-11 
            512     2.32912e-11 
            520     4.63263e-11 
            530     1.06777e-10 
            540     2.33583e-10 
            550     5.03061e-10 
            560      1.04402e-9 
            570      2.10535e-9 
            580      4.08221e-9 
            590      7.90537e-9 
            600      1.47615e-8 
            610      2.69846e-8 
            620      4.81986e-8 
            630      8.43489e-8 
            640       1.4475e-7 
            650      2.44014e-7 
            658      3.65684e-7 
            665      5.15346e-7 
            675      8.32381e-7 
            685      1.32322e-6 
            695      2.07136e-6 
            705      3.17756e-6 
            716      5.06258e-6 
            726      7.58997e-6 
            735      1.08083e-5 
            745      1.58165e-5 
            755      2.28942e-5 
            765      3.27841e-5 
            775      4.64369e-5 
            785      6.51822e-5 
            795      8.94637e-5 
            805     0.000123711 
            815     0.000169352 
            825     0.000228836 
            835     0.000306565 
            845     0.000407429 
            855     0.000537246 
            865     0.000702983 
            875     0.000909317 
            885      0.00117758 
            895      0.00150899 
            905      0.00191091 
            915        0.542984 
            925         1.73618 
            935         2.27044 
            945         2.97654 
            955         3.99748 
            965         5.09372 
            975         6.16439 
            985         7.83532 
            995         9.42256 
           1005         12.2035 
           1015         15.0066 
           1025         17.3938 
           1035         22.2185 
           1045         27.0797 
           1055           32.79 
           1065         39.0206 
           1075         47.4357 
           1085         57.1354 
           1095         67.2569 
           1105         168.772 
           1115         493.781 
           1125         692.393 
           1135         956.924 
           1145         1179.36 
           1155         1285.18 
           1165         1707.16 
           1175         2010.22 
           1185         2111.49 
           1195         1401.95 
           1205          1508.4 
           1215         429.549 
           1225         1718.43 
           1235         3338.19 
           1245         6183.12 
           1255         12360.1 
           1265         11887.9 
           1275         16453.2 
           1285         21896.6 
           1295         25573.2 
           1305         23174.2 
           1315         30718.3 
           1325         34962.2 
           1335         38196.6 
           1345         44917.4 
           1355         45978.4 
           1365         50446.9 
           1375         54306.8 
           1385         57284.4 
           1395         64488.4 
           1405         70837.2 
           1415         73909.3 
           1425         81201.9 
           1435           82264 
           1442           94001 
           1447         98149.3 
           1455          107522 
           1465          109077 
           1475          118285 
           1485          128646 
           1495          141902 
           1505          154431 
           1512          156707 
           1517          167436 
           1525          186791 
           1535          258121 
           1545          371580 
           1555          395032 
           1565          365051 
           1575          514744 
           1585          619913 
           1595          701444 
           1605          740787 
           1615          839884 
           1625          870039 
           1635      1.39404e+6 
           1645      3.08383e+6 
           1655      1.61625e+6 
           1665      3.74402e+6 
           1672      2.17757e+6 
           1677      5.72047e+6 
           1685      8.60703e+6 
           1695      4.85286e+6 
           1705      7.15261e+6 
           1715      1.21612e+7 
           1725      1.33151e+7 
           1735      1.81693e+7 
           1745      1.71896e+7 
           1755      2.24434e+7 
           1765      1.30957e+7 
           1775      2.00548e+7 
           1785      2.13938e+7 
           1795      2.77798e+7 
           1805       2.1793e+7 
           1815      2.25713e+7 
           1825      2.01405e+7 
           1835      1.92313e+7 
           1845      1.54055e+7 
           1855      1.97089e+7 
           1865      2.47263e+7 
           1875      2.34431e+7 
           1885      2.44461e+7 
           1895      2.61432e+7 
           1905      2.36978e+7 
           1915      2.68132e+7 
           1925      2.49586e+7 
           1935      1.63531e+7 
           1945      2.81305e+7 
           1955      2.90234e+7 
           1967      3.25962e+7 
           1976      3.14316e+7 
           1984      2.91305e+7 
           1995       2.9398e+7 
           2005      2.61807e+7 
           2015       2.6583e+7 
           2025      2.38195e+7 
           2035      2.88586e+7 
           2045      3.15939e+7 
           2055      3.00374e+7 
           2065      2.89167e+7 
           2074      3.39982e+7 
           2078       3.6928e+7 
           2085      3.50582e+7 
           2095      3.21922e+7 
           2105      2.94759e+7 
           2115      3.08788e+7 
           2125      3.19738e+7 
           2135      2.55805e+7 
           2145      3.13754e+7 
           2155      3.10808e+7 
           2165      2.80962e+7 
           2175      2.79093e+7 
           2185      3.09592e+7 
           2195       3.3441e+7 
           2205      3.12354e+7 
           2215       2.6862e+7 
           2225      2.70716e+7 
           2235      3.27223e+7 
           2245      2.92263e+7 
           2255      2.62842e+7 
           2265      2.58346e+7 
           2275      2.83266e+7 
           2285      3.09856e+7 
           2295      2.70755e+7 
           2305       2.8864e+7 
           2315      2.77365e+7 
           2325      2.70022e+7 
           2335      2.30685e+7 
           2345      1.81492e+7 
           2355      2.68254e+7 
           2365      1.93166e+7 
           2375      2.29806e+7 
           2385      1.64733e+7 
           2395      1.95956e+7 
           2405       1.9248e+7 
           2415      1.96044e+7 
           2425       2.5153e+7 
           2435      2.37701e+7 
           2445      2.66085e+7 
           2455      2.65291e+7 
           2465      2.65499e+7 
           2475      2.38733e+7 
           2485      2.37108e+7 
           2495      2.22551e+7 
           2505      2.88745e+7 
           2513      2.24296e+7 
           2518       2.2135e+7 
           2525      1.97724e+7 
           2535      1.85462e+7 
           2545      1.67419e+7 
           2555      1.94793e+7 
           2565      1.99009e+7 
           2575      2.46715e+7 
           2585      2.52421e+7 
           2595       2.4677e+7 
           2605       2.2672e+7 
           2615      2.10968e+7 
           2625      2.64862e+7 
           2635      2.76572e+7 
           2645      3.36794e+7 
           2655      3.54837e+7 
           2665      2.83005e+7 
           2675      3.17025e+7 
           2685      3.19486e+7 
           2695      2.84027e+7 
           2705      3.07329e+7 
           2715      2.72386e+7 
           2725      2.79213e+7 
           2735        3.077e+7 
           2745      2.20832e+7 
           2755      2.42272e+7 
           2765      2.64127e+7 
           2775      2.99637e+7 
           2785      2.53605e+7 
           2795         1.18e+7 
           2805      1.54029e+7 
           2815      3.11473e+7 
           2825      3.46559e+7 
           2835      3.26607e+7 
           2845      3.05855e+7 
           2855      2.63784e+7 
           2865      3.26352e+7 
           2875       3.2141e+7 
           2885      3.19756e+7 
           2895      3.04965e+7 
           2910      3.61835e+7 
           2930      3.36638e+7 
           2950      3.34738e+7 
           2970      3.52633e+7 
           2990      3.51884e+7 
           3010      3.59507e+7 
           3030      3.55252e+7 
           3050      3.55055e+7 
           3070      3.60601e+7 
           3090      3.64431e+7 
           3110      3.53453e+7 
           3130      3.51304e+7 
           3150      3.60772e+7 
           3170      3.58063e+7 
           3190      3.32015e+7 
           3210      3.44201e+7 
           3230      3.23222e+7 
           3250      3.40556e+7 
           3270      3.52599e+7 
           3290       3.5191e+7 
           3310      3.58811e+7 
           3330      3.50233e+7 
           3350      3.44923e+7 
           3370      3.38386e+7 
           3390      3.40502e+7 
           3410      3.39306e+7 
           3430      3.39652e+7 
           3450      3.38637e+7 
           3470       3.3462e+7 
           3490       3.3559e+7 
           3510      3.40919e+7 
           3530      3.35465e+7 
           3550      3.46702e+7 
           3570      3.27191e+7 
           3590      3.23322e+7 
           3610      3.24577e+7 
           3630      3.26414e+7 
           3640      3.22064e+7 
           3650      3.40152e+7 
           3670      3.36427e+7 
           3690      3.27146e+7 
           3710      3.21986e+7 
           3730      3.01781e+7 
           3750      3.36344e+7 
           3770      3.51869e+7 
           3790      4.16907e+7 
           3810      4.77968e+7 
           3830      3.80995e+7 
           3850      5.27231e+7 
           3870       5.8946e+7 
           3890       3.5915e+7 
           3910      5.88525e+7 
           3930      5.07911e+7 
           3950      5.82533e+7 
           3970      3.32894e+7 
           3990      5.86222e+7 
           4010         6.76e+7 
           4030      6.83318e+7 
           4050      6.71556e+7 
           4070      6.32677e+7 
           4090       4.9969e+7 
           4110      3.90465e+7 
           4130      6.06256e+7 
           4150      6.56206e+7 
           4170        6.626e+7 
           4190      6.55925e+7 
           4210       6.5719e+7 
           4230       6.3442e+7 
           4250      6.42333e+7 
           4270      6.12424e+7 
           4290      6.14198e+7 
           4310       5.5343e+7 
           4330      4.31205e+7 
           4350      3.70846e+7 
           4370      5.62897e+7 
           4390      5.90191e+7 
           4410      5.88472e+7 
           4430      5.77719e+7 
           4450      5.91257e+7 
           4470      5.90485e+7 
           4490      5.81872e+7 
           4510      5.99467e+7 
           4530      5.75791e+7 
           4550      5.69357e+7 
           4570       5.8392e+7 
           4590      5.63232e+7 
           4610      5.70002e+7 
           4630      5.55282e+7 
           4650       5.5738e+7 
           4670      5.57228e+7 
           4690      5.32499e+7 
           4710      5.08202e+7 
           4730      5.37001e+7 
           4750      5.33858e+7 
           4770      5.24788e+7 
           4790      5.16178e+7 
           4810      4.99992e+7 
           4830      4.68342e+7 
           4850      3.60257e+7 
           4870      2.91956e+7 
           4890      4.35887e+7 
           4910      4.69332e+7 
           4930      4.69468e+7 
           4950      4.80043e+7 
           4970      4.83355e+7 
           4990      4.66008e+7 
           5010      4.51788e+7 
           5030       4.6345e+7 
           5050      4.54291e+7 
           5070      4.61735e+7 
           5090      4.54566e+7 
           5110      4.54593e+7 
           5130      4.45386e+7 
           5150      4.35087e+7 
           5170      4.24356e+7 
           5190      4.20113e+7 
           5210      4.24027e+7 
           5230      4.20088e+7 
           5250      4.25791e+7 
           5270      3.97634e+7 
           5290      4.15594e+7 
           5310      4.11347e+7 
           5330      3.92312e+7 
           5350      4.04258e+7 
           5370      3.99645e+7 
           5390      3.96127e+7 
           5410      3.85391e+7 
           5430       3.8961e+7 
           5450       3.8947e+7 
           5470      3.84676e+7 
           5490      3.81515e+7 
           5510      3.80153e+7 
           5530      3.75031e+7 
           5550      3.74705e+7 
           5570      3.68206e+7 
           5590      3.63684e+7 
           5610      3.63238e+7 
           5630      3.62789e+7 
           5650      3.59033e+7 
           5670      3.52872e+7 
           5690      3.52362e+7 
           5710      3.48858e+7 
           5730       3.5112e+7 
           5750      3.44477e+7 
           5770      3.43033e+7 
           5790      3.39296e+7 
           5810      3.37433e+7 
           5830      3.35498e+7 
           5850      3.31084e+7 
           5870      3.28482e+7 
           5890      3.20412e+7 
           5910      3.23004e+7 
           5930      3.20293e+7 
           5950      3.17675e+7 
           5970      3.15371e+7 
           5990      3.11609e+7 
           6010      3.06952e+7 
           6030      3.05365e+7 
           6050      3.04162e+7 
           6070      3.02939e+7 
           6090      2.99235e+7 
           6110      2.95655e+7 
           6130      2.89839e+7 
           6150      2.85268e+7 
           6170       2.8356e+7 
           6190      2.87148e+7 
           6210       2.8493e+7 
           6230      2.80638e+7 
           6250      2.73724e+7 
           6270      2.78161e+7 
           6290       2.7609e+7 
           6310      2.71088e+7 
           6330      2.69632e+7 
           6350       2.6518e+7 
           6370      2.63694e+7 
           6390      2.63208e+7 
           6410      2.58524e+7 
           6430      2.57793e+7 
           6450      2.52384e+7 
           6470      2.51529e+7 
           6490      2.46322e+7 
           6510      2.42456e+7 
           6530      2.30795e+7 
           6550      1.96116e+7 
           6570      1.58084e+7 
           6590      2.15265e+7 
           6610      2.30709e+7 
           6630      2.34435e+7 
           6650      2.34757e+7 
           6670      2.33309e+7 
           6690      2.33069e+7 
           6710      2.31247e+7 
           6730      2.29716e+7 
           6750      2.26439e+7 
           6770      2.26796e+7 
           6790      2.24914e+7 
           6810      2.23075e+7 
           6830       2.2106e+7 
           6850      2.19041e+7 
           6870       2.1807e+7 
           6890      2.16441e+7 
           6910      2.14614e+7 
           6930      2.12781e+7 
           6950      2.11301e+7 
           6970      2.09446e+7 
           6990      2.08195e+7 
           7010      2.04341e+7 
           7030      2.04095e+7 
           7050      2.03045e+7 
           7070      2.01596e+7 
           7090      2.00063e+7 
           7110      1.94535e+7 
           7130      1.95661e+7 
           7150      1.94457e+7 
           7170       1.9278e+7 
           7190      1.90878e+7 
           7210      1.90234e+7 
           7230      1.88765e+7 
           7250      1.86793e+7 
           7270      1.86487e+7 
           7290      1.83664e+7 
           7310      1.83274e+7 
           7330      1.81778e+7 
           7350       1.8111e+7 
           7370       1.7974e+7 
           7390      1.77306e+7 
           7410       1.7504e+7 
           7430      1.73594e+7 
           7450      1.73023e+7 
           7470      1.71099e+7 
           7490       1.7032e+7 
           7510      1.69869e+7 
           7530      1.68835e+7 
           7550      1.68206e+7 
           7570      1.66634e+7 
           7590      1.65555e+7 
           7610      1.64152e+7 
           7630      1.63124e+7 
           7650      1.61616e+7 
           7670      1.59289e+7 
           7690      1.58601e+7 
           7710      1.57792e+7 
           7730      1.57166e+7 
           7750      1.55446e+7 
           7770      1.51383e+7 
           7790      1.54071e+7 
           7810      1.52641e+7 
           7830       1.5075e+7 
           7850      1.49298e+7 
           7870      1.48412e+7 
           7890      1.47068e+7 
           7910       1.4597e+7 
           7930       1.4427e+7 
           7950      1.43336e+7 
           7970      1.44195e+7 
           7990       1.4181e+7 
           8010      1.41678e+7 
           8030      1.40366e+7 
           8050      1.39646e+7 
           8070      1.38718e+7 
           8090      1.37532e+7 
           8110      1.37101e+7 
           8130      1.36376e+7 
           8150      1.35344e+7 
           8170      1.34389e+7 
           8190      1.31172e+7 
           8210       1.3064e+7 
           8230       1.2975e+7 
           8250      1.29216e+7 
           8270      1.30046e+7 
           8290       1.2898e+7 
           8310      1.27629e+7 
           8330      1.25698e+7 
           8350      1.26134e+7 
           8370      1.25811e+7 
           8390      1.24458e+7 
           8410       1.2408e+7 
           8430      1.22797e+7 
           8450      1.20111e+7 
           8470      1.20774e+7 
           8490      1.19886e+7 
           8510      1.15755e+7 
           8530      1.18236e+7 
           8550      1.07712e+7 
           8570      1.17874e+7 
           8590      1.13936e+7 
           8610      1.12584e+7 
           8630      1.15927e+7 
           8650      1.12723e+7 
           8670      9.92832e+6 
           8690      1.10725e+7 
           8710      1.14244e+7 
           8730      1.10414e+7 
           8750      9.60589e+6 
           8770       1.0672e+7 
           8790      1.12252e+7 
           8810      1.12209e+7 
           8830      1.08686e+7 
           8850       9.9225e+6 
           8870      8.83012e+6 
           8890      1.04555e+7 
           8910      1.08803e+7 
           8930      1.09266e+7 
           8950      1.09935e+7 
           8970      1.07296e+7 
           8990      1.01757e+7 
           9010      8.37964e+6 
           9030      9.02773e+6 
           9050      1.01815e+7 
           9070      1.02713e+7 
           9090      1.01851e+7 
           9110      1.04605e+7 
           9130      1.05231e+7 
           9150      1.04605e+7 
           9170      1.02465e+7 
           9190      9.88659e+6 
           9210      9.07402e+6 
           9230      7.31809e+6 
           9250      8.72009e+6 
           9270      9.39183e+6 
           9290      9.85867e+6 
           9310      9.95109e+6 
           9330      9.93661e+6 
           9350      9.92646e+6 
