# Kurucz ODFNEW /NOVER (2003)
# teff = 7250 K (value for the effective temperature for the model. Temperatures are given in K)
# logg = 0.5 log(cm/s2) (value for Log(G) for the model.)
# meta = 0  (value for the Metallicity for the model.)
# lh = 1.25  (l/Hp where l is the  mixing length of the convective element and Hp is the pressure scale height)
# vtur = 2 km/s (Microturbulence velocity)
# alpha = 0  (Alpha)
#
# column 1: WAVELENGTH (ANGSTROM), Wavelength in Angstrom
# column 2: FLUX (ERG/CM2/S/A), Flux in erg/cm2/s/A
            405      2.2039e-23 
            414     1.46009e-22 
            422     6.55221e-22 
            430     1.25938e-22 
            441     7.55799e-22 
            451     3.55483e-21 
            460     1.34764e-20 
            470     5.56107e-20 
            480     2.15475e-19 
            490     7.87507e-19 
            500     2.72104e-18 
            506      7.4242e-18 
            512     1.68501e-17 
            520     4.16395e-17 
            530     1.24635e-16 
            540     3.51033e-16 
            550     9.63942e-16 
            560     2.52959e-15 
            570      6.3971e-15 
            580     1.54466e-14 
            590     3.69175e-14 
            600     8.45548e-14 
            610     1.88243e-13 
            620     4.07032e-13 
            630     8.57062e-13 
            640     1.75957e-12 
            650     3.52868e-12 
            658     6.05349e-12 
            665     9.58382e-12 
            675     1.81764e-11 
            685     3.37698e-11 
            695     6.15269e-11 
            705      1.0958e-10 
            716     2.03997e-10 
            726     3.51437e-10 
            735     5.65389e-10 
            745      9.4436e-10 
            755       1.5545e-9 
            765      2.52234e-9 
            775      4.03616e-9 
            785        6.377e-9 
            795      9.85061e-9 
            805      1.52407e-8 
            815       2.3258e-8 
            825      3.49882e-8 
            835      5.20497e-8 
            845      7.66359e-8 
            855       1.1167e-7 
            865      1.61119e-7 
            875      2.29563e-7 
            885      3.26006e-7 
            895       4.5762e-7 
            905      6.33475e-7 
            915     0.000709564 
            925      0.00223147 
            935      0.00300336 
            945      0.00415732 
            955       0.0060746 
            965      0.00831072 
            975        0.010937 
            985        0.014439 
            995       0.0184281 
           1005       0.0259292 
           1015       0.0339593 
           1025       0.0427065 
           1035       0.0562479 
           1045       0.0734123 
           1055       0.0941836 
           1065        0.116866 
           1075        0.150164 
           1085        0.190095 
           1095        0.232832 
           1105        0.793954 
           1115          2.8402 
           1125         4.25955 
           1135         5.94152 
           1145         7.49192 
           1155          8.2492 
           1165         11.0519 
           1175         12.4008 
           1185         13.7127 
           1195         5.11451 
           1205         4.40288 
           1215         1.16648 
           1225         5.37695 
           1235         15.0393 
           1245         35.5943 
           1255         83.0035 
           1265         86.6827 
           1275         177.377 
           1285         299.859 
           1295         411.588 
           1305         286.027 
           1315         619.159 
           1325         831.943 
           1335         894.693 
           1345         1339.51 
           1355         1434.04 
           1365         1606.46 
           1375         1830.94 
           1385         2163.09 
           1395         2625.46 
           1405         3047.58 
           1415         3085.37 
           1425         3735.71 
           1435         3797.07 
           1442          4526.3 
           1447         5080.55 
           1455         5917.63 
           1465         6016.33 
           1475          6815.2 
           1485         7842.86 
           1495         9303.17 
           1505         10412.3 
           1512         10461.2 
           1517         11575.5 
           1525         12018.9 
           1535         25986.4 
           1545         88703.3 
           1555         69628.8 
           1565         47475.2 
           1575          110213 
           1585          150558 
           1595          259547 
           1605          187880 
           1615          150679 
           1625          118480 
           1635          129877 
           1645          201004 
           1655         90606.8 
           1665          134762 
           1672         32429.7 
           1677          254249 
           1685          633954 
           1695          783061 
           1705          596749 
           1715          958018 
           1725      1.25587e+6 
           1735      1.71568e+6 
           1745      1.29819e+6 
           1755      1.97928e+6 
           1765      1.52277e+6 
           1775       2.1565e+6 
           1785      1.60696e+6 
           1795      2.86263e+6 
           1805      2.16739e+6 
           1815       2.7068e+6 
           1825      2.14198e+6 
           1835      1.88833e+6 
           1845      1.86261e+6 
           1855       2.3012e+6 
           1865      2.65134e+6 
           1875      2.44997e+6 
           1885      2.64627e+6 
           1895      3.04182e+6 
           1905       2.6482e+6 
           1915      2.78189e+6 
           1925      2.72979e+6 
           1935      1.75354e+6 
           1945      3.34802e+6 
           1955      3.49059e+6 
           1967      3.96321e+6 
           1976      3.87577e+6 
           1984      3.76504e+6 
           1995      3.70234e+6 
           2005      3.37405e+6 
           2015       2.9001e+6 
           2025      2.77552e+6 
           2035      3.51355e+6 
           2045      4.02752e+6 
           2055       3.2264e+6 
           2065      3.01217e+6 
           2074      4.38065e+6 
           2078      4.79932e+6 
           2085       4.5622e+6 
           2095      4.22185e+6 
           2105      3.93349e+6 
           2115      3.96839e+6 
           2125      4.10107e+6 
           2135      2.92096e+6 
           2145      3.82729e+6 
           2155      4.08714e+6 
           2165      3.31421e+6 
           2175      3.50416e+6 
           2185      3.71275e+6 
           2195      4.39328e+6 
           2205      3.99702e+6 
           2215      3.01861e+6 
           2225      2.87359e+6 
           2235      4.23193e+6 
           2245      3.70135e+6 
           2255       2.7786e+6 
           2265      2.70367e+6 
           2275      3.56893e+6 
           2285      3.82175e+6 
           2295      3.49405e+6 
           2305      3.70218e+6 
           2315      3.31542e+6 
           2325      3.04973e+6 
           2335      1.62308e+6 
           2345       1.1345e+6 
           2355      2.32918e+6 
           2365      1.09754e+6 
           2375      1.68073e+6 
           2385          814758 
           2395      1.16197e+6 
           2405      1.09136e+6 
           2415      1.80425e+6 
           2425      3.58124e+6 
           2435      3.42367e+6 
           2445      3.80679e+6 
           2455      3.81541e+6 
           2465      3.51611e+6 
           2475      3.33296e+6 
           2485      3.44083e+6 
           2495      3.33978e+6 
           2505      4.58798e+6 
           2513      3.25625e+6 
           2518      3.78083e+6 
           2525       2.8706e+6 
           2535      2.84091e+6 
           2545      2.90099e+6 
           2555       3.6353e+6 
           2565      2.82134e+6 
           2575      3.36758e+6 
           2585      2.78445e+6 
           2595      2.30356e+6 
           2605       1.8686e+6 
           2615      1.75362e+6 
           2625      2.42501e+6 
           2635       3.6172e+6 
           2645      6.04725e+6 
           2655      6.23052e+6 
           2665      4.76875e+6 
           2675      5.33746e+6 
           2685      5.22148e+6 
           2695      4.98922e+6 
           2705      5.37212e+6 
           2715      4.30632e+6 
           2725      4.36112e+6 
           2735      4.58715e+6 
           2745      2.22582e+6 
           2755      2.85986e+6 
           2765      3.58422e+6 
           2775      4.43893e+6 
           2785      3.10958e+6 
           2795      1.05712e+6 
           2805      1.37036e+6 
           2815      3.99039e+6 
           2825      5.70337e+6 
           2835      5.57227e+6 
           2845      5.49174e+6 
           2855      4.82569e+6 
           2865      6.00052e+6 
           2875      5.81984e+6 
           2885      6.11088e+6 
           2895      5.73476e+6 
           2910      7.18304e+6 
           2930      6.69827e+6 
           2950      6.59823e+6 
           2970      7.32668e+6 
           2990      7.45023e+6 
           3010      7.95655e+6 
           3030      7.88592e+6 
           3050       7.8776e+6 
           3070      7.87003e+6 
           3090      8.41319e+6 
           3110      8.03658e+6 
           3130      7.95881e+6 
           3150      8.52933e+6 
           3170      8.42804e+6 
           3190      7.73776e+6 
           3210      8.37798e+6 
           3230      7.82534e+6 
           3250      8.50116e+6 
           3270      8.79666e+6 
           3290      8.90374e+6 
           3310      9.25138e+6 
           3330      8.97106e+6 
           3350      8.83774e+6 
           3370       8.6688e+6 
           3390      8.98413e+6 
           3410      9.36956e+6 
           3430      9.59491e+6 
           3450      9.55141e+6 
           3470      9.35464e+6 
           3490      9.22392e+6 
           3510      9.71691e+6 
           3530      9.86924e+6 
           3550      1.02952e+7 
           3570      9.68656e+6 
           3590      9.80401e+6 
           3610      9.90035e+6 
           3630      1.01352e+7 
           3640      9.88369e+6 
           3650      1.04127e+7 
           3670      1.04525e+7 
           3690      1.18018e+7 
           3710      1.62411e+7 
           3730      2.64658e+7 
           3750      3.68277e+7 
           3770      3.74479e+7 
           3790      4.30781e+7 
           3810      4.69066e+7 
           3830      3.87929e+7 
           3850      4.68977e+7 
           3870      4.88114e+7 
           3890      3.87631e+7 
           3910      4.50653e+7 
           3930      2.63554e+7 
           3950      4.18851e+7 
           3970      2.71105e+7 
           3990      4.62579e+7 
           4010      4.71916e+7 
           4030       4.6337e+7 
           4050      4.58805e+7 
           4070      4.50691e+7 
           4090      4.59131e+7 
           4110       3.8179e+7 
           4130      4.47188e+7 
           4150       4.5691e+7 
           4170      4.38802e+7 
           4190      4.38764e+7 
           4210      4.33713e+7 
           4230        4.264e+7 
           4250       4.2882e+7 
           4270      4.16857e+7 
           4290      4.22191e+7 
           4310      3.97373e+7 
           4330      3.89611e+7 
           4350      3.43212e+7 
           4370      4.13306e+7 
           4390      4.00635e+7 
           4410      3.89164e+7 
           4430      3.92703e+7 
           4450      3.94336e+7 
           4470      3.92211e+7 
           4490      3.91191e+7 
           4510      3.97249e+7 
           4530      3.80605e+7 
           4550       3.7148e+7 
           4570      3.86183e+7 
           4590      3.68967e+7 
           4610      3.84137e+7 
           4630      3.70352e+7 
           4650      3.76059e+7 
           4670      3.72724e+7 
           4690      3.63694e+7 
           4710      3.51526e+7 
           4730      3.62587e+7 
           4750      3.64799e+7 
           4770      3.56101e+7 
           4790      3.54053e+7 
           4810      3.50365e+7 
           4830      3.45693e+7 
           4850      3.16903e+7 
           4870      2.60536e+7 
           4890      3.33103e+7 
           4910      3.32598e+7 
           4930      3.22232e+7 
           4950      3.28259e+7 
           4970      3.30168e+7 
           4990      3.15211e+7 
           5010      3.01487e+7 
           5030      3.10009e+7 
           5050      3.07292e+7 
           5070      3.09797e+7 
           5090      3.05535e+7 
           5110      3.03336e+7 
           5130      2.94161e+7 
           5150      2.89211e+7 
           5170      2.83172e+7 
           5190        2.807e+7 
           5210      2.80298e+7 
           5230      2.77469e+7 
           5250      2.80963e+7 
           5270       2.6565e+7 
           5290        2.763e+7 
           5310       2.6837e+7 
           5330      2.63562e+7 
           5350      2.70808e+7 
           5370      2.67776e+7 
           5390      2.63043e+7 
           5410      2.58296e+7 
           5430      2.56678e+7 
           5450      2.59845e+7 
           5470      2.56236e+7 
           5490      2.54985e+7 
           5510      2.51363e+7 
           5530      2.49684e+7 
           5550      2.50419e+7 
           5570      2.46669e+7 
           5590       2.4469e+7 
           5610      2.43763e+7 
           5630      2.42331e+7 
           5650      2.37904e+7 
           5670        2.346e+7 
           5690      2.35816e+7 
           5710       2.3397e+7 
           5730      2.33625e+7 
           5750      2.30647e+7 
           5770      2.29118e+7 
           5790      2.26089e+7 
           5810      2.24557e+7 
           5830      2.22498e+7 
           5850      2.20902e+7 
           5870       2.1929e+7 
           5890      2.13579e+7 
           5910       2.1507e+7 
           5930      2.13075e+7 
           5950      2.10868e+7 
           5970      2.09891e+7 
           5990      2.06571e+7 
           6010      2.04656e+7 
           6030       2.0387e+7 
           6050      2.01897e+7 
           6070      2.01039e+7 
           6090       1.9838e+7 
           6110      1.95892e+7 
           6130      1.93142e+7 
           6150      1.88571e+7 
           6170      1.90023e+7 
           6190       1.9038e+7 
           6210      1.89253e+7 
           6230      1.85856e+7 
           6250      1.79547e+7 
           6270      1.84633e+7 
           6290      1.82946e+7 
           6310      1.78817e+7 
           6330      1.79024e+7 
           6350       1.7659e+7 
           6370      1.75251e+7 
           6390      1.74672e+7 
           6410      1.71943e+7 
           6430      1.71394e+7 
           6450      1.67834e+7 
           6470      1.69561e+7 
           6490      1.64868e+7 
           6510      1.65057e+7 
           6530      1.64471e+7 
           6550      1.52553e+7 
           6570      1.20442e+7 
           6590      1.58445e+7 
           6610      1.58755e+7 
           6630      1.59041e+7 
           6650      1.57899e+7 
           6670      1.56234e+7 
           6690      1.55385e+7 
           6710      1.54167e+7 
           6730      1.52828e+7 
           6750      1.51337e+7 
           6770      1.50953e+7 
           6790      1.49273e+7 
           6810      1.48544e+7 
           6830      1.46585e+7 
           6850      1.45762e+7 
           6870      1.45026e+7 
           6890      1.43956e+7 
           6910      1.42753e+7 
           6930      1.41514e+7 
           6950      1.40521e+7 
           6970      1.39266e+7 
           6990      1.38401e+7 
           7010      1.36033e+7 
           7030      1.35977e+7 
           7050      1.35108e+7 
           7070      1.34194e+7 
           7090       1.3325e+7 
           7110      1.29573e+7 
           7130      1.30315e+7 
           7150      1.29668e+7 
           7170      1.28799e+7 
           7190      1.27281e+7 
           7210      1.26489e+7 
           7230      1.25243e+7 
           7250      1.24675e+7 
           7270      1.24118e+7 
           7290      1.22552e+7 
           7310      1.21212e+7 
           7330      1.20783e+7 
           7350      1.20071e+7 
           7370      1.19836e+7 
           7390      1.18416e+7 
           7410      1.16988e+7 
           7430      1.15738e+7 
           7450      1.15294e+7 
           7470       1.1378e+7 
           7490      1.13489e+7 
           7510      1.12745e+7 
           7530      1.12452e+7 
           7550      1.12214e+7 
           7570      1.10912e+7 
           7590      1.10459e+7 
           7610      1.09736e+7 
           7630      1.08942e+7 
           7650        1.076e+7 
           7670      1.06681e+7 
           7690      1.06331e+7 
           7710      1.04981e+7 
           7730      1.04956e+7 
           7750      1.04139e+7 
           7770      1.01082e+7 
           7790      1.02911e+7 
           7810      1.02094e+7 
           7830      1.00916e+7 
           7850      9.97357e+6 
           7870      9.92903e+6 
           7890      9.82731e+6 
           7910      9.78491e+6 
           7930      9.73022e+6 
           7950      9.61814e+6 
           7970      9.65474e+6 
           7990      9.46661e+6 
           8010       9.4969e+6 
           8030      9.41577e+6 
           8050      9.37311e+6 
           8070      9.29431e+6 
           8090      9.23172e+6 
           8110      9.18854e+6 
           8130      9.13768e+6 
           8150      9.07304e+6 
           8170      9.01005e+6 
           8190      8.81389e+6 
           8210      8.79168e+6 
           8230      8.73621e+6 
           8250      8.68283e+6 
           8270      8.72847e+6 
           8290      8.64146e+6 
           8310       8.5339e+6 
           8330      8.34692e+6 
           8350      8.47233e+6 
           8370      8.22808e+6 
           8390      8.31948e+6 
           8410      8.31671e+6 
           8430      8.56515e+6 
           8450      8.37112e+6 
           8470      8.19668e+6 
           8490      8.81403e+6 
           8510      7.90652e+6 
           8530      8.98061e+6 
           8550      7.20812e+6 
           8570      9.29553e+6 
           8590      8.83159e+6 
           8610       8.5914e+6 
           8630      9.54306e+6 
           8650      9.36455e+6 
           8670      7.25003e+6 
           8690      9.16579e+6 
           8710      9.40482e+6 
           8730      9.27823e+6 
           8750      7.74888e+6 
           8770      9.10807e+6 
           8790      9.20515e+6 
           8810      9.09642e+6 
           8830      8.88276e+6 
           8850      8.64641e+6 
           8870      7.48604e+6 
           8890      8.82619e+6 
           8910      8.77522e+6 
           8930      8.69344e+6 
           8950      8.71812e+6 
           8970      8.64558e+6 
           8990      8.52092e+6 
           9010      7.32714e+6 
           9030       8.0284e+6 
           9050      8.40831e+6 
           9070      8.13176e+6 
           9090      7.99981e+6 
           9110      8.15084e+6 
           9130      8.16579e+6 
           9150      8.16478e+6 
           9170      8.07499e+6 
           9190      7.96494e+6 
           9210      7.79626e+6 
           9230      6.49205e+6 
           9250      7.55154e+6 
           9270      7.58124e+6 
           9290      7.76515e+6 
           9310      7.72791e+6 
           9330      7.65629e+6 
           9350      7.62616e+6 
           9370      7.58892e+6 
           9390      7.47203e+6 
           9410      7.22034e+6 
           9430      7.35328e+6 
           9450       7.3399e+6 
           9470      7.31565e+6 
           9490      7.28861e+6 
           9510      7.21592e+6 
           9530      7.06205e+6 
