# Kurucz ODFNEW /NOVER (2003)
# teff = 20000 K (value for the effective temperature for the model. Temperatures are given in K)
# logg = 3.5 log(cm/s2) (value for Log(G) for the model.)
# meta = -2.5  (value for the Metallicity for the model.)
# lh = 1.25  (l/Hp where l is the  mixing length of the convective element and Hp is the pressure scale height)
# vtur = 2 km/s (Microturbulence velocity)
# alpha = 0.4  (Alpha)
#
# column 1: WAVELENGTH (ANGSTROM), Wavelength in Angstrom
# column 2: FLUX (ERG/CM2/S/A), Flux in erg/cm2/s/A
          147.2     1.07986e-20 
            151     7.73897e-20 
          155.2     6.10036e-19 
          158.8     3.28379e-18 
            162     1.37711e-17 
            166     7.64396e-17 
          170.3     4.40781e-16 
          173.4     1.47609e-15 
          176.8     5.28837e-15 
          180.2     1.80417e-14 
          181.7     3.05435e-14 
          186.1     1.36134e-13 
            191      6.6185e-13 
          193.9     1.62336e-12 
          198.4     6.19266e-12 
          201.8     1.63492e-11 
            205     3.95483e-11 
          210.5     1.69157e-10 
          216.2     7.03522e-10 
          219.8      1.66359e-9 
            223      3.48912e-9 
          226.8      8.17349e-9 
            230      2.13148e-8 
            234      5.11154e-8 
            240      1.66906e-7 
          246.5      5.61868e-7 
          252.4      1.60258e-6 
          256.8      3.36756e-6 
            260      5.73286e-6 
            264       1.0875e-5 
          268.5      2.18109e-5 
          273.5       4.5951e-5 
          278.5      9.41991e-5 
            284     0.000201186 
            290     0.000444724 
            296     0.000949993 
            301      0.00174603 
            308      0.00394004 
            318       0.0118845 
            328       0.0332849 
            338       0.0873662 
            348        0.216185 
            357        0.466356 
            366        0.966375 
            375         1.92808 
            385         3.98778 
            395          7.9255 
            405         15.1833 
            414          26.475 
            422         42.4615 
            430         66.8027 
            441         120.978 
            451         201.903 
            460         313.472 
            470         500.066 
            480           780.7 
            490         1194.52 
            500         1793.23 
            506         12844.7 
            512         37715.5 
            520           49259 
            530         75604.7 
            540         84594.9 
            550          128748 
            560          162921 
            570          206604 
            580          211770 
            590          292736 
            600          390553 
            610          479047 
            620          577060 
            630          694790 
            640          820509 
            650          979853 
            658      1.12071e+6 
            665      1.25101e+6 
            675      1.44887e+6 
            685      1.67825e+6 
            695        1.967e+6 
            705       2.2564e+6 
            716      2.61617e+6 
            726      2.97623e+6 
            735      3.35554e+6 
            745      3.80337e+6 
            755      4.28924e+6 
            765       4.8087e+6 
            775      5.39248e+6 
            785      6.01465e+6 
            795      6.67893e+6 
            805      7.40349e+6 
            815       8.1701e+6 
            825       9.0083e+6 
            835      9.77992e+6 
            845      1.08235e+7 
            855      1.17926e+7 
            865      1.28951e+7 
            875      1.40201e+7 
            885      1.52327e+7 
            895      1.64857e+7 
            905      1.76239e+7 
            915      3.45836e+7 
            925      3.12316e+8 
            935      1.32377e+9 
            945      4.79146e+9 
            955      6.96682e+9 
            965        9.064e+9 
            975      3.55605e+9 
            985      1.0464e+10 
            995     1.02639e+10 
           1005     1.05165e+10 
           1015      9.47725e+9 
           1025      2.78474e+9 
           1035       8.4734e+9 
           1045     1.04895e+10 
           1055     1.03085e+10 
           1065      9.64488e+9 
           1075      9.96831e+9 
           1085      9.42028e+9 
           1095      9.82587e+9 
           1105      9.32764e+9 
           1115      9.30987e+9 
           1125      8.89089e+9 
           1135      9.09637e+9 
           1145       8.7126e+9 
           1155      8.86342e+9 
           1165      8.76077e+9 
           1175      7.94185e+9 
           1185      8.45654e+9 
           1195      7.74973e+9 
           1205      6.39313e+9 
           1215      1.79613e+9 
           1225       6.3568e+9 
           1235        7.573e+9 
           1245      7.60276e+9 
           1255      7.43975e+9 
           1265       7.3353e+9 
           1275       7.3704e+9 
           1285       7.2429e+9 
           1295      6.68893e+9 
           1305      6.66401e+9 
           1315      6.89615e+9 
           1325      6.70125e+9 
           1335      6.45475e+9 
           1345      6.53634e+9 
           1355      6.48721e+9 
           1365       6.3367e+9 
           1375      6.24746e+9 
           1385       6.1774e+9 
           1395      5.93835e+9 
           1405      5.90068e+9 
           1415      5.87045e+9 
           1425      5.79855e+9 
           1435      5.72497e+9 
           1442      5.67803e+9 
           1447      5.63113e+9 
           1455      5.55674e+9 
           1465      5.46692e+9 
           1475      5.38542e+9 
           1485      5.29725e+9 
           1495      5.21516e+9 
           1505      5.09951e+9 
           1512      5.05603e+9 
           1517       5.0334e+9 
           1525      4.96031e+9 
           1535      4.82363e+9 
           1545      4.80384e+9 
           1555      4.70221e+9 
           1565         4.68e+9 
           1575      4.62683e+9 
           1585      4.55799e+9 
           1595      4.49938e+9 
           1605      4.39172e+9 
           1615      4.32667e+9 
           1625      4.29798e+9 
           1635      4.24599e+9 
           1645      4.16097e+9 
           1655      4.12005e+9 
           1665      4.07438e+9 
           1672      3.97997e+9 
           1677      4.00985e+9 
           1685      3.96351e+9 
           1695      3.89747e+9 
           1705      3.83426e+9 
           1715      3.76573e+9 
           1725       3.7208e+9 
           1735      3.67853e+9 
           1745      3.62375e+9 
           1755      3.58795e+9 
           1765      3.48465e+9 
           1775      3.47156e+9 
           1785      3.43254e+9 
           1795      3.39732e+9 
           1805      3.35365e+9 
           1815      3.29907e+9 
           1825      3.26189e+9 
           1835      3.21759e+9 
           1845      3.14308e+9 
           1855      3.06352e+9 
           1865      3.04072e+9 
           1875       3.0417e+9 
           1885      2.96095e+9 
           1895      2.88887e+9 
           1905         2.91e+9 
           1915      2.83408e+9 
           1925      2.79709e+9 
           1935      2.78536e+9 
           1945      2.76934e+9 
           1955      2.69268e+9 
           1967      2.69381e+9 
           1976      2.67763e+9 
           1984      2.62803e+9 
           1995      2.56629e+9 
           2005      2.57168e+9 
           2015      2.55039e+9 
           2025      2.52563e+9 
           2035      2.48377e+9 
           2045      2.45287e+9 
           2055      2.38972e+9 
           2065      2.37634e+9 
           2074      2.37906e+9 
           2078      2.33693e+9 
           2085      2.33678e+9 
           2095      2.29375e+9 
           2105      2.28289e+9 
           2115      2.26077e+9 
           2125      2.23929e+9 
           2135      2.21101e+9 
           2145      2.18061e+9 
           2155      2.15904e+9 
           2165      2.13352e+9 
           2175      2.10749e+9 
           2185      2.08422e+9 
           2195      2.06121e+9 
           2205      2.03644e+9 
           2215      2.01271e+9 
           2225      1.98804e+9 
           2235      1.96599e+9 
           2245      1.94463e+9 
           2255      1.92113e+9 
           2265       1.9006e+9 
           2275      1.87876e+9 
           2285      1.85831e+9 
           2295      1.82892e+9 
           2305      1.81606e+9 
           2315      1.79464e+9 
           2325      1.77527e+9 
           2335      1.75256e+9 
           2345      1.73059e+9 
           2355      1.71647e+9 
           2365      1.69532e+9 
           2375       1.6778e+9 
           2385      1.65614e+9 
           2395      1.63932e+9 
           2405      1.62226e+9 
           2415      1.60349e+9 
           2425      1.58959e+9 
           2435      1.57141e+9 
           2445      1.55468e+9 
           2455      1.53891e+9 
           2465      1.52162e+9 
           2475      1.50584e+9 
           2485      1.48966e+9 
           2495       1.4631e+9 
           2505       1.4581e+9 
           2513      1.44239e+9 
           2518      1.43732e+9 
           2525       1.4267e+9 
           2535      1.41107e+9 
           2545      1.39402e+9 
           2555      1.38347e+9 
           2565      1.36767e+9 
           2575      1.35547e+9 
           2585      1.34129e+9 
           2595      1.32722e+9 
           2605      1.32371e+9 
           2615       1.3108e+9 
           2625      1.29689e+9 
           2635       1.2798e+9 
           2645      1.26928e+9 
           2655      1.25482e+9 
           2665      1.24043e+9 
           2675       1.2278e+9 
           2685      1.22249e+9 
           2695      1.20197e+9 
           2705      1.19794e+9 
           2715      1.18576e+9 
           2725      1.16535e+9 
           2735      1.16239e+9 
           2745      1.14803e+9 
           2755      1.13723e+9 
           2765      1.11917e+9 
           2775      1.11733e+9 
           2785      1.10621e+9 
           2795      1.08201e+9 
           2805      1.07857e+9 
           2815      1.07439e+9 
           2825      1.05433e+9 
           2835      1.04874e+9 
           2845      1.04338e+9 
           2855      1.03345e+9 
           2865      1.02368e+9 
           2875      1.01379e+9 
           2885      1.00419e+9 
           2895       9.9466e+8 
           2910      9.80517e+8 
           2930      9.61779e+8 
           2950      9.38479e+8 
           2970      9.26651e+8 
           2990      9.09408e+8 
           3010      8.92789e+8 
           3030      8.76528e+8 
           3050      8.60616e+8 
           3070      8.45042e+8 
           3090      8.29719e+8 
           3110      8.14992e+8 
           3130      8.01419e+8 
           3150      7.87098e+8 
           3170      7.72923e+8 
           3190      7.53933e+8 
           3210       7.4603e+8 
           3230      7.32992e+8 
           3250      7.20217e+8 
           3270      7.08545e+8 
           3290      6.95572e+8 
           3310      6.84578e+8 
           3330      6.72982e+8 
           3350      6.60607e+8 
           3370      6.50533e+8 
           3390      6.39667e+8 
           3410      6.29043e+8 
           3430      6.16413e+8 
           3450      6.04445e+8 
           3470      5.96089e+8 
           3490      5.86493e+8 
           3510      5.79431e+8 
           3530      5.70465e+8 
           3550      5.61425e+8 
           3570      5.54442e+8 
           3590      5.43225e+8 
           3610      5.35257e+8 
           3630       5.2603e+8 
           3640      5.24508e+8 
           3650      5.19998e+8 
           3670      5.13647e+8 
           3690      4.97636e+8 
           3710       4.9067e+8 
           3730      4.86532e+8 
           3750      5.46643e+8 
           3770      5.55119e+8 
           3790      5.84839e+8 
           3810      6.13258e+8 
           3830      5.33059e+8 
           3850      6.30801e+8 
           3870      6.31115e+8 
           3890       5.0763e+8 
           3910      6.21003e+8 
           3930      6.10259e+8 
           3950       6.0156e+8 
           3970      4.72319e+8 
           3990      5.79147e+8 
           4010      5.72799e+8 
           4030      5.44024e+8 
           4050        5.603e+8 
           4070      5.49235e+8 
           4090      5.12032e+8 
           4110      4.44169e+8 
           4130      5.16783e+8 
           4150      5.11617e+8 
           4170       5.0683e+8 
           4190      5.00307e+8 
           4210      4.92441e+8 
           4230        4.847e+8 
           4250      4.77062e+8 
           4270      4.69215e+8 
           4290       4.6223e+8 
           4310      4.53225e+8 
           4330      4.14889e+8 
           4350        3.766e+8 
           4370      4.31948e+8 
           4390       4.1768e+8 
           4410      4.21261e+8 
           4430      4.13032e+8 
           4450      4.08681e+8 
           4470      3.87742e+8 
           4490      3.96181e+8 
           4510      3.90619e+8 
           4530      3.84791e+8 
           4550      3.79068e+8 
           4570      3.73466e+8 
           4590      3.68001e+8 
           4610      3.62635e+8 
           4630       3.5733e+8 
           4650      3.52032e+8 
           4670       3.4702e+8 
           4690      3.42028e+8 
           4710      3.33101e+8 
           4730      3.32227e+8 
           4750      3.27414e+8 
           4770      3.22886e+8 
           4790      3.18307e+8 
           4810      3.13679e+8 
           4830      3.07954e+8 
           4850      2.86617e+8 
           4870      2.54532e+8 
           4890      2.94472e+8 
           4910      2.91984e+8 
           4930      2.82537e+8 
           4950      2.84471e+8 
           4970      2.80585e+8 
           4990      2.76736e+8 
           5010      2.69923e+8 
           5030       2.6924e+8 
           5050      2.63965e+8 
           5070      2.62034e+8 
           5090       2.5851e+8 
           5110      2.55047e+8 
           5130      2.51631e+8 
           5150      2.48288e+8 
           5170       2.4499e+8 
           5190      2.41749e+8 
           5210      2.38522e+8 
           5230      2.35434e+8 
           5250      2.32346e+8 
           5270       2.2931e+8 
           5290      2.26328e+8 
           5310      2.23397e+8 
           5330      2.20517e+8 
           5350       2.1766e+8 
           5370      2.14879e+8 
           5390      2.12133e+8 
           5410      2.09422e+8 
           5430      2.06745e+8 
           5450       2.0414e+8 
           5470      2.01567e+8 
           5490      1.99026e+8 
           5510      1.96529e+8 
           5530      1.94075e+8 
           5550      1.91652e+8 
           5570       1.8927e+8 
           5590      1.86929e+8 
           5610      1.84605e+8 
           5630      1.82345e+8 
           5650      1.80077e+8 
           5670      1.77883e+8 
           5690      1.75727e+8 
           5710      1.73597e+8 
           5730      1.71493e+8 
           5750      1.69413e+8 
           5770       1.6738e+8 
           5790      1.65372e+8 
           5810      1.63387e+8 
           5830      1.61437e+8 
           5850       1.5952e+8 
           5870       1.5345e+8 
           5890      1.55667e+8 
           5910      1.53925e+8 
           5930      1.52117e+8 
           5950       1.5033e+8 
           5970      1.48574e+8 
           5990      1.46838e+8 
           6010      1.45143e+8 
           6030      1.43456e+8 
           6050      1.41799e+8 
           6070      1.40171e+8 
           6090      1.38561e+8 
           6110      1.36969e+8 
           6130      1.35405e+8 
           6150      1.33869e+8 
           6170      1.32349e+8 
           6190      1.30856e+8 
           6210       1.2938e+8 
           6230      1.27919e+8 
           6250      1.26485e+8 
           6270      1.25075e+8 
           6290      1.23681e+8 
           6310      1.22302e+8 
           6330      1.20948e+8 
           6350      1.19589e+8 
           6370      1.18282e+8 
           6390       1.1699e+8 
           6410      1.15701e+8 
           6430      1.14445e+8 
           6450      1.13193e+8 
           6470      1.11963e+8 
           6490      1.10747e+8 
           6510      1.09543e+8 
           6530      1.07981e+8 
           6550      1.03643e+8 
           6570      9.18763e+7 
           6590      1.04063e+8 
           6610      1.03701e+8 
           6630      1.02691e+8 
           6650      1.01674e+8 
           6670      9.97693e+7 
           6690       9.8736e+7 
           6710      9.84913e+7 
           6730      9.74576e+7 
           6750      9.64427e+7 
           6770      9.54299e+7 
           6790      9.44355e+7 
           6810      9.34592e+7 
           6830      9.24846e+7 
           6850      9.15359e+7 
           6870      9.05886e+7 
           6890      8.96587e+7 
           6910      8.87381e+7 
           6930      8.78344e+7 
           6950      8.69397e+7 
           6970      8.60537e+7 
           6990      8.51765e+7 
           7010      8.43231e+7 
           7030      8.34705e+7 
           7050      8.26262e+7 
           7070      8.05842e+7 
           7090      8.09845e+7 
           7110      8.01718e+7 
           7130      7.93744e+7 
           7150      7.85846e+7 
           7170      7.77951e+7 
           7190       7.7035e+7 
           7210      7.62748e+7 
           7230      7.55003e+7 
           7250      7.47833e+7 
           7270      7.40516e+7 
           7290      7.27881e+7 
           7310      7.26018e+7 
           7330      7.19117e+7 
           7350       7.1214e+7 
           7370      7.05229e+7 
           7390      6.98451e+7 
           7410      6.91735e+7 
           7430      6.85082e+7 
           7450      6.78625e+7 
           7470      6.72141e+7 
           7490      6.65735e+7 
           7510      6.59182e+7 
           7530       6.5316e+7 
           7550      6.46981e+7 
           7570      6.40872e+7 
           7590      6.34837e+7 
           7610      6.28877e+7 
           7630      6.22983e+7 
           7650      6.17161e+7 
           7670      6.11411e+7 
           7690      6.05718e+7 
           7710      6.00089e+7 
           7730      5.94548e+7 
           7750      5.89006e+7 
           7770        5.835e+7 
           7790       5.7826e+7 
           7810      5.72567e+7 
           7830      5.67716e+7 
           7850      5.63084e+7 
           7870      5.57951e+7 
           7890       5.5259e+7 
           7910      5.47903e+7 
           7930      5.42944e+7 
           7950      5.37492e+7 
           7970      5.31933e+7 
           7990      5.27308e+7 
           8010      5.22529e+7 
           8030      5.17972e+7 
           8050      5.13611e+7 
           8070      5.09223e+7 
           8090      5.03905e+7 
           8110      4.99825e+7 
           8130      4.95984e+7 
           8150      4.90773e+7 
           8170      4.87403e+7 
           8190      4.82661e+7 
           8210      4.77629e+7 
           8230      4.74871e+7 
           8250      4.70867e+7 
           8270      4.64604e+7 
           8290      4.62239e+7 
           8310      4.58402e+7 
           8330      4.54363e+7 
           8350      4.48434e+7 
           8370      4.45427e+7 
           8390      4.42043e+7 
           8410      4.37781e+7 
           8430      4.33368e+7 
           8450      4.27795e+7 
           8470      4.22978e+7 
           8490      4.23606e+7 
           8510      4.13273e+7 
           8530      4.18948e+7 
           8550      3.98644e+7 
           8570      4.19191e+7 
