# Kurucz ODFNEW /NOVER (2003)
# teff = 25000 K (value for the effective temperature for the model. Temperatures are given in K)
# logg = 3 log(cm/s2) (value for Log(G) for the model.)
# meta = 0.2  (value for the Metallicity for the model.)
# lh = 1.25  (l/Hp where l is the  mixing length of the convective element and Hp is the pressure scale height)
# vtur = 2 km/s (Microturbulence velocity)
# alpha = 0.4  (Alpha)
#
# column 1: WAVELENGTH (ANGSTROM), Wavelength in Angstrom
# column 2: FLUX (ERG/CM2/S/A), Flux in erg/cm2/s/A
          147.2     4.42297e-14 
            151     1.86407e-13 
          155.2     8.46533e-13 
          158.8     2.91898e-12 
            162     8.40866e-12 
            166       2.995e-11 
          170.3     1.09745e-10 
          173.4     2.71425e-10 
          176.8     7.05027e-10 
          180.2      1.77064e-9 
          181.7      2.62896e-9 
          186.1      8.11955e-9 
            191      2.69517e-8 
          193.9      5.33332e-8 
          198.4      1.48136e-7 
          201.8      3.11443e-7 
            205      6.13354e-7 
          210.5      1.87973e-6 
          216.2      5.65782e-6 
          219.8      1.10339e-5 
            223      1.96277e-5 
          226.8      3.93807e-5 
            230      0.00145935 
            234      0.00334843 
            240      0.00778443 
          246.5       0.0188848 
          252.4       0.0408871 
          256.8       0.0683522 
            260        0.111063 
            264        0.172722 
          268.5        0.298004 
          273.5        0.518995 
          278.5        0.867239 
            284          1.7977 
            290         3.20233 
            296         5.56778 
            301         8.58817 
            308         17.7622 
            318         43.3043 
            328         89.2344 
            338         191.837 
            348         378.583 
            357         2897.72 
            366         8400.45 
            375         12416.2 
            385         22421.3 
            395         88147.8 
            405          127931 
            414          244748 
            422          324279 
            430          452972 
            441          654682 
            451          829134 
            460      1.01781e+6 
            470      1.43665e+6 
            480      1.90638e+6 
            490      2.48773e+6 
            500      3.17945e+6 
            506      9.99105e+6 
            512      1.09952e+8 
            520      1.12363e+8 
            530      1.12528e+8 
            540      1.12949e+8 
            550      1.82922e+8 
            560      2.46316e+8 
            570      2.74958e+8 
            580      2.36184e+8 
            590      3.05409e+8 
            600      2.54397e+8 
            610      3.67344e+8 
            620      4.26016e+8 
            630      4.42175e+8 
            640       3.7844e+8 
            650      2.75998e+8 
            658      3.55721e+8 
            665      4.67426e+8 
            675      4.97874e+8 
            685      4.05147e+8 
            695      6.45625e+8 
            705      4.90898e+8 
            716      7.27377e+8 
            726      6.70617e+8 
            735      7.59979e+8 
            745       7.9673e+8 
            755      8.23812e+8 
            765      9.00649e+8 
            775      9.91586e+8 
            785      1.05721e+9 
            795      1.05313e+9 
            805      1.04515e+9 
            815      1.03815e+9 
            825      1.17149e+9 
            835      7.73802e+8 
            845      1.14086e+9 
            855      1.13762e+9 
            865      1.20829e+9 
            875      1.26901e+9 
            885      1.36348e+9 
            895       1.4122e+9 
            905      1.36244e+9 
            915      2.88249e+9 
            925     1.45989e+10 
            935     2.11397e+10 
            945     2.32077e+10 
            955     2.35755e+10 
            965     2.26193e+10 
            975      5.28026e+9 
            985     1.42829e+10 
            995       1.732e+10 
           1005     2.11086e+10 
           1015     2.25158e+10 
           1025     2.01445e+10 
           1035     1.96899e+10 
           1045     2.66316e+10 
           1055     2.45515e+10 
           1065     1.93369e+10 
           1075      2.2171e+10 
           1085      2.0984e+10 
           1095     2.30246e+10 
           1105     2.08934e+10 
           1115     1.96506e+10 
           1125     1.31138e+10 
           1135     2.07165e+10 
           1145     1.97654e+10 
           1155     1.95938e+10 
           1165      1.9406e+10 
           1175      9.92724e+9 
           1185      1.7741e+10 
           1195     1.72556e+10 
           1205     1.18844e+10 
           1215     1.46075e+10 
           1225     1.71406e+10 
           1235     1.86588e+10 
           1245     1.75645e+10 
           1255     1.78373e+10 
           1265     1.82893e+10 
           1275     1.90468e+10 
           1285     1.88759e+10 
           1295     1.35769e+10 
           1305     1.52851e+10 
           1315     1.87399e+10 
           1325      1.7735e+10 
           1335     1.72344e+10 
           1345     1.72989e+10 
           1355     1.71734e+10 
           1365     1.61028e+10 
           1375     1.52581e+10 
           1385     1.35683e+10 
           1395      6.43084e+9 
           1405      8.48508e+9 
           1415     1.32507e+10 
           1425     1.29798e+10 
           1435     1.39044e+10 
           1442     1.41498e+10 
           1447      1.3977e+10 
           1455     1.33402e+10 
           1465     1.24836e+10 
           1475     1.29847e+10 
           1485     1.28743e+10 
           1495     1.25292e+10 
           1505     1.16316e+10 
           1512     1.07322e+10 
           1517     1.10939e+10 
           1525     1.10884e+10 
           1535       9.2939e+9 
           1545      8.43158e+9 
           1555      8.29123e+9 
           1565      9.44167e+9 
           1575     1.02284e+10 
           1585      1.0238e+10 
           1595     1.01765e+10 
           1605     1.00037e+10 
           1615       9.6517e+9 
           1625      9.67623e+9 
           1635     1.02171e+10 
           1645      1.0368e+10 
           1655     1.01297e+10 
           1665     1.01521e+10 
           1672      9.45373e+9 
           1677     1.10446e+10 
           1685     1.04528e+10 
           1695      9.86018e+9 
           1705      9.79579e+9 
           1715      9.15135e+9 
           1725      9.00897e+9 
           1735      9.34607e+9 
           1745      9.22503e+9 
           1755      9.20705e+9 
           1765      9.25998e+9 
           1775       8.6279e+9 
           1785      8.82426e+9 
           1795      8.90768e+9 
           1805      9.00975e+9 
           1815      8.19977e+9 
           1825      8.46509e+9 
           1835      8.31043e+9 
           1845      7.58544e+9 
           1855       7.8598e+9 
           1865      7.94666e+9 
           1875      8.02779e+9 
           1885      7.27997e+9 
           1895      6.83301e+9 
           1905      7.38515e+9 
           1915       6.9986e+9 
           1925      6.59394e+9 
           1935      7.08589e+9 
           1945      7.25132e+9 
           1955      6.44802e+9 
           1967      7.03686e+9 
           1976      7.37679e+9 
           1984      6.88999e+9 
           1995      6.77181e+9 
           2005      7.03842e+9 
           2015       7.0103e+9 
           2025       7.1394e+9 
           2035      6.54215e+9 
           2045      6.63894e+9 
           2055      6.08419e+9 
           2065      6.04052e+9 
           2074      6.50502e+9 
           2078      5.99772e+9 
           2085      6.44731e+9 
           2095      6.07596e+9 
           2105      6.29069e+9 
           2115      6.36913e+9 
           2125      6.38708e+9 
           2135      6.30896e+9 
           2145      5.98653e+9 
           2155      6.22898e+9 
           2165       6.1596e+9 
           2175      6.09393e+9 
           2185      5.94082e+9 
           2195      6.01427e+9 
           2205       5.9999e+9 
           2215      5.90454e+9 
           2225      5.75882e+9 
           2235      5.65159e+9 
           2245      5.69008e+9 
           2255      5.54979e+9 
           2265      5.57175e+9 
           2275      5.50956e+9 
           2285      5.43871e+9 
           2295        4.665e+9 
           2305      5.24809e+9 
           2315      5.13333e+9 
           2325      5.10369e+9 
           2335      4.98206e+9 
           2345       5.0427e+9 
           2355      4.97429e+9 
           2365      4.92921e+9 
           2375      4.81673e+9 
           2385      4.75595e+9 
           2395      4.69465e+9 
           2405      4.66051e+9 
           2415       4.5771e+9 
           2425      4.56755e+9 
           2435      4.46327e+9 
           2445      4.45122e+9 
           2455       4.4196e+9 
           2465      4.33818e+9 
           2475      4.22367e+9 
           2485       3.9251e+9 
           2495      2.49276e+9 
           2505       3.5963e+9 
           2513      3.82577e+9 
           2518      3.94185e+9 
           2525      4.00765e+9 
           2535      4.01584e+9 
           2545      3.83824e+9 
           2555      3.90192e+9 
           2565      3.83874e+9 
           2575      3.84938e+9 
           2585      3.79829e+9 
           2595      3.76141e+9 
           2605      3.74008e+9 
           2615      3.66206e+9 
           2625      3.64274e+9 
           2635      3.60944e+9 
           2645      3.55953e+9 
           2655      3.52865e+9 
           2665      3.40107e+9 
           2675       3.3879e+9 
           2685      3.40034e+9 
           2695      3.29179e+9 
           2705      3.23347e+9 
           2715      3.23167e+9 
           2725      3.21992e+9 
           2735       3.1803e+9 
           2745      3.15102e+9 
           2755      3.12739e+9 
           2765      3.08628e+9 
           2775       3.0949e+9 
           2785      3.03206e+9 
           2795      2.92152e+9 
           2805      2.96355e+9 
           2815      2.95979e+9 
           2825      2.93226e+9 
           2835      2.84126e+9 
           2845      2.86023e+9 
           2855      2.79933e+9 
           2865      2.79033e+9 
           2875      2.75404e+9 
           2885      2.73181e+9 
           2895       2.6914e+9 
           2910      2.61915e+9 
           2930      2.60563e+9 
           2950      2.53384e+9 
           2970      2.48936e+9 
           2990       2.4252e+9 
           3010      2.32297e+9 
           3030      2.30308e+9 
           3050      2.28459e+9 
           3070      2.25812e+9 
           3090      2.15516e+9 
           3110      2.16438e+9 
           3130      2.09932e+9 
           3150      2.07396e+9 
           3170      2.02204e+9 
           3190      1.98929e+9 
           3210       1.9532e+9 
           3230      1.89919e+9 
           3250      1.88152e+9 
           3270       1.8292e+9 
           3290      1.79815e+9 
           3310      1.76259e+9 
           3330      1.72103e+9 
           3350      1.69172e+9 
           3370      1.65484e+9 
           3390      1.63911e+9 
           3410       1.6088e+9 
           3430      1.58346e+9 
           3450      1.54569e+9 
           3470      1.51772e+9 
           3490      1.48702e+9 
           3510      1.46208e+9 
           3530      1.44668e+9 
           3550      1.41559e+9 
           3570      1.38961e+9 
           3590      1.35526e+9 
           3610      1.33334e+9 
           3630      1.31092e+9 
           3640      1.30367e+9 
           3650      1.27527e+9 
           3670      1.25948e+9 
           3690      1.22616e+9 
           3710      1.19447e+9 
           3730      1.17907e+9 
           3750      1.22348e+9 
           3770      1.19879e+9 
           3790      1.20419e+9 
           3810      1.22249e+9 
           3830      1.13307e+9 
           3850      1.19242e+9 
           3870      1.14836e+9 
           3890      1.08748e+9 
           3910       1.1447e+9 
           3930      1.10346e+9 
           3950      1.08879e+9 
           3970      1.00385e+9 
           3990      1.06508e+9 
           4010      1.04956e+9 
           4030       1.0212e+9 
           4050      1.01357e+9 
           4070      9.69109e+8 
           4090      9.35737e+8 
           4110      8.88806e+8 
           4130      9.30178e+8 
           4150      9.22153e+8 
           4170      9.18138e+8 
           4190      9.03879e+8 
           4210      8.94504e+8 
           4230      8.76317e+8 
           4250      8.52404e+8 
           4270      8.31524e+8 
           4290      8.15888e+8 
           4310      7.95435e+8 
           4330      7.75586e+8 
           4350      7.30524e+8 
           4370      7.63583e+8 
           4390      7.62467e+8 
           4410      7.47295e+8 
           4430      7.43442e+8 
           4450      7.28004e+8 
           4470      7.13453e+8 
           4490      7.10494e+8 
           4510      6.99946e+8 
           4530      6.92586e+8 
           4550      6.81762e+8 
           4570      6.71153e+8 
           4590       6.5888e+8 
           4610       6.4534e+8 
           4630      6.37264e+8 
           4650      6.09022e+8 
           4670      6.16375e+8 
           4690      6.11455e+8 
           4710      5.92144e+8 
           4730      5.97351e+8 
           4750      5.86337e+8 
           4770      5.85322e+8 
           4790      5.76126e+8 
           4810      5.65043e+8 
           4830      5.55335e+8 
           4850      5.44053e+8 
           4870      5.06332e+8 
           4890      5.33519e+8 
           4910      5.25822e+8 
           4930      5.13721e+8 
           4950      5.07349e+8 
           4970       5.0669e+8 
           4990      4.99051e+8 
           5010      4.81296e+8 
           5030      4.82896e+8 
           5050      4.75209e+8 
           5070      4.71848e+8 
           5090      4.64047e+8 
           5110      4.57291e+8 
           5130      4.49523e+8 
           5150      4.44192e+8 
           5170      4.38493e+8 
           5190      4.33441e+8 
           5210      4.27483e+8 
           5230       4.2214e+8 
           5250      4.16128e+8 
           5270      4.09652e+8 
           5290      4.05483e+8 
           5310      3.99696e+8 
           5330      3.94885e+8 
           5350      3.89516e+8 
           5370      3.84582e+8 
           5390      3.78492e+8 
           5410      3.73871e+8 
           5430      3.69627e+8 
           5450      3.64344e+8 
           5470       3.5967e+8 
           5490      3.55129e+8 
           5510      3.50955e+8 
           5530      3.45958e+8 
           5550      3.42197e+8 
           5570      3.37534e+8 
           5590      3.33049e+8 
           5610      3.29146e+8 
           5630      3.25172e+8 
           5650       3.2036e+8 
           5670      3.15128e+8 
           5690      3.08925e+8 
           5710      3.06233e+8 
           5730      3.03078e+8 
           5750      2.97965e+8 
           5770      2.96152e+8 
           5790      2.92255e+8 
           5810      2.88707e+8 
           5830      2.84623e+8 
           5850      2.81954e+8 
           5870      2.73771e+8 
           5890      2.73902e+8 
           5910      2.71566e+8 
           5930      2.68131e+8 
           5950      2.64905e+8 
           5970      2.63186e+8 
           5990       2.5888e+8 
           6010      2.56503e+8 
           6030      2.52918e+8 
           6050      2.50189e+8 
           6070      2.47643e+8 
           6090       2.4479e+8 
           6110      2.41798e+8 
           6130       2.3909e+8 
           6150      2.35376e+8 
           6170      2.32773e+8 
           6190      2.30633e+8 
           6210      2.28192e+8 
           6230      2.25477e+8 
           6250      2.22532e+8 
           6270      2.20195e+8 
           6290      2.17778e+8 
           6310      2.14895e+8 
           6330       2.1289e+8 
           6350       2.1001e+8 
           6370      2.08099e+8 
           6390      2.05654e+8 
           6410      2.03273e+8 
           6430      2.01163e+8 
           6450      1.98821e+8 
           6470      1.95794e+8 
           6490      1.93668e+8 
           6510      1.91636e+8 
           6530      1.89333e+8 
           6550      1.86615e+8 
           6570      1.71525e+8 
           6590      1.82561e+8 
           6610      1.81449e+8 
           6630      1.79722e+8 
           6650      1.77356e+8 
           6670      1.74533e+8 
           6690      1.72742e+8 
           6710      1.71889e+8 
           6730      1.69413e+8 
           6750      1.68361e+8 
           6770      1.66628e+8 
           6790      1.63883e+8 
           6810      1.62898e+8 
           6830      1.60903e+8 
           6850      1.59515e+8 
           6870       1.5775e+8 
           6890      1.55716e+8 
           6910      1.53649e+8 
           6930      1.52928e+8 
           6950      1.51347e+8 
           6970      1.49774e+8 
           6990      1.48147e+8 
           7010      1.46529e+8 
           7030      1.44919e+8 
           7050      1.43499e+8 
           7070      1.40223e+8 
           7090       1.4061e+8 
           7110       1.3824e+8 
           7130      1.37014e+8 
           7150      1.36322e+8 
           7170      1.34881e+8 
           7190       1.3357e+8 
           7210      1.32207e+8 
           7230      1.29293e+8 
           7250      1.29061e+8 
           7270      1.28209e+8 
           7290      1.26082e+8 
           7310      1.25604e+8 
           7330      1.24317e+8 
           7350      1.23097e+8 
           7370       1.2191e+8 
           7390      1.20699e+8 
           7410      1.19493e+8 
           7430      1.18291e+8 
           7450      1.17093e+8 
           7470      1.15056e+8 
           7490       1.1463e+8 
           7510      1.13647e+8 
           7530      1.12406e+8 
           7550      1.11494e+8 
           7570      1.10393e+8 
           7590       1.0923e+8 
           7610      1.07941e+8 
           7630      1.07156e+8 
           7650      1.06087e+8 
           7670      1.05151e+8 
           7690       1.0405e+8 
           7710      1.03074e+8 
           7730      1.01955e+8 
           7750      1.01153e+8 
           7770       1.0004e+8 
           7790      9.92728e+7 
           7810      9.82956e+7 
           7830      9.74008e+7 
           7850      9.64956e+7 
           7870      9.53062e+7 
           7890      9.43032e+7 
           7910      9.36945e+7 
           7930      9.27732e+7 
           7950      9.19732e+7 
           7970      9.10555e+7 
           7990      9.02461e+7 
           8010       8.9385e+7 
           8030      8.85606e+7 
           8050      8.78246e+7 
           8070      8.70311e+7 
           8090      8.61524e+7 
           8110      8.47084e+7 
           8130      8.46798e+7 
           8150      8.38052e+7 
           8170      8.31753e+7 
           8190      8.18429e+7 
           8210      8.11428e+7 
           8230      8.03039e+7 
           8250      8.00092e+7 
           8270      7.83557e+7 
           8290      7.84276e+7 
           8310      7.78433e+7 
           8330      7.71387e+7 
           8350      7.61645e+7 
           8370      7.54944e+7 
           8390      7.50225e+7 
           8410      7.42187e+7 
           8430      7.36655e+7 
           8450      7.27052e+7 
           8470      7.20156e+7 
           8490      7.19747e+7 
           8510      7.03258e+7 
           8530       7.0975e+7 
           8550      6.85047e+7 
           8570      7.03243e+7 
