# Kurucz ODFNEW /NOVER (2003)
# teff = 28000 K (value for the effective temperature for the model. Temperatures are given in K)
# logg = 3.5 log(cm/s2) (value for Log(G) for the model.)
# meta = -1  (value for the Metallicity for the model.)
# lh = 1.25  (l/Hp where l is the  mixing length of the convective element and Hp is the pressure scale height)
# vtur = 2 km/s (Microturbulence velocity)
# alpha = 0  (Alpha)
#
# column 1: WAVELENGTH (ANGSTROM), Wavelength in Angstrom
# column 2: FLUX (ERG/CM2/S/A), Flux in erg/cm2/s/A
          147.2     1.32211e-10 
            151     4.82573e-10 
          155.2      1.87606e-9 
          158.8      5.67766e-9 
            162      1.45874e-8 
            166      4.50993e-8 
          170.3      1.42991e-7 
          173.4      3.17082e-7 
          176.8      7.35399e-7 
          180.2      1.65196e-6 
          181.7      2.33809e-6 
          186.1       6.2773e-6 
            191      1.78714e-5 
          193.9      3.23761e-5 
          198.4      7.86582e-5 
          201.8     0.000149819 
            205     0.000269399 
          210.5     0.000708768 
          216.2      0.00183366 
          219.8      0.00325887 
            223      0.00534939 
          226.8      0.00946763 
            230         7.44058 
            234          19.003 
            240         36.1621 
          246.5         73.5389 
          252.4         135.161 
          256.8         174.099 
            260         298.369 
            264         427.561 
          268.5         650.751 
          273.5         987.878 
          278.5         1440.62 
            284         2529.62 
            290         3911.09 
            296         5826.63 
            301         7503.74 
            308         11727.5 
            318         26871.5 
            328         45602.9 
            338         80919.5 
            348          133969 
            357          247499 
            366          394458 
            375          547875 
            385          828131 
            395      1.22502e+6 
            405      1.69482e+6 
            414      2.29758e+6 
            422       2.8455e+6 
            430      3.61489e+6 
            441       4.9028e+6 
            451      6.35862e+6 
            460      7.80343e+6 
            470      1.00013e+7 
            480      1.24862e+7 
            490      1.54702e+7 
            500      1.92494e+7 
            506      1.13431e+8 
            512      4.67434e+8 
            520      4.61187e+8 
            530      4.67767e+8 
            540       4.4081e+8 
            550      5.41233e+8 
            560      6.12546e+8 
            570      6.62227e+8 
            580      6.18994e+8 
            590      7.10937e+8 
            600      7.16236e+8 
            610      7.90048e+8 
            620      8.70623e+8 
            630      9.00249e+8 
            640      8.97482e+8 
            650      9.30722e+8 
            658      9.74966e+8 
            665      1.03957e+9 
            675      1.06696e+9 
            685      1.04494e+9 
            695      1.21171e+9 
            705      1.18099e+9 
            716      1.31922e+9 
            726      1.33723e+9 
            735      1.37665e+9 
            745      1.45608e+9 
            755      1.49244e+9 
            765      1.55204e+9 
            775      1.61311e+9 
            785      1.69503e+9 
            795      1.72991e+9 
            805      1.76079e+9 
            815      1.78364e+9 
            825      1.87555e+9 
            835      1.75633e+9 
            845      1.92405e+9 
            855      1.96423e+9 
            865      2.03383e+9 
            875      2.10314e+9 
            885       2.1781e+9 
            895      2.23453e+9 
            905       2.2454e+9 
            915      3.45602e+9 
            925     2.08468e+10 
            935     3.30083e+10 
            945      4.4409e+10 
            955     4.69742e+10 
            965     5.12244e+10 
            975      2.6001e+10 
            985     4.58455e+10 
            995     4.34103e+10 
           1005     4.51169e+10 
           1015     4.50953e+10 
           1025     3.49849e+10 
           1035      4.2258e+10 
           1045     4.75731e+10 
           1055     4.58327e+10 
           1065     4.12792e+10 
           1075     4.28587e+10 
           1085     4.00915e+10 
           1095     4.24542e+10 
           1105     4.08563e+10 
           1115     4.01782e+10 
           1125     3.60083e+10 
           1135     3.91403e+10 
           1145     3.69481e+10 
           1155     3.70764e+10 
           1165     3.65425e+10 
           1175     2.80427e+10 
           1185     3.41524e+10 
           1195      3.3322e+10 
           1205     3.09525e+10 
           1215     2.41813e+10 
           1225     3.14488e+10 
           1235     3.23767e+10 
           1245     3.12705e+10 
           1255     3.11831e+10 
           1265     3.10923e+10 
           1275     3.09124e+10 
           1285     3.05039e+10 
           1295     2.80937e+10 
           1305     2.83948e+10 
           1315     2.90146e+10 
           1325     2.80075e+10 
           1335     2.71287e+10 
           1345     2.71516e+10 
           1355      2.6857e+10 
           1365      2.6014e+10 
           1375     2.55653e+10 
           1385      2.5113e+10 
           1395     2.17827e+10 
           1405     2.21302e+10 
           1415       2.351e+10 
           1425     2.23445e+10 
           1435     2.26873e+10 
           1442     2.27411e+10 
           1447     2.24313e+10 
           1455     2.18721e+10 
           1465     2.13937e+10 
           1475     2.11393e+10 
           1485     2.09187e+10 
           1495     2.03735e+10 
           1505      1.9786e+10 
           1512     1.92736e+10 
           1517     1.92859e+10 
           1525     1.89464e+10 
           1535     1.73589e+10 
           1545     1.66962e+10 
           1555     1.62297e+10 
           1565      1.6809e+10 
           1575     1.71718e+10 
           1585     1.70713e+10 
           1595     1.68549e+10 
           1605     1.59948e+10 
           1615     1.55792e+10 
           1625     1.56135e+10 
           1635     1.56739e+10 
           1645      1.5211e+10 
           1655     1.54294e+10 
           1665     1.51712e+10 
           1672     1.46739e+10 
           1677     1.55068e+10 
           1685     1.50547e+10 
           1695     1.46599e+10 
           1705     1.43148e+10 
           1715     1.38653e+10 
           1725     1.36037e+10 
           1735     1.37665e+10 
           1745     1.35213e+10 
           1755     1.33542e+10 
           1765     1.30884e+10 
           1775     1.28194e+10 
           1785     1.27826e+10 
           1795     1.26183e+10 
           1805     1.25703e+10 
           1815     1.21382e+10 
           1825     1.20463e+10 
           1835     1.19209e+10 
           1845     1.12398e+10 
           1855     1.11562e+10 
           1865     1.11863e+10 
           1875     1.11391e+10 
           1885     1.05074e+10 
           1895     1.01156e+10 
           1905     1.04153e+10 
           1915     1.00648e+10 
           1925      9.71391e+9 
           1935      9.96834e+9 
           1945     1.00222e+10 
           1955      9.36485e+9 
           1967      9.61149e+9 
           1976       9.7748e+9 
           1984      9.35991e+9 
           1995      9.09171e+9 
           2005      9.18343e+9 
           2015      9.17842e+9 
           2025      9.16241e+9 
           2035      8.80149e+9 
           2045      8.69508e+9 
           2055      7.86845e+9 
           2065       7.7244e+9 
           2074      8.00424e+9 
           2078      7.82366e+9 
           2085        8.063e+9 
           2095      7.99496e+9 
           2105      8.06865e+9 
           2115      8.04584e+9 
           2125      7.99457e+9 
           2135      7.87349e+9 
           2145      7.69782e+9 
           2155      7.68843e+9 
           2165      7.54588e+9 
           2175      7.48199e+9 
           2185      7.35677e+9 
           2195      7.32406e+9 
           2205      7.21942e+9 
           2215      7.08881e+9 
           2225      7.01191e+9 
           2235      6.90014e+9 
           2245      6.83462e+9 
           2255      6.69782e+9 
           2265      6.65276e+9 
           2275      6.56871e+9 
           2285      6.47361e+9 
           2295      6.16275e+9 
           2305       6.2688e+9 
           2315      6.20463e+9 
           2325      6.12635e+9 
           2335      6.03198e+9 
           2345       5.9801e+9 
           2355      5.90048e+9 
           2365      5.82483e+9 
           2375      5.74015e+9 
           2385      5.63092e+9 
           2395      5.57959e+9 
           2405      5.52117e+9 
           2415      5.44493e+9 
           2425      5.38326e+9 
           2435      5.29987e+9 
           2445       5.2411e+9 
           2455      5.17955e+9 
           2465      5.11455e+9 
           2475      5.04501e+9 
           2485      4.97423e+9 
           2495      4.46318e+9 
           2505      4.83358e+9 
           2513      4.69793e+9 
           2518      4.74304e+9 
           2525      4.73717e+9 
           2535      4.68175e+9 
           2545       4.5878e+9 
           2555      4.54774e+9 
           2565      4.50502e+9 
           2575      4.45124e+9 
           2585      4.39719e+9 
           2595      4.34373e+9 
           2605      4.30772e+9 
           2615      4.25159e+9 
           2625      4.20122e+9 
           2635      4.14644e+9 
           2645       4.0942e+9 
           2655      4.04396e+9 
           2665      3.98227e+9 
           2675      3.93407e+9 
           2685      3.90801e+9 
           2695      3.82989e+9 
           2705      3.80384e+9 
           2715      3.76186e+9 
           2725      3.70341e+9 
           2735       3.6589e+9 
           2745      3.63364e+9 
           2755      3.59371e+9 
           2765      3.52977e+9 
           2775      3.51396e+9 
           2785      3.46973e+9 
           2795      3.39509e+9 
           2805      3.38007e+9 
           2815      3.35396e+9 
           2825      3.29485e+9 
           2835      3.25121e+9 
           2845      3.24026e+9 
           2855       3.1993e+9 
           2865      3.16406e+9 
           2875       3.1291e+9 
           2885      3.09518e+9 
           2895      3.05891e+9 
           2910      3.00481e+9 
           2930      2.94168e+9 
           2950      2.86037e+9 
           2970      2.81194e+9 
           2990      2.74853e+9 
           3010      2.68381e+9 
           3030      2.63041e+9 
           3050      2.57638e+9 
           3070      2.52377e+9 
           3090      2.45657e+9 
           3110      2.41643e+9 
           3130      2.36473e+9 
           3150      2.31452e+9 
           3170       2.2661e+9 
           3190      2.20797e+9 
           3210      2.17056e+9 
           3230      2.12874e+9 
           3250      2.08704e+9 
           3270      2.04446e+9 
           3290       2.0019e+9 
           3310      1.96423e+9 
           3330      1.92341e+9 
           3350      1.88329e+9 
           3370       1.8483e+9 
           3390      1.81364e+9 
           3410      1.77834e+9 
           3430      1.73771e+9 
           3450      1.69901e+9 
           3470      1.66981e+9 
           3490      1.63743e+9 
           3510      1.61173e+9 
           3530      1.58263e+9 
           3550      1.55268e+9 
           3570      1.52877e+9 
           3590      1.49214e+9 
           3610      1.46652e+9 
           3630      1.43751e+9 
           3640      1.43102e+9 
           3650       1.3974e+9 
           3670      1.37709e+9 
           3690      1.34333e+9 
           3710       1.3062e+9 
           3730      1.26946e+9 
           3750      1.32464e+9 
           3770      1.31365e+9 
           3790       1.3353e+9 
           3810      1.36466e+9 
           3830      1.24117e+9 
           3850      1.35696e+9 
           3870      1.33497e+9 
           3890      1.18321e+9 
           3910      1.30388e+9 
           3930      1.27267e+9 
           3950      1.25641e+9 
           3970      1.09558e+9 
           3990        1.213e+9 
           4010       1.1918e+9 
           4030      1.14903e+9 
           4050       1.1573e+9 
           4070      1.12806e+9 
           4090      1.08446e+9 
           4110      9.91529e+8 
           4130      1.06875e+9 
           4150      1.05375e+9 
           4170      1.04208e+9 
           4190      1.02488e+9 
           4210      1.00835e+9 
           4230      9.92729e+8 
           4250      9.73876e+8 
           4270      9.54009e+8 
           4290      9.41593e+8 
           4310       9.2385e+8 
           4330      8.80554e+8 
           4350      8.18343e+8 
           4370      8.79461e+8 
           4390      8.57821e+8 
           4410      8.52092e+8 
           4430      8.39866e+8 
           4450      8.27749e+8 
           4470      7.97356e+8 
           4490      8.01667e+8 
           4510      7.89609e+8 
           4530       7.7742e+8 
           4550      7.63467e+8 
           4570      7.52326e+8 
           4590      7.40223e+8 
           4610      7.29099e+8 
           4630      7.17524e+8 
           4650      6.97966e+8 
           4670      6.95059e+8 
           4690      6.82155e+8 
           4710      6.67663e+8 
           4730      6.65463e+8 
           4750      6.54879e+8 
           4770      6.46435e+8 
           4790       6.3668e+8 
           4810      6.26838e+8 
           4830      6.16457e+8 
           4850      5.93238e+8 
           4870      5.44963e+8 
           4890      5.89685e+8 
           4910      5.81969e+8 
           4930      5.65616e+8 
           4950      5.64437e+8 
           4970      5.57295e+8 
           4990      5.49175e+8 
           5010      5.35554e+8 
           5030      5.33403e+8 
           5050      5.23676e+8 
           5070      5.18424e+8 
           5090      5.10985e+8 
           5110      5.03747e+8 
           5130       4.9642e+8 
           5150      4.89475e+8 
           5170      4.82749e+8 
           5190      4.76141e+8 
           5210      4.69536e+8 
           5230      4.63032e+8 
           5250      4.56586e+8 
           5270      4.50265e+8 
           5290      4.44174e+8 
           5310      4.38069e+8 
           5330      4.32162e+8 
           5350      4.26278e+8 
           5370      4.20535e+8 
           5390      4.14787e+8 
           5410      4.08676e+8 
           5430      4.03818e+8 
           5450      3.98386e+8 
           5470      3.93099e+8 
           5490      3.87878e+8 
           5510      3.82784e+8 
           5530      3.77692e+8 
           5550      3.72797e+8 
           5570      3.67879e+8 
           5590      3.63057e+8 
           5610      3.58378e+8 
           5630      3.53744e+8 
           5650      3.49108e+8 
           5670      3.44423e+8 
           5690      3.39283e+8 
           5710      3.34866e+8 
           5730      3.30662e+8 
           5750      3.26258e+8 
           5770      3.22404e+8 
           5790      3.18327e+8 
           5810      3.14364e+8 
           5830      3.10371e+8 
           5850      3.07064e+8 
           5870      2.96808e+8 
           5890      2.99128e+8 
           5910       2.9578e+8 
           5930      2.92075e+8 
           5950      2.88486e+8 
           5970       2.8514e+8 
           5990      2.81538e+8 
           6010      2.78166e+8 
           6030      2.74728e+8 
           6050      2.71422e+8 
           6070      2.68185e+8 
           6090      2.64953e+8 
           6110      2.61758e+8 
           6130      2.58619e+8 
           6150      2.55436e+8 
           6170      2.52417e+8 
           6190      2.49461e+8 
           6210      2.46528e+8 
           6230      2.43609e+8 
           6250      2.40721e+8 
           6270      2.37904e+8 
           6290      2.35127e+8 
           6310      2.32361e+8 
           6330      2.29673e+8 
           6350      2.26977e+8 
           6370      2.24374e+8 
           6390      2.21773e+8 
           6410      2.19217e+8 
           6430      2.16708e+8 
           6450      2.14225e+8 
           6470      2.11706e+8 
           6490      2.09312e+8 
           6510      2.06987e+8 
           6530      2.04484e+8 
           6550      1.99585e+8 
           6570      1.82208e+8 
           6590      1.96978e+8 
           6610      1.95555e+8 
           6630      1.93409e+8 
           6650      1.91293e+8 
           6670      1.87904e+8 
           6690      1.85814e+8 
           6710      1.85017e+8 
           6730      1.82913e+8 
           6750      1.80987e+8 
           6770      1.79015e+8 
           6790      1.76933e+8 
           6810      1.75115e+8 
           6830      1.73203e+8 
           6850      1.71342e+8 
           6870      1.69491e+8 
           6890      1.67604e+8 
           6910      1.65807e+8 
           6930      1.64083e+8 
           6950      1.62328e+8 
           6970      1.60599e+8 
           6990       1.5888e+8 
           7010        1.572e+8 
           7030       1.5553e+8 
           7050      1.53898e+8 
           7070        1.503e+8 
           7090      1.50682e+8 
           7110      1.49091e+8 
           7130      1.47537e+8 
           7150      1.46005e+8 
           7170      1.44451e+8 
           7190      1.42993e+8 
           7210       1.4152e+8 
           7230      1.39606e+8 
           7250      1.38565e+8 
           7270      1.37198e+8 
           7290      1.34879e+8 
           7310      1.34389e+8 
           7330      1.33032e+8 
           7350      1.31689e+8 
           7370      1.30351e+8 
           7390      1.29039e+8 
           7410      1.27733e+8 
           7430      1.26452e+8 
           7450      1.25197e+8 
           7470       1.2388e+8 
           7490      1.22695e+8 
           7510      1.21455e+8 
           7530      1.20279e+8 
           7550      1.19088e+8 
           7570      1.17913e+8 
           7590       1.1673e+8 
           7610      1.15584e+8 
           7630      1.14468e+8 
           7650      1.13349e+8 
           7670      1.12246e+8 
           7690      1.11147e+8 
           7710       1.1007e+8 
           7730      1.08997e+8 
           7750      1.07946e+8 
           7770      1.06904e+8 
           7790      1.05884e+8 
           7810      1.04818e+8 
           7830      1.03865e+8 
           7850      1.02945e+8 
           7870      1.01942e+8 
           7890       1.0093e+8 
           7910      1.00035e+8 
           7930      9.90755e+7 
           7950      9.81425e+7 
           7970      9.71227e+7 
           7990      9.62358e+7 
           8010      9.52743e+7 
           8030      9.43972e+7 
           8050      9.35625e+7 
           8070      9.27059e+7 
           8090      9.17186e+7 
           8110      9.08372e+7 
           8130      9.01742e+7 
           8150       8.9199e+7 
           8170      8.85315e+7 
           8190       8.7611e+7 
           8210      8.65251e+7 
           8230      8.58882e+7 
           8250      8.51844e+7 
           8270      8.40293e+7 
           8290      8.35586e+7 
           8310      8.28295e+7 
           8330      8.20576e+7 
           8350      8.10112e+7 
           8370      8.04417e+7 
           8390      7.98017e+7 
           8410      7.90604e+7 
           8430      7.82723e+7 
           8450      7.72374e+7 
           8470      7.66683e+7 
           8490      7.62395e+7 
           8510      7.50285e+7 
           8530      7.50809e+7 
           8550      7.29212e+7 
           8570      7.45355e+7 
           8590      7.16871e+7 
