# Kurucz ODFNEW /NOVER (2003)
# teff = 23000 K (value for the effective temperature for the model. Temperatures are given in K)
# logg = 5 log(cm/s2) (value for Log(G) for the model.)
# meta = 0  (value for the Metallicity for the model.)
# lh = 1.25  (l/Hp where l is the  mixing length of the convective element and Hp is the pressure scale height)
# vtur = 2 km/s (Microturbulence velocity)
# alpha = 0  (Alpha)
#
# column 1: WAVELENGTH (ANGSTROM), Wavelength in Angstrom
# column 2: FLUX (ERG/CM2/S/A), Flux in erg/cm2/s/A
          147.2     1.70282e-15 
            151     7.80589e-15 
          155.2     3.85675e-14 
          158.8     1.42005e-13 
            162     4.31766e-13 
            166     1.63483e-12 
          170.3     6.38445e-12 
          173.4     1.64085e-11 
          176.8     4.44797e-11 
          180.2     1.16318e-10 
          181.7     1.75694e-10 
          186.1     5.68892e-10 
            191      1.98129e-9 
          193.9       4.0276e-9 
          198.4      1.16457e-8 
          201.8      2.52246e-8 
            205      5.10676e-8 
          210.5      1.63631e-7 
          216.2      5.15401e-7 
          219.8      1.03329e-6 
            223      1.88285e-6 
          226.8      3.75981e-6 
            230      5.55259e-5 
            234     0.000129925 
            240     0.000333517 
          246.5     0.000874456 
          252.4      0.00202812 
          256.8      0.00359447 
            260      0.00563478 
            264      0.00937553 
          268.5       0.0163067 
          273.5       0.0294399 
          278.5       0.0523306 
            284       0.0968774 
            290        0.182246 
            296        0.333659 
            301        0.541969 
            308          1.0305 
            318         2.54919 
            328         5.73792 
            338         12.6453 
            348          26.196 
            357         51.5779 
            366          94.188 
            375         161.638 
            385         290.328 
            395         504.857 
            405         849.212 
            414         1335.57 
            422         1935.75 
            430          2794.2 
            441         4518.87 
            451         6845.92 
            460         9710.75 
            470         14219.7 
            480         20348.9 
            490         28804.7 
            500         40111.1 
            506          245590 
            512      1.35156e+6 
            520      1.66003e+6 
            530      2.19077e+6 
            540      2.47277e+6 
            550      3.46741e+6 
            560       4.0639e+6 
            570      5.07814e+6 
            580       5.1629e+6 
            590      6.78178e+6 
            600      7.99566e+6 
            610      9.61414e+6 
            620      1.07952e+7 
            630      1.22387e+7 
            640      1.26383e+7 
            650      1.21802e+7 
            658      1.60023e+7 
            665      1.82876e+7 
            675      2.02783e+7 
            685      2.21289e+7 
            695      2.67963e+7 
            705      2.89893e+7 
            716      3.27975e+7 
            726      3.55168e+7 
            735      3.82242e+7 
            745      4.31129e+7 
            755      4.72134e+7 
            765      5.15869e+7 
            775       5.6418e+7 
            785      6.13735e+7 
            795      6.51084e+7 
            805       6.9669e+7 
            815      7.41236e+7 
            825      8.08394e+7 
            835      8.19622e+7 
            845      8.93092e+7 
            855      9.46584e+7 
            865      1.01792e+8 
            875      1.09463e+8 
            885      1.18119e+8 
            895      1.24989e+8 
            905      1.27146e+8 
            915       1.6546e+8 
            925      6.12013e+8 
            935      1.52687e+9 
            945      4.93616e+9 
            955      9.99503e+9 
            965     1.39514e+10 
            975      2.49651e+9 
            985     1.82466e+10 
            995     1.78219e+10 
           1005     2.09199e+10 
           1015     1.71195e+10 
           1025      3.33118e+9 
           1035     1.18404e+10 
           1045     2.43426e+10 
           1055     2.34318e+10 
           1065     1.84269e+10 
           1075     2.20807e+10 
           1085     1.95337e+10 
           1095     2.20261e+10 
           1105     1.95093e+10 
           1115     1.85867e+10 
           1125     1.61059e+10 
           1135     1.99366e+10 
           1145     1.69976e+10 
           1155     1.83097e+10 
           1165     1.83962e+10 
           1175     1.23519e+10 
           1185     1.78199e+10 
           1195     1.43339e+10 
           1205       8.5624e+9 
           1215      3.10601e+9 
           1225      9.62946e+9 
           1235      1.5519e+10 
           1245      1.6055e+10 
           1255     1.57152e+10 
           1265     1.53135e+10 
           1275     1.59996e+10 
           1285     1.60206e+10 
           1295     1.11584e+10 
           1305     1.10356e+10 
           1315     1.50857e+10 
           1325     1.39355e+10 
           1335      1.2916e+10 
           1345     1.37287e+10 
           1355     1.34917e+10 
           1365      1.2172e+10 
           1375     1.20195e+10 
           1385     1.20535e+10 
           1395      9.93519e+9 
           1405     1.04702e+10 
           1415     1.07168e+10 
           1425     1.07355e+10 
           1435     1.07884e+10 
           1442      1.1143e+10 
           1447      1.0924e+10 
           1455     1.06465e+10 
           1465      9.87328e+9 
           1475      9.87077e+9 
           1485      9.56043e+9 
           1495      9.51859e+9 
           1505      8.62393e+9 
           1512      7.81738e+9 
           1517      8.10448e+9 
           1525      8.34219e+9 
           1535      7.33785e+9 
           1545      7.38268e+9 
           1555      7.04888e+9 
           1565      7.34363e+9 
           1575      7.71979e+9 
           1585      7.65733e+9 
           1595      7.66394e+9 
           1605      7.63089e+9 
           1615      7.51213e+9 
           1625      7.32137e+9 
           1635      7.61795e+9 
           1645      7.53243e+9 
           1655      7.24403e+9 
           1665      7.57189e+9 
           1672      7.25622e+9 
           1677      7.53572e+9 
           1685      7.46937e+9 
           1695      7.09945e+9 
           1705      6.76954e+9 
           1715       6.4335e+9 
           1725      6.30139e+9 
           1735      6.54847e+9 
           1745      6.33321e+9 
           1755      6.44275e+9 
           1765      6.08371e+9 
           1775       5.9741e+9 
           1785      6.00277e+9 
           1795      6.19471e+9 
           1805      6.18627e+9 
           1815      5.62174e+9 
           1825      5.81581e+9 
           1835      5.56464e+9 
           1845      5.10805e+9 
           1855      5.03145e+9 
           1865      5.09938e+9 
           1875      5.39694e+9 
           1885      4.84607e+9 
           1895      4.53205e+9 
           1905      4.86786e+9 
           1915      4.57975e+9 
           1925      4.41395e+9 
           1935      4.59564e+9 
           1945      4.68095e+9 
           1955      4.28741e+9 
           1967      4.59893e+9 
           1976      4.77808e+9 
           1984        4.408e+9 
           1995      4.31892e+9 
           2005      4.43413e+9 
           2015      4.32769e+9 
           2025      4.50803e+9 
           2035      4.14689e+9 
           2045      4.18796e+9 
           2055      4.05765e+9 
           2065      4.10387e+9 
           2074      4.23342e+9 
           2078      3.92147e+9 
           2085      4.05646e+9 
           2095      3.83379e+9 
           2105      3.93646e+9 
           2115      3.91685e+9 
           2125      3.96925e+9 
           2135       3.8581e+9 
           2145      3.70177e+9 
           2155      3.81749e+9 
           2165      3.76784e+9 
           2175      3.71201e+9 
           2185      3.61672e+9 
           2195      3.64756e+9 
           2205      3.58356e+9 
           2215      3.51987e+9 
           2225      3.41692e+9 
           2235      3.41983e+9 
           2245      3.40901e+9 
           2255      3.29616e+9 
           2265      3.33887e+9 
           2275      3.29342e+9 
           2285      3.29186e+9 
           2295      3.13155e+9 
           2305      3.16492e+9 
           2315      3.07543e+9 
           2325      3.03851e+9 
           2335       2.9308e+9 
           2345      2.90243e+9 
           2355      2.91417e+9 
           2365      2.84755e+9 
           2375      2.82396e+9 
           2385      2.77761e+9 
           2395      2.79078e+9 
           2405      2.70926e+9 
           2415      2.69837e+9 
           2425      2.70544e+9 
           2435      2.61712e+9 
           2445      2.62525e+9 
           2455      2.62078e+9 
           2465      2.56267e+9 
           2475      2.52872e+9 
           2485      2.52189e+9 
           2495      2.40852e+9 
           2505      2.46425e+9 
           2513      2.34908e+9 
           2518      2.42812e+9 
           2525      2.36888e+9 
           2535      2.33194e+9 
           2545      2.27974e+9 
           2555      2.31502e+9 
           2565      2.27977e+9 
           2575      2.28545e+9 
           2585      2.27129e+9 
           2595      2.24722e+9 
           2605      2.22129e+9 
           2615      2.20036e+9 
           2625      2.17712e+9 
           2635      2.15819e+9 
           2645      2.15994e+9 
           2655      2.14317e+9 
           2665      2.07677e+9 
           2675      2.07965e+9 
           2685      2.06764e+9 
           2695      2.00828e+9 
           2705      2.00067e+9 
           2715      1.97737e+9 
           2725      1.94452e+9 
           2735      1.95334e+9 
           2745      1.87814e+9 
           2755      1.87605e+9 
           2765      1.85974e+9 
           2775      1.87723e+9 
           2785      1.84872e+9 
           2795      1.77562e+9 
           2805      1.79889e+9 
           2815      1.80154e+9 
           2825      1.76199e+9 
           2835      1.70037e+9 
           2845      1.72386e+9 
           2855       1.7112e+9 
           2865      1.70923e+9 
           2875      1.68579e+9 
           2885      1.66923e+9 
           2895      1.65183e+9 
           2910      1.62502e+9 
           2930      1.58864e+9 
           2950      1.54242e+9 
           2970      1.52876e+9 
           2990      1.49051e+9 
           3010      1.46116e+9 
           3030      1.44309e+9 
           3050      1.41313e+9 
           3070      1.38582e+9 
           3090      1.34991e+9 
           3110      1.32909e+9 
           3130      1.30493e+9 
           3150      1.27991e+9 
           3170      1.25073e+9 
           3190      1.21547e+9 
           3210      1.20611e+9 
           3230      1.18285e+9 
           3250      1.16149e+9 
           3270      1.14024e+9 
           3290      1.11737e+9 
           3310      1.09902e+9 
           3330      1.07774e+9 
           3350      1.05592e+9 
           3370      1.03798e+9 
           3390         1.02e+9 
           3410      1.00162e+9 
           3430      9.78864e+8 
           3450      9.57705e+8 
           3470      9.43005e+8 
           3490      9.26011e+8 
           3510      9.10656e+8 
           3530      8.96315e+8 
           3550      8.81312e+8 
           3570      8.71968e+8 
           3590      8.46992e+8 
           3610      8.35638e+8 
           3630      8.20251e+8 
           3640      8.20868e+8 
           3650      8.06791e+8 
           3670       7.9735e+8 
           3690      7.84469e+8 
           3710      7.57668e+8 
           3730      7.28336e+8 
           3750      7.27205e+8 
           3770      7.11876e+8 
           3790      7.53113e+8 
           3810       7.9176e+8 
           3830      6.80809e+8 
           3850       8.2531e+8 
           3870      8.50835e+8 
           3890      6.36368e+8 
           3910      8.47734e+8 
           3930      8.41079e+8 
           3950       8.2179e+8 
           3970      5.93578e+8 
           3990      7.81922e+8 
           4010      8.00006e+8 
           4030      7.35625e+8 
           4050      7.85889e+8 
           4070       7.5476e+8 
           4090      6.64092e+8 
           4110      5.70354e+8 
           4130      7.05822e+8 
           4150      7.10388e+8 
           4170      7.09375e+8 
           4190      7.02941e+8 
           4210      6.94684e+8 
           4230      6.81014e+8 
           4250      6.66402e+8 
           4270       6.4509e+8 
           4290      6.41566e+8 
           4310      6.20294e+8 
           4330      5.32817e+8 
           4350      4.82277e+8 
           4370      5.85209e+8 
           4390      5.67847e+8 
           4410      5.82041e+8 
           4430      5.73227e+8 
           4450      5.67477e+8 
           4470      5.21081e+8 
           4490      5.45451e+8 
           4510      5.44273e+8 
           4530      5.34099e+8 
           4550      5.26466e+8 
           4570      5.18296e+8 
           4590      5.10517e+8 
           4610      5.00761e+8 
           4630      4.92069e+8 
           4650      4.83036e+8 
           4670      4.79167e+8 
           4690      4.73736e+8 
           4710      4.54692e+8 
           4730      4.55182e+8 
           4750      4.48435e+8 
           4770      4.46554e+8 
           4790      4.38022e+8 
           4810      4.27987e+8 
           4830      4.16263e+8 
           4850         3.67e+8 
           4870      3.23947e+8 
           4890      3.95744e+8 
           4910      3.97402e+8 
           4930      3.79567e+8 
           4950      3.89391e+8 
           4970      3.85424e+8 
           4990      3.79421e+8 
           5010      3.63565e+8 
           5030      3.67752e+8 
           5050      3.57237e+8 
           5070      3.58528e+8 
           5090      3.53288e+8 
           5110      3.47628e+8 
           5130      3.40829e+8 
           5150      3.36141e+8 
           5170      3.33982e+8 
           5190      3.29455e+8 
           5210      3.22767e+8 
           5230      3.20455e+8 
           5250      3.16159e+8 
           5270      3.11566e+8 
           5290      3.07882e+8 
           5310       3.0355e+8 
           5330      2.99141e+8 
           5350      2.94395e+8 
           5370      2.91709e+8 
           5390      2.87759e+8 
           5410      2.83872e+8 
           5430      2.79472e+8 
           5450      2.76029e+8 
           5470       2.7234e+8 
           5490      2.69184e+8 
           5510      2.65708e+8 
           5530      2.62163e+8 
           5550      2.59017e+8 
           5570      2.55521e+8 
           5590      2.52418e+8 
           5610      2.48898e+8 
           5630       2.4611e+8 
           5650      2.41374e+8 
           5670      2.38127e+8 
           5690      2.35455e+8 
           5710       2.3345e+8 
           5730      2.30653e+8 
           5750      2.27582e+8 
           5770      2.25135e+8 
           5790      2.22268e+8 
           5810      2.19457e+8 
           5830      2.16624e+8 
           5850      2.14055e+8 
           5870      2.02595e+8 
           5890      2.06575e+8 
           5910      2.06042e+8 
           5930      2.03541e+8 
           5950      2.00631e+8 
           5970       1.9893e+8 
           5990      1.96144e+8 
           6010      1.94184e+8 
           6030      1.91738e+8 
           6050      1.89525e+8 
           6070      1.87317e+8 
           6090      1.85002e+8 
           6110      1.82885e+8 
           6130      1.80791e+8 
           6150      1.77874e+8 
           6170      1.76376e+8 
           6190      1.74462e+8 
           6210      1.72431e+8 
           6230      1.70404e+8 
           6250       1.6808e+8 
           6270      1.66387e+8 
           6290      1.64521e+8 
           6310      1.62496e+8 
           6330      1.60803e+8 
           6350      1.58194e+8 
           6370      1.56747e+8 
           6390       1.5526e+8 
           6410      1.53477e+8 
           6430      1.51913e+8 
           6450      1.50094e+8 
           6470       1.4807e+8 
           6490      1.46362e+8 
           6510      1.44398e+8 
           6530      1.41527e+8 
           6550      1.31409e+8 
           6570      1.14813e+8 
           6590      1.34277e+8 
           6610      1.36242e+8 
           6630      1.35378e+8 
           6650      1.34182e+8 
           6670      1.30838e+8 
           6690      1.29552e+8 
           6710      1.30044e+8 
           6730      1.28566e+8 
           6750      1.27284e+8 
           6770      1.25933e+8 
           6790      1.23877e+8 
           6810      1.23109e+8 
           6830      1.21824e+8 
           6850        1.206e+8 
           6870      1.19332e+8 
           6890      1.18045e+8 
           6910      1.16787e+8 
           6930      1.15502e+8 
           6950      1.14378e+8 
           6970      1.13187e+8 
           6990      1.11985e+8 
           7010      1.10803e+8 
           7030      1.09655e+8 
           7050      1.08458e+8 
           7070      1.05335e+8 
           7090      1.06316e+8 
           7110       1.0513e+8 
           7130      1.04066e+8 
           7150      1.03028e+8 
           7170      1.01992e+8 
           7190      1.00989e+8 
           7210       9.9958e+7 
           7230      9.76905e+7 
           7250      9.78834e+7 
           7270      9.69535e+7 
           7290      9.50895e+7 
           7310       9.5007e+7 
           7330      9.40686e+7 
           7350      9.31389e+7 
           7370       9.2211e+7 
           7390      9.12987e+7 
           7410      9.03949e+7 
           7430       8.9438e+7 
           7450      8.86055e+7 
           7470      8.76321e+7 
           7490      8.68491e+7 
           7510      8.59863e+7 
           7530      8.51647e+7 
           7550      8.43705e+7 
           7570      8.35571e+7 
           7590      8.27446e+7 
           7610      8.19459e+7 
           7630       8.1161e+7 
           7650      8.03831e+7 
           7670      7.96122e+7 
           7690      7.88483e+7 
           7710      7.80975e+7 
           7730      7.73472e+7 
           7750      7.66223e+7 
           7770      7.54421e+7 
           7790      7.51794e+7 
           7810      7.44366e+7 
           7830      7.37742e+7 
           7850      7.30014e+7 
           7870      7.23388e+7 
           7890      7.15126e+7 
           7910      7.10852e+7 
           7930      7.04455e+7 
           7950      6.96505e+7 
           7970      6.90463e+7 
           7990      6.82585e+7 
           8010      6.77478e+7 
           8030      6.71128e+7 
           8050      6.64832e+7 
           8070       6.5888e+7 
           8090      6.52288e+7 
           8110      6.46325e+7 
           8130      6.41211e+7 
           8150      6.35232e+7 
           8170      6.29981e+7 
           8190      6.23482e+7 
           8210      6.16424e+7 
           8230      6.11318e+7 
           8250      6.07472e+7 
           8270      5.99139e+7 
           8290      5.96526e+7 
           8310       5.9153e+7 
           8330      5.86087e+7 
           8350      5.78312e+7 
           8370      5.74852e+7 
           8390      5.70991e+7 
           8410      5.65988e+7 
           8430      5.60602e+7 
           8450      5.50354e+7 
           8470      5.51014e+7 
           8490      5.44605e+7 
           8510      5.40748e+7 
           8530      5.35109e+7 
           8550      5.28795e+7 
           8570      5.28638e+7 
           8590      5.12751e+7 
