# Kurucz ODFNEW /NOVER (2003)
# teff = 28000 K (value for the effective temperature for the model. Temperatures are given in K)
# logg = 3.5 log(cm/s2) (value for Log(G) for the model.)
# meta = 0  (value for the Metallicity for the model.)
# lh = 1.25  (l/Hp where l is the  mixing length of the convective element and Hp is the pressure scale height)
# vtur = 2 km/s (Microturbulence velocity)
# alpha = 0  (Alpha)
#
# column 1: WAVELENGTH (ANGSTROM), Wavelength in Angstrom
# column 2: FLUX (ERG/CM2/S/A), Flux in erg/cm2/s/A
          147.2     9.17298e-11 
            151      3.2313e-10 
          155.2       1.2151e-9 
          158.8      3.59199e-9 
            162       9.0575e-9 
            166      2.74522e-8 
          170.3      8.54504e-8 
          173.4      1.87891e-7 
          176.8      4.31986e-7 
          180.2      9.63947e-7 
          181.7      1.36098e-6 
          186.1      3.63467e-6 
            191      1.03201e-5 
          193.9      1.86846e-5 
          198.4      4.54142e-5 
          201.8      8.66113e-5 
            205     0.000156044 
          210.5     0.000412547 
          216.2      0.00107299 
          219.8      0.00191562 
            223      0.00315647 
          226.8      0.00566842 
            230         1.46732 
            234         3.25548 
            240         6.26097 
          246.5         12.8168 
          252.4         23.9914 
          256.8         35.1792 
            260         61.0123 
            264         95.1391 
          268.5         149.485 
          273.5         230.241 
          278.5         338.551 
            284         724.537 
            290         1153.75 
            296         1746.44 
            301         2436.41 
            308         5125.31 
            318         11647.9 
            328         19958.1 
            338         37562.8 
            348         64580.1 
            357          234685 
            366          500877 
            375          670598 
            385       1.0616e+6 
            395      2.12275e+6 
            405      2.84112e+6 
            414      4.05466e+6 
            422      4.93114e+6 
            430       6.3987e+6 
            441      8.61545e+6 
            451      1.04485e+7 
            460      1.23386e+7 
            470      1.60084e+7 
            480      2.00726e+7 
            490      2.46278e+7 
            500      3.03795e+7 
            506      9.47121e+7 
            512      7.53131e+8 
            520      7.32853e+8 
            530      6.89861e+8 
            540      6.65362e+8 
            550      8.93677e+8 
            560      1.10682e+9 
            570      1.18596e+9 
            580      1.07123e+9 
            590      1.23149e+9 
            600      1.08289e+9 
            610      1.35161e+9 
            620      1.56592e+9 
            630      1.54963e+9 
            640      1.43269e+9 
            650      1.18342e+9 
            658      1.33563e+9 
            665      1.63317e+9 
            675      1.78143e+9 
            685       1.5139e+9 
            695       2.0953e+9 
            705      1.76205e+9 
            716      2.29937e+9 
            726      2.24404e+9 
            735      2.28817e+9 
            745      2.37987e+9 
            755      2.41909e+9 
            765      2.52885e+9 
            775      2.67149e+9 
            785      2.81649e+9 
            795      2.84235e+9 
            805      2.78746e+9 
            815      2.77721e+9 
            825      3.00481e+9 
            835      2.40532e+9 
            845       2.9244e+9 
            855      2.91953e+9 
            865      3.05452e+9 
            875      3.15633e+9 
            885      3.31003e+9 
            895      3.38787e+9 
            905      3.31429e+9 
            915      4.90292e+9 
            925     2.35321e+10 
            935     3.65002e+10 
            945     4.41812e+10 
            955     4.58589e+10 
            965     4.85301e+10 
            975     1.51686e+10 
            985     3.63153e+10 
            995      3.6551e+10 
           1005     4.04694e+10 
           1015     4.24185e+10 
           1025     3.55231e+10 
           1035     3.88502e+10 
           1045     4.79146e+10 
           1055     4.48376e+10 
           1065     3.82102e+10 
           1075     4.10429e+10 
           1085      3.8005e+10 
           1095     4.07104e+10 
           1105     3.87551e+10 
           1115     3.79964e+10 
           1125     3.00282e+10 
           1135     3.71312e+10 
           1145     3.52326e+10 
           1155     3.45997e+10 
           1165     3.37307e+10 
           1175      2.0073e+10 
           1185     3.07667e+10 
           1195     3.01932e+10 
           1205     2.70633e+10 
           1215     2.38561e+10 
           1225     2.86496e+10 
           1235     3.06378e+10 
           1245     2.91073e+10 
           1255     2.92505e+10 
           1265     2.99552e+10 
           1275     3.07594e+10 
           1285     3.06179e+10 
           1295     2.68469e+10 
           1305     2.76227e+10 
           1315      2.9971e+10 
           1325     2.86212e+10 
           1335      2.7691e+10 
           1345     2.77826e+10 
           1355     2.73125e+10 
           1365     2.61819e+10 
           1375     2.53521e+10 
           1385     2.44276e+10 
           1395     1.72786e+10 
           1405     1.87536e+10 
           1415     2.27536e+10 
           1425     2.10477e+10 
           1435     2.22317e+10 
           1442     2.23335e+10 
           1447     2.20984e+10 
           1455     2.11478e+10 
           1465     2.01949e+10 
           1475       2.058e+10 
           1485      2.0437e+10 
           1495     1.98594e+10 
           1505     1.88163e+10 
           1512     1.77147e+10 
           1517     1.81056e+10 
           1525     1.78028e+10 
           1535     1.52598e+10 
           1545     1.37523e+10 
           1555     1.35222e+10 
           1565     1.51275e+10 
           1575     1.60966e+10 
           1585     1.61475e+10 
           1595     1.59635e+10 
           1605     1.53659e+10 
           1615     1.47371e+10 
           1625     1.49543e+10 
           1635      1.5416e+10 
           1645     1.54087e+10 
           1655     1.53194e+10 
           1665     1.52215e+10 
           1672     1.41847e+10 
           1677     1.63467e+10 
           1685     1.54647e+10 
           1695      1.4757e+10 
           1705     1.45831e+10 
           1715     1.38077e+10 
           1725     1.34505e+10 
           1735     1.38866e+10 
           1745     1.36809e+10 
           1755     1.36013e+10 
           1765     1.34996e+10 
           1775     1.28481e+10 
           1785     1.30604e+10 
           1795     1.29609e+10 
           1805     1.30178e+10 
           1815     1.22171e+10 
           1825      1.2337e+10 
           1835     1.21895e+10 
           1845     1.12376e+10 
           1855     1.15295e+10 
           1865     1.16239e+10 
           1875     1.15849e+10 
           1885     1.06555e+10 
           1895     1.01177e+10 
           1905     1.06727e+10 
           1915      1.0276e+10 
           1925      9.66288e+9 
           1935     1.02971e+10 
           1945     1.05221e+10 
           1955      9.43207e+9 
           1967     1.00582e+10 
           1976     1.04676e+10 
           1984      9.83395e+9 
           1995      9.62926e+9 
           2005      9.85582e+9 
           2015      9.84267e+9 
           2025      9.96619e+9 
           2035      9.27808e+9 
           2045      9.28486e+9 
           2055       8.2384e+9 
           2065      8.10173e+9 
           2074      8.60855e+9 
           2078      8.18145e+9 
           2085      8.68504e+9 
           2095      8.47692e+9 
           2105      8.70528e+9 
           2115      8.74696e+9 
           2125      8.74409e+9 
           2135       8.6136e+9 
           2145      8.29685e+9 
           2155       8.4715e+9 
           2165      8.28894e+9 
           2175      8.25191e+9 
           2185      8.07713e+9 
           2195      8.13506e+9 
           2205      8.03975e+9 
           2215      7.88823e+9 
           2225      7.76117e+9 
           2235      7.60967e+9 
           2245      7.58912e+9 
           2255      7.41675e+9 
           2265      7.40428e+9 
           2275       7.3255e+9 
           2285      7.20979e+9 
           2295      6.40172e+9 
           2305      6.94397e+9 
           2315      6.83919e+9 
           2325      6.78251e+9 
           2335      6.65413e+9 
           2345      6.65826e+9 
           2355       6.5513e+9 
           2365      6.46921e+9 
           2375       6.3351e+9 
           2385      6.20665e+9 
           2395      6.15217e+9 
           2405       6.1075e+9 
           2415      6.02046e+9 
           2425       5.9818e+9 
           2435      5.85392e+9 
           2445      5.81395e+9 
           2455       5.7633e+9 
           2465      5.67795e+9 
           2475      5.58413e+9 
           2485      5.42306e+9 
           2495      4.08016e+9 
           2505      5.17651e+9 
           2513      5.08729e+9 
           2518      5.19765e+9 
           2525      5.24758e+9 
           2535      5.20813e+9 
           2545      5.06137e+9 
           2555      5.03926e+9 
           2565      4.99128e+9 
           2575      4.94242e+9 
           2585      4.88435e+9 
           2595      4.82462e+9 
           2605      4.78827e+9 
           2615      4.70235e+9 
           2625      4.66484e+9 
           2635      4.61447e+9 
           2645      4.54222e+9 
           2655       4.4977e+9 
           2665      4.37543e+9 
           2675       4.3263e+9 
           2685      4.33306e+9 
           2695      4.20532e+9 
           2705      4.15364e+9 
           2715      4.12366e+9 
           2725      4.09796e+9 
           2735      4.03597e+9 
           2745      4.01032e+9 
           2755      3.97317e+9 
           2765      3.90762e+9 
           2775      3.90739e+9 
           2785       3.8413e+9 
           2795      3.71867e+9 
           2805      3.73616e+9 
           2815      3.72754e+9 
           2825      3.67363e+9 
           2835      3.58115e+9 
           2845      3.59586e+9 
           2855      3.53587e+9 
           2865       3.5026e+9 
           2875      3.46442e+9 
           2885      3.42813e+9 
           2895      3.38539e+9 
           2910      3.30982e+9 
           2930      3.26282e+9 
           2950      3.16682e+9 
           2970      3.11026e+9 
           2990      3.03083e+9 
           3010      2.93526e+9 
           3030      2.88974e+9 
           3050      2.84508e+9 
           3070      2.79778e+9 
           3090      2.69532e+9 
           3110      2.67708e+9 
           3130      2.60806e+9 
           3150      2.56119e+9 
           3170      2.50063e+9 
           3190      2.44864e+9 
           3210      2.40104e+9 
           3230      2.34583e+9 
           3250      2.31134e+9 
           3270      2.25272e+9 
           3290      2.21034e+9 
           3310      2.16703e+9 
           3330      2.11574e+9 
           3350      2.07387e+9 
           3370      2.03257e+9 
           3390      2.00351e+9 
           3410      1.96414e+9 
           3430      1.92436e+9 
           3450      1.87952e+9 
           3470      1.84552e+9 
           3490      1.80804e+9 
           3510      1.77808e+9 
           3530      1.75058e+9 
           3550      1.71527e+9 
           3570       1.6855e+9 
           3590      1.64283e+9 
           3610      1.61349e+9 
           3630      1.58498e+9 
           3640      1.57589e+9 
           3650      1.52875e+9 
           3670      1.50796e+9 
           3690      1.47285e+9 
           3710      1.42718e+9 
           3730      1.39087e+9 
           3750      1.44332e+9 
           3770      1.42481e+9 
           3790      1.44976e+9 
           3810      1.47763e+9 
           3830       1.3496e+9 
           3850      1.46203e+9 
           3870      1.41881e+9 
           3890      1.28613e+9 
           3910       1.4043e+9 
           3930      1.35833e+9 
           3950      1.33978e+9 
           3970      1.18785e+9 
           3990      1.30335e+9 
           4010      1.28176e+9 
           4030      1.23901e+9 
           4050      1.24022e+9 
           4070       1.1929e+9 
           4090      1.14651e+9 
           4110      1.06504e+9 
           4130      1.13874e+9 
           4150      1.12609e+9 
           4170      1.11724e+9 
           4190      1.09924e+9 
           4210      1.08395e+9 
           4230      1.06581e+9 
           4250       1.0391e+9 
           4270      1.01467e+9 
           4290      1.00006e+9 
           4310      9.75301e+8 
           4330      9.35228e+8 
           4350      8.74008e+8 
           4370       9.3087e+8 
           4390       9.1926e+8 
           4410        9.073e+8 
           4430      9.00028e+8 
           4450      8.83585e+8 
           4470      8.57143e+8 
           4490      8.57859e+8 
           4510      8.43914e+8 
           4530      8.33119e+8 
           4550      8.18241e+8 
           4570      8.07091e+8 
           4590      7.92723e+8 
           4610      7.77812e+8 
           4630      7.64446e+8 
           4650      7.32621e+8 
           4670      7.41163e+8 
           4690      7.30796e+8 
           4710      7.12291e+8 
           4730      7.13723e+8 
           4750      7.01581e+8 
           4770      6.96852e+8 
           4790      6.85775e+8 
           4810      6.73635e+8 
           4830      6.61883e+8 
           4850      6.40356e+8 
           4870       5.8874e+8 
           4890      6.34082e+8 
           4910      6.25254e+8 
           4930      6.08551e+8 
           4950      6.04535e+8 
           4970      6.00244e+8 
           4990      5.91115e+8 
           5010      5.71786e+8 
           5030      5.72802e+8 
           5050      5.62808e+8 
           5070      5.57981e+8 
           5090      5.49373e+8 
           5110        5.412e+8 
           5130      5.31978e+8 
           5150      5.24914e+8 
           5170      5.18281e+8 
           5190      5.11791e+8 
           5210      5.04816e+8 
           5230      4.97602e+8 
           5250      4.90196e+8 
           5270      4.82996e+8 
           5290      4.77332e+8 
           5310      4.70549e+8 
           5330      4.64452e+8 
           5350      4.58038e+8 
           5370      4.51876e+8 
           5390      4.45261e+8 
           5410      4.38654e+8 
           5430      4.33933e+8 
           5450      4.27939e+8 
           5470      4.22171e+8 
           5490      4.16476e+8 
           5510      4.11262e+8 
           5530      4.05434e+8 
           5550      4.00597e+8 
           5570      3.95127e+8 
           5590      3.89761e+8 
           5610      3.85071e+8 
           5630      3.80094e+8 
           5650      3.74764e+8 
           5670      3.68786e+8 
           5690      3.61462e+8 
           5710      3.57744e+8 
           5730      3.53507e+8 
           5750      3.48078e+8 
           5770      3.45002e+8 
           5790      3.40442e+8 
           5810      3.36149e+8 
           5830      3.31442e+8 
           5850      3.28134e+8 
           5870      3.17822e+8 
           5890      3.18968e+8 
           5910      3.16079e+8 
           5930      3.12248e+8 
           5950      3.08598e+8 
           5970      3.05974e+8 
           5990      3.01362e+8 
           6010      2.98191e+8 
           6030      2.94134e+8 
           6050      2.90793e+8 
           6070      2.87561e+8 
           6090      2.84151e+8 
           6110      2.80629e+8 
           6130      2.77377e+8 
           6150      2.73345e+8 
           6170      2.70259e+8 
           6190      2.67375e+8 
           6210      2.64366e+8 
           6230      2.61235e+8 
           6250      2.57898e+8 
           6270      2.54971e+8 
           6290      2.52095e+8 
           6310      2.48948e+8 
           6330      2.46268e+8 
           6350      2.43177e+8 
           6370      2.40585e+8 
           6390      2.37716e+8 
           6410      2.34933e+8 
           6430      2.32335e+8 
           6450      2.29601e+8 
           6470      2.26456e+8 
           6490      2.23971e+8 
           6510      2.21672e+8 
           6530      2.18868e+8 
           6550      2.14091e+8 
           6570      1.94941e+8 
           6590      2.10485e+8 
           6610      2.09291e+8 
           6630      2.07156e+8 
           6650      2.04702e+8 
           6670      2.01071e+8 
           6690      1.98852e+8 
           6710      1.98003e+8 
           6730      1.95406e+8 
           6750      1.93721e+8 
           6770      1.91698e+8 
           6790      1.88781e+8 
           6810      1.87398e+8 
           6830      1.85316e+8 
           6850      1.83425e+8 
           6870      1.81401e+8 
           6890      1.79143e+8 
           6910      1.77113e+8 
           6930      1.75653e+8 
           6950       1.7377e+8 
           6970      1.71921e+8 
           6990      1.70052e+8 
           7010      1.68209e+8 
           7030      1.66308e+8 
           7050      1.64631e+8 
           7070      1.60776e+8 
           7090      1.61235e+8 
           7110      1.58928e+8 
           7130      1.57385e+8 
           7150      1.56219e+8 
           7170      1.54506e+8 
           7190      1.52977e+8 
           7210      1.51397e+8 
           7230       1.4837e+8 
           7250      1.47983e+8 
           7270      1.46749e+8 
           7290      1.44265e+8 
           7310      1.43716e+8 
           7330      1.42239e+8 
           7350      1.40817e+8 
           7370      1.39402e+8 
           7390      1.37993e+8 
           7410      1.36591e+8 
           7430      1.35215e+8 
           7450      1.33845e+8 
           7470      1.32096e+8 
           7490      1.31043e+8 
           7510      1.29824e+8 
           7530      1.28498e+8 
           7550      1.27303e+8 
           7570      1.26026e+8 
           7590      1.24689e+8 
           7610      1.23384e+8 
           7630      1.22298e+8 
           7650      1.21106e+8 
           7670      1.19943e+8 
           7690      1.18715e+8 
           7710      1.17555e+8 
           7730      1.16355e+8 
           7750      1.15329e+8 
           7770      1.14174e+8 
           7790      1.13123e+8 
           7810      1.11982e+8 
           7830      1.10956e+8 
           7850      1.09945e+8 
           7870      1.08749e+8 
           7890      1.07623e+8 
           7910      1.06748e+8 
           7930      1.05689e+8 
           7950      1.04747e+8 
           7970      1.03694e+8 
           7990      1.02751e+8 
           8010      1.01704e+8 
           8030      1.00766e+8 
           8050      9.98934e+7 
           8070       9.8965e+7 
           8090      9.79295e+7 
           8110       9.6628e+7 
           8130      9.62443e+7 
           8150      9.52281e+7 
           8170      9.44971e+7 
           8190      9.33004e+7 
           8210      9.21869e+7 
           8230      9.12777e+7 
           8250      9.07748e+7 
           8270      8.93008e+7 
           8290      8.90239e+7 
           8310      8.82849e+7 
           8330      8.74434e+7 
           8350       8.6328e+7 
           8370      8.57062e+7 
           8390      8.50787e+7 
           8410      8.42431e+7 
           8430      8.34674e+7 
           8450      8.23552e+7 
           8470       8.1762e+7 
           8490      8.12884e+7 
           8510      7.98819e+7 
           8530      8.00514e+7 
           8550      7.78118e+7 
           8570       7.9388e+7 
           8590      7.65068e+7 
