# Kurucz ODFNEW /NOVER (2003)
# teff = 26000 K (value for the effective temperature for the model. Temperatures are given in K)
# logg = 3.5 log(cm/s2) (value for Log(G) for the model.)
# meta = 0.2  (value for the Metallicity for the model.)
# lh = 1.25  (l/Hp where l is the  mixing length of the convective element and Hp is the pressure scale height)
# vtur = 2 km/s (Microturbulence velocity)
# alpha = 0.4  (Alpha)
#
# column 1: WAVELENGTH (ANGSTROM), Wavelength in Angstrom
# column 2: FLUX (ERG/CM2/S/A), Flux in erg/cm2/s/A
          147.2     2.83627e-13 
            151     1.13361e-12 
          155.2     4.86727e-12 
          158.8     1.60268e-11 
            162     4.43795e-11 
            166     1.50522e-10 
          170.3     5.25071e-10 
          173.4      1.25683e-9 
          176.8      3.14983e-9 
          180.2      7.64189e-9 
          181.7      1.11778e-8 
          186.1       3.3091e-8 
            191      1.05033e-7 
          193.9      2.02607e-7 
          198.4      5.41705e-7 
          201.8       1.1079e-6 
            205      2.12779e-6 
          210.5      6.25821e-6 
          216.2       1.8098e-5 
          219.8      3.44524e-5 
            223       6.0034e-5 
          226.8     0.000116487 
            230      0.00363555 
            234      0.00813715 
            240       0.0185173 
          246.5       0.0437116 
          252.4       0.0925299 
          256.8        0.152351 
            260        0.241029 
            264        0.369843 
          268.5        0.624936 
          273.5         1.06967 
          278.5         1.76906 
            284         3.47261 
            290         6.07919 
            296         10.4407 
            301         15.9917 
            308         31.2792 
            318         73.6888 
            328         149.601 
            338         314.893 
            348         611.022 
            357         4370.63 
            366         11647.6 
            375         17111.1 
            385           29874 
            395           93327 
            405          134993 
            414          229845 
            422          304245 
            430          424284 
            441          612589 
            451          788794 
            460          982096 
            470      1.36653e+6 
            480      1.80369e+6 
            490      2.36095e+6 
            500      3.00344e+6 
            506      1.08216e+7 
            512      9.31175e+7 
            520      9.48051e+7 
            530      9.94692e+7 
            540      9.79987e+7 
            550      1.56358e+8 
            560      1.95044e+8 
            570      2.18791e+8 
            580      1.95487e+8 
            590      2.55594e+8 
            600       2.4298e+8 
            610      3.11447e+8 
            620      3.48377e+8 
            630      3.59872e+8 
            640      3.13625e+8 
            650      2.31245e+8 
            658      3.26564e+8 
            665      4.12445e+8 
            675      4.30462e+8 
            685       3.8986e+8 
            695      5.69986e+8 
            705      4.92028e+8 
            716      6.36394e+8 
            726      6.10542e+8 
            735      6.64881e+8 
            745      7.35913e+8 
            755       7.6063e+8 
            765      8.17414e+8 
            775      8.78121e+8 
            785      9.33288e+8 
            795      9.37018e+8 
            805      9.48298e+8 
            815      9.52621e+8 
            825      1.05144e+9 
            835      7.64725e+8 
            845      1.03608e+9 
            855      1.03672e+9 
            865      1.09924e+9 
            875      1.15402e+9 
            885      1.24078e+9 
            895       1.2863e+9 
            905      1.24933e+9 
            915      1.94537e+9 
            925     1.32177e+10 
            935     2.28634e+10 
            945     3.01004e+10 
            955     3.26002e+10 
            965     3.35722e+10 
            975      7.20903e+9 
            985       2.292e+10 
            995     2.47204e+10 
           1005     2.93051e+10 
           1015     3.12573e+10 
           1025     2.41082e+10 
           1035     2.66965e+10 
           1045     3.70822e+10 
           1055     3.39353e+10 
           1065     2.61988e+10 
           1075     3.03046e+10 
           1085     2.82019e+10 
           1095     3.11306e+10 
           1105     2.77642e+10 
           1115     2.59933e+10 
           1125     1.78089e+10 
           1135     2.76327e+10 
           1145     2.57964e+10 
           1155     2.56552e+10 
           1165     2.55814e+10 
           1175     1.33889e+10 
           1185      2.3412e+10 
           1195     2.21227e+10 
           1205     1.44846e+10 
           1215     1.63954e+10 
           1225     2.16085e+10 
           1235     2.39305e+10 
           1245     2.27103e+10 
           1255     2.26991e+10 
           1265     2.33323e+10 
           1275     2.43193e+10 
           1285     2.40928e+10 
           1295     1.62818e+10 
           1305      1.8402e+10 
           1315     2.37381e+10 
           1325     2.22653e+10 
           1335     2.16666e+10 
           1345      2.1608e+10 
           1355     2.14565e+10 
           1365     1.97637e+10 
           1375     1.87842e+10 
           1385      1.7086e+10 
           1395      8.76862e+9 
           1405      1.1038e+10 
           1415     1.59505e+10 
           1425        1.56e+10 
           1435      1.6665e+10 
           1442     1.70154e+10 
           1447     1.67784e+10 
           1455     1.59766e+10 
           1465     1.47306e+10 
           1475     1.53526e+10 
           1485      1.5163e+10 
           1495     1.47395e+10 
           1505     1.33648e+10 
           1512     1.21793e+10 
           1517     1.25888e+10 
           1525     1.27734e+10 
           1535     1.05618e+10 
           1545      9.74278e+9 
           1555      9.55509e+9 
           1565     1.07453e+10 
           1575     1.16322e+10 
           1585      1.1648e+10 
           1595     1.15593e+10 
           1605     1.15772e+10 
           1615     1.11581e+10 
           1625     1.10948e+10 
           1635     1.17867e+10 
           1645     1.19287e+10 
           1655     1.16722e+10 
           1665     1.17544e+10 
           1672      1.0956e+10 
           1677     1.27354e+10 
           1685     1.20732e+10 
           1695     1.13437e+10 
           1705     1.11876e+10 
           1715      1.0456e+10 
           1725     1.02262e+10 
           1735     1.06548e+10 
           1745     1.05148e+10 
           1755     1.04818e+10 
           1765     1.05056e+10 
           1775      9.69162e+9 
           1785      9.93462e+9 
           1795     1.01178e+10 
           1805     1.02213e+10 
           1815        9.162e+9 
           1825      9.50051e+9 
           1835      9.25717e+9 
           1845      8.40275e+9 
           1855       8.6992e+9 
           1865       8.7917e+9 
           1875      8.95696e+9 
           1885      8.03858e+9 
           1895      7.51135e+9 
           1905      8.16466e+9 
           1915       7.6685e+9 
           1925      7.19732e+9 
           1935      7.76062e+9 
           1945      7.93885e+9 
           1955       7.0276e+9 
           1967      7.72049e+9 
           1976      8.10524e+9 
           1984      7.51611e+9 
           1995      7.39985e+9 
           2005      7.70454e+9 
           2015      7.64189e+9 
           2025      7.78471e+9 
           2035       7.0967e+9 
           2045       7.2325e+9 
           2055      6.64853e+9 
           2065      6.58879e+9 
           2074      7.01081e+9 
           2078      6.39764e+9 
           2085      6.88546e+9 
           2095      6.55406e+9 
           2105      6.80983e+9 
           2115      6.88278e+9 
           2125      6.89557e+9 
           2135      6.79377e+9 
           2145      6.43024e+9 
           2155      6.72074e+9 
           2165      6.64787e+9 
           2175      6.57772e+9 
           2185      6.36243e+9 
           2195      6.45973e+9 
           2205      6.45713e+9 
           2215      6.33339e+9 
           2225      6.16868e+9 
           2235      6.05274e+9 
           2245      6.10343e+9 
           2255      5.91325e+9 
           2265      5.96844e+9 
           2275      5.88187e+9 
           2285      5.81088e+9 
           2295      5.03701e+9 
           2305      5.59866e+9 
           2315       5.4595e+9 
           2325      5.42093e+9 
           2335      5.27379e+9 
           2345      5.34777e+9 
           2355       5.2803e+9 
           2365      5.23756e+9 
           2375      5.10378e+9 
           2385      5.05001e+9 
           2395      4.97844e+9 
           2405      4.92579e+9 
           2415       4.8429e+9 
           2425      4.83046e+9 
           2435      4.70319e+9 
           2445      4.69958e+9 
           2455      4.67925e+9 
           2465      4.59802e+9 
           2475      4.49415e+9 
           2485       4.2629e+9 
           2495      2.92298e+9 
           2505      3.97909e+9 
           2513      4.05354e+9 
           2518      4.17988e+9 
           2525      4.22156e+9 
           2535      4.21628e+9 
           2545      4.00354e+9 
           2555      4.08041e+9 
           2565      4.00336e+9 
           2575      4.02909e+9 
           2585      3.97069e+9 
           2595      3.93494e+9 
           2605      3.90818e+9 
           2615      3.82953e+9 
           2625      3.80878e+9 
           2635      3.76755e+9 
           2645      3.71429e+9 
           2655      3.68444e+9 
           2665      3.52577e+9 
           2675      3.53137e+9 
           2685      3.54033e+9 
           2695      3.40808e+9 
           2705      3.33103e+9 
           2715      3.34135e+9 
           2725      3.33665e+9 
           2735      3.29895e+9 
           2745      3.25176e+9 
           2755      3.23232e+9 
           2765      3.18705e+9 
           2775      3.20845e+9 
           2785      3.14338e+9 
           2795       3.0172e+9 
           2805      3.06118e+9 
           2815      3.06448e+9 
           2825       3.0297e+9 
           2835      2.92315e+9 
           2845      2.95271e+9 
           2855      2.88589e+9 
           2865       2.8824e+9 
           2875       2.8436e+9 
           2885      2.81614e+9 
           2895      2.76822e+9 
           2910      2.69286e+9 
           2930      2.68146e+9 
           2950      2.60289e+9 
           2970      2.55941e+9 
           2990      2.49237e+9 
           3010      2.37807e+9 
           3030       2.3668e+9 
           3050      2.34477e+9 
           3070      2.31936e+9 
           3090      2.20515e+9 
           3110      2.21634e+9 
           3130      2.14735e+9 
           3150      2.12058e+9 
           3170       2.0635e+9 
           3190      2.02912e+9 
           3210      1.99631e+9 
           3230      1.93902e+9 
           3250       1.9188e+9 
           3270      1.86682e+9 
           3290       1.8325e+9 
           3310      1.79674e+9 
           3330      1.75382e+9 
           3350      1.72528e+9 
           3370       1.6854e+9 
           3390       1.6676e+9 
           3410      1.63598e+9 
           3430      1.60681e+9 
           3450      1.56797e+9 
           3470      1.53872e+9 
           3490      1.50641e+9 
           3510       1.4825e+9 
           3530      1.46651e+9 
           3550       1.4352e+9 
           3570      1.41006e+9 
           3590      1.37116e+9 
           3610      1.34988e+9 
           3630      1.32698e+9 
           3640       1.3226e+9 
           3650      1.29933e+9 
           3670      1.28476e+9 
           3690      1.25314e+9 
           3710      1.20786e+9 
           3730      1.17574e+9 
           3750      1.23471e+9 
           3770       1.2161e+9 
           3790      1.24867e+9 
           3810      1.27897e+9 
           3830      1.15249e+9 
           3850      1.26193e+9 
           3870      1.21964e+9 
           3890      1.09916e+9 
           3910       1.2267e+9 
           3930       1.1791e+9 
           3950      1.16147e+9 
           3970      1.01544e+9 
           3990      1.13506e+9 
           4010      1.12189e+9 
           4030      1.07865e+9 
           4050      1.08002e+9 
           4070      1.02415e+9 
           4090      9.76703e+8 
           4110      9.04507e+8 
           4130      9.83783e+8 
           4150      9.76051e+8 
           4170      9.75052e+8 
           4190      9.61646e+8 
           4210       9.5302e+8 
           4230      9.30386e+8 
           4250      9.01356e+8 
           4270      8.77311e+8 
           4290      8.59182e+8 
           4310      8.33501e+8 
           4330      7.97869e+8 
           4350      7.44102e+8 
           4370      7.99052e+8 
           4390      8.01132e+8 
           4410      7.87064e+8 
           4430      7.83256e+8 
           4450      7.67042e+8 
           4470      7.46204e+8 
           4490      7.48223e+8 
           4510      7.39471e+8 
           4530        7.309e+8 
           4550      7.20413e+8 
           4570      7.07789e+8 
           4590      6.94536e+8 
           4610      6.77089e+8 
           4630      6.68756e+8 
           4650      6.40052e+8 
           4670      6.47296e+8 
           4690      6.42763e+8 
           4710      6.17787e+8 
           4730      6.25707e+8 
           4750      6.14088e+8 
           4770      6.14976e+8 
           4790      6.04219e+8 
           4810      5.91177e+8 
           4830      5.80317e+8 
           4850      5.59365e+8 
           4870      5.10859e+8 
           4890      5.56994e+8 
           4910      5.49918e+8 
           4930      5.34553e+8 
           4950      5.29889e+8 
           4970      5.29873e+8 
           4990      5.21186e+8 
           5010      4.99412e+8 
           5030      5.03683e+8 
           5050      4.94176e+8 
           5070       4.9222e+8 
           5090      4.83255e+8 
           5110      4.75512e+8 
           5130      4.66386e+8 
           5150      4.61493e+8 
           5170      4.56139e+8 
           5190      4.50882e+8 
           5210      4.43624e+8 
           5230      4.38626e+8 
           5250      4.32625e+8 
           5270      4.25251e+8 
           5290      4.21059e+8 
           5310       4.1478e+8 
           5330      4.09631e+8 
           5350      4.03652e+8 
           5370      3.98848e+8 
           5390      3.92471e+8 
           5410      3.87875e+8 
           5430      3.82672e+8 
           5450      3.77027e+8 
           5470      3.72148e+8 
           5490      3.67466e+8 
           5510      3.63401e+8 
           5530       3.5771e+8 
           5550      3.54048e+8 
           5570      3.49094e+8 
           5590      3.44647e+8 
           5610      3.40099e+8 
           5630      3.36142e+8 
           5650      3.30321e+8 
           5670      3.24701e+8 
           5690      3.18781e+8 
           5710      3.16933e+8 
           5730       3.1391e+8 
           5750      3.08334e+8 
           5770      3.06755e+8 
           5790      3.02425e+8 
           5810      2.98695e+8 
           5830      2.94089e+8 
           5850      2.91168e+8 
           5870      2.81435e+8 
           5890      2.81873e+8 
           5910      2.79408e+8 
           5930      2.75683e+8 
           5950      2.72109e+8 
           5970       2.7086e+8 
           5990      2.65915e+8 
           6010      2.63793e+8 
           6030      2.59871e+8 
           6050      2.57075e+8 
           6070      2.54514e+8 
           6090      2.51525e+8 
           6110      2.48458e+8 
           6130      2.45686e+8 
           6150      2.41382e+8 
           6170       2.3884e+8 
           6190      2.36729e+8 
           6210      2.34249e+8 
           6230      2.31563e+8 
           6250      2.28222e+8 
           6270       2.2582e+8 
           6290      2.23415e+8 
           6310      2.20373e+8 
           6330      2.18334e+8 
           6350      2.15074e+8 
           6370       2.1328e+8 
           6390       2.1072e+8 
           6410      2.08288e+8 
           6430      2.06165e+8 
           6450       2.0372e+8 
           6470      2.00375e+8 
           6490      1.98283e+8 
           6510      1.96222e+8 
           6530      1.93529e+8 
           6550      1.89293e+8 
           6570      1.70862e+8 
           6590      1.86248e+8 
           6610      1.85571e+8 
           6630       1.8381e+8 
           6650      1.81386e+8 
           6670      1.78335e+8 
           6690      1.76479e+8 
           6710      1.75805e+8 
           6730      1.73215e+8 
           6750      1.72181e+8 
           6770      1.70344e+8 
           6790      1.67143e+8 
           6810      1.66358e+8 
           6830      1.64271e+8 
           6850      1.62928e+8 
           6870       1.6111e+8 
           6890      1.59018e+8 
           6910      1.56805e+8 
           6930      1.56089e+8 
           6950      1.54498e+8 
           6970      1.52868e+8 
           6990      1.51162e+8 
           7010      1.49526e+8 
           7030      1.47876e+8 
           7050      1.46402e+8 
           7070      1.42786e+8 
           7090      1.43383e+8 
           7110       1.4064e+8 
           7130      1.39363e+8 
           7150      1.38916e+8 
           7170      1.37504e+8 
           7190       1.3615e+8 
           7210      1.34736e+8 
           7230      1.31491e+8 
           7250      1.31483e+8 
           7270      1.30611e+8 
           7290      1.28301e+8 
           7310      1.27924e+8 
           7330      1.26568e+8 
           7350      1.25343e+8 
           7370      1.24129e+8 
           7390      1.22879e+8 
           7410       1.2164e+8 
           7430      1.20365e+8 
           7450      1.19157e+8 
           7470      1.16933e+8 
           7490      1.16625e+8 
           7510      1.15604e+8 
           7530      1.14299e+8 
           7550      1.13397e+8 
           7570      1.12293e+8 
           7590      1.11113e+8 
           7610       1.0973e+8 
           7630      1.08955e+8 
           7650      1.07858e+8 
           7670      1.06892e+8 
           7690      1.05808e+8 
           7710      1.04772e+8 
           7730      1.03619e+8 
           7750      1.02797e+8 
           7770      1.01413e+8 
           7790      1.00856e+8 
           7810      9.98397e+7 
           7830      9.89432e+7 
           7850      9.79995e+7 
           7870        9.676e+7 
           7890      9.56649e+7 
           7910      9.51034e+7 
           7930       9.4157e+7 
           7950      9.32607e+7 
           7970      9.23543e+7 
           7990      9.14913e+7 
           8010      9.06533e+7 
           8030      8.98342e+7 
           8050      8.90803e+7 
           8070      8.82864e+7 
           8090      8.73612e+7 
           8110       8.5854e+7 
           8130      8.58596e+7 
           8150       8.4985e+7 
           8170      8.43606e+7 
           8190      8.28875e+7 
           8210       8.2255e+7 
           8230      8.13663e+7 
           8250      8.11881e+7 
           8270      7.93417e+7 
           8290      7.95349e+7 
           8310      7.89562e+7 
           8330      7.82789e+7 
           8350      7.72019e+7 
           8370      7.65645e+7 
           8390       7.6109e+7 
           8410         7.53e+7 
           8430       7.4678e+7 
           8450      7.34913e+7 
           8470      7.31289e+7 
           8490      7.27064e+7 
           8510      7.14339e+7 
           8530      7.16637e+7 
           8550      6.94426e+7 
           8570      7.11604e+7 
