# Kurucz ODFNEW /NOVER (2003)
# teff = 22000 K (value for the effective temperature for the model. Temperatures are given in K)
# logg = 3.5 log(cm/s2) (value for Log(G) for the model.)
# meta = -4  (value for the Metallicity for the model.)
# lh = 1.25  (l/Hp where l is the  mixing length of the convective element and Hp is the pressure scale height)
# vtur = 2 km/s (Microturbulence velocity)
# alpha = 0.4  (Alpha)
#
# column 1: WAVELENGTH (ANGSTROM), Wavelength in Angstrom
# column 2: FLUX (ERG/CM2/S/A), Flux in erg/cm2/s/A
          147.2     1.20359e-17 
            151     7.42554e-17 
          155.2     4.98677e-16 
          158.8     2.34905e-15 
            162     8.77557e-15 
            166     4.23308e-14 
          170.3     2.10992e-13 
          173.4     6.38162e-13 
          176.8     2.05116e-12 
          180.2     6.29773e-12 
          181.7      1.0188e-11 
          186.1     3.98711e-11 
            191     1.68687e-10 
          193.9     3.82178e-10 
          198.4      1.29397e-9 
          201.8      3.13145e-9 
            205      6.99529e-9 
          210.5      2.62281e-8 
          216.2      9.57813e-8 
          219.8      2.09294e-7 
            223       4.1004e-7 
          226.8      8.87952e-7 
            230      2.08597e-6 
            234      4.61857e-6 
            240      1.35106e-5 
          246.5      4.06594e-5 
          252.4     0.000105291 
          256.8     0.000205919 
            260     0.000334303 
            264     0.000597126 
          268.5      0.00112164 
          273.5      0.00220254 
          278.5      0.00421836 
            284      0.00838225 
            290        0.017179 
            296       0.0341239 
            301       0.0591575 
            308        0.123196 
            318        0.334491 
            328        0.847452 
            338         2.02379 
            348         4.58033 
            357         9.15656 
            366         17.6463 
            375         32.8575 
            385         63.1741 
            395         117.146 
            405         210.105 
            414         346.142 
            422         528.949 
            430          794.29 
            441         1352.68 
            451         2140.35 
            460         3173.89 
            470         4820.91 
            480         7180.91 
            490         10502.8 
            500         15097.8 
            506         90137.5 
            512          263896 
            520          333205 
            530          492001 
            540          532369 
            550          765801 
            560          936538 
            570      1.13501e+6 
            580      1.14676e+6 
            590      1.52207e+6 
            600      1.94769e+6 
            610      2.30918e+6 
            620      2.71022e+6 
            630      3.16438e+6 
            640      3.67054e+6 
            650      4.24443e+6 
            658      4.74684e+6 
            665      5.22076e+6 
            675      5.95086e+6 
            685      6.74512e+6 
            695      7.65977e+6 
            705       8.6272e+6 
            716      9.79051e+6 
            726        1.094e+7 
            735      1.20705e+7 
            745      1.34069e+7 
            755      1.48418e+7 
            765       1.6376e+7 
            775      1.80178e+7 
            785      1.97643e+7 
            795      2.16176e+7 
            805      2.35836e+7 
            815      2.56583e+7 
            825      2.78507e+7 
            835        2.996e+7 
            845      3.25775e+7 
            855      3.51068e+7 
            865      3.77699e+7 
            875      4.05404e+7 
            885      4.34293e+7 
            895      4.64313e+7 
            905      4.94333e+7 
            915       1.0115e+8 
            925      1.20553e+9 
            935      3.87393e+9 
            945     1.04165e+10 
            955      1.3205e+10 
            965     1.66344e+10 
            975      8.35393e+9 
            985     1.79091e+10 
            995     1.74935e+10 
           1005     1.77234e+10 
           1015     1.65037e+10 
           1025      6.56518e+9 
           1035      1.5411e+10 
           1045     1.66533e+10 
           1055     1.64393e+10 
           1065     1.59504e+10 
           1075     1.57782e+10 
           1085     1.51396e+10 
           1095     1.53432e+10 
           1105     1.48273e+10 
           1115     1.46134e+10 
           1125     1.42402e+10 
           1135     1.42223e+10 
           1145     1.39381e+10 
           1155     1.37306e+10 
           1165     1.34892e+10 
           1175     1.26147e+10 
           1185     1.29618e+10 
           1195      1.2454e+10 
           1205     1.13432e+10 
           1215       4.2248e+9 
           1225     1.08159e+10 
           1235      1.1728e+10 
           1245     1.16276e+10 
           1255     1.14797e+10 
           1265     1.12671e+10 
           1275     1.11019e+10 
           1285     1.09072e+10 
           1295     1.05152e+10 
           1305     1.03899e+10 
           1315     1.03466e+10 
           1325      1.0155e+10 
           1335      9.83283e+9 
           1345      9.83023e+9 
           1355       9.6711e+9 
           1365      9.50525e+9 
           1375      9.34857e+9 
           1385       9.1952e+9 
           1395       8.9535e+9 
           1405      8.82326e+9 
           1415      8.74471e+9 
           1425      8.60181e+9 
           1435      8.45838e+9 
           1442      8.36052e+9 
           1447      8.29078e+9 
           1455      8.18047e+9 
           1465      8.04775e+9 
           1475      7.91805e+9 
           1485      7.78888e+9 
           1495       7.6621e+9 
           1505       7.5355e+9 
           1512      7.45419e+9 
           1517      7.39548e+9 
           1525       7.3014e+9 
           1535        7.181e+9 
           1545      7.05662e+9 
           1555       6.9473e+9 
           1565      6.85665e+9 
           1575      6.75041e+9 
           1585      6.64601e+9 
           1595       6.5422e+9 
           1605      6.43505e+9 
           1615      6.33452e+9 
           1625      6.23982e+9 
           1635      6.14061e+9 
           1645      5.98181e+9 
           1655      5.95802e+9 
           1665      5.86805e+9 
           1672      5.80487e+9 
           1677      5.76455e+9 
           1685      5.69627e+9 
           1695      5.61208e+9 
           1705      5.52959e+9 
           1715      5.44685e+9 
           1725       5.3678e+9 
           1735      5.28996e+9 
           1745      5.21231e+9 
           1755       5.1373e+9 
           1765      5.05845e+9 
           1775      4.98679e+9 
           1785      4.91487e+9 
           1795      4.84413e+9 
           1805      4.77407e+9 
           1815      4.70502e+9 
           1825      4.63811e+9 
           1835       4.5727e+9 
           1845      4.50534e+9 
           1855      4.42131e+9 
           1865      4.36666e+9 
           1875      4.32074e+9 
           1885      4.25763e+9 
           1895      4.19047e+9 
           1905      4.14462e+9 
           1915      4.07843e+9 
           1925      4.02519e+9 
           1935      3.97575e+9 
           1945      3.92521e+9 
           1955      3.86672e+9 
           1967      3.80947e+9 
           1976      3.76433e+9 
           1984      3.72178e+9 
           1995      3.66296e+9 
           2005      3.62014e+9 
           2015      3.57326e+9 
           2025      3.52657e+9 
           2035       3.4798e+9 
           2045      3.43441e+9 
           2055      3.37984e+9 
           2065      3.33508e+9 
           2074      3.30453e+9 
           2078      3.28136e+9 
           2085      3.26161e+9 
           2095      3.21862e+9 
           2105      3.17944e+9 
           2115      3.13934e+9 
           2125      3.09977e+9 
           2135      3.06047e+9 
           2145      3.02193e+9 
           2155      2.98421e+9 
           2165      2.94706e+9 
           2175      2.91015e+9 
           2185      2.87395e+9 
           2195      2.83844e+9 
           2205      2.80337e+9 
           2215      2.76883e+9 
           2225      2.73486e+9 
           2235      2.70139e+9 
           2245      2.66856e+9 
           2255      2.63613e+9 
           2265      2.60468e+9 
           2275      2.57332e+9 
           2285       2.5424e+9 
           2295      2.50892e+9 
           2305      2.48195e+9 
           2315      2.45268e+9 
           2325      2.42368e+9 
           2335      2.39523e+9 
           2345       2.3671e+9 
           2355      2.33957e+9 
           2365      2.31228e+9 
           2375      2.28531e+9 
           2385      2.25843e+9 
           2395      2.23226e+9 
           2405       2.2065e+9 
           2415      2.18103e+9 
           2425       2.1561e+9 
           2435      2.13131e+9 
           2445      2.10692e+9 
           2455      2.08291e+9 
           2465      2.05922e+9 
           2475      2.03591e+9 
           2485      2.01297e+9 
           2495      1.98186e+9 
           2505      1.96811e+9 
           2513      1.95005e+9 
           2518      1.93958e+9 
           2525      1.92453e+9 
           2535      1.90334e+9 
           2545      1.88219e+9 
           2555      1.86183e+9 
           2565      1.84155e+9 
           2575       1.8216e+9 
           2585      1.80189e+9 
           2595      1.78221e+9 
           2605      1.77827e+9 
           2615      1.75891e+9 
           2625      1.73799e+9 
           2635      1.71452e+9 
           2645      1.69711e+9 
           2655      1.67649e+9 
           2665      1.65709e+9 
           2675       1.6383e+9 
           2685      1.63056e+9 
           2695      1.60235e+9 
           2705      1.59619e+9 
           2715      1.57934e+9 
           2725      1.55113e+9 
           2735      1.54631e+9 
           2745      1.53021e+9 
           2755      1.51431e+9 
           2765      1.48662e+9 
           2775      1.48307e+9 
           2785      1.46777e+9 
           2795       1.4516e+9 
           2805      1.43744e+9 
           2815      1.42296e+9 
           2825      1.39502e+9 
           2835      1.39002e+9 
           2845      1.37985e+9 
           2855      1.36585e+9 
           2865      1.35207e+9 
           2875      1.33844e+9 
           2885      1.32501e+9 
           2895      1.31174e+9 
           2910      1.29216e+9 
           2930      1.26659e+9 
           2950      1.23376e+9 
           2970      1.21733e+9 
           2990      1.19364e+9 
           3010      1.17063e+9 
           3030      1.14809e+9 
           3050      1.12612e+9 
           3070      1.10466e+9 
           3090      1.08374e+9 
           3110       1.0633e+9 
           3130      1.04472e+9 
           3150      1.02504e+9 
           3170      1.00558e+9 
           3190      9.79465e+8 
           3210      9.68833e+8 
           3230      9.50986e+8 
           3250      9.33504e+8 
           3270      9.17681e+8 
           3290       8.9984e+8 
           3310       8.8501e+8 
           3330      8.69214e+8 
           3350      8.52253e+8 
           3370       8.3875e+8 
           3390      8.24031e+8 
           3410      8.09663e+8 
           3430      7.91827e+8 
           3450       7.7533e+8 
           3470      7.64322e+8 
           3490      7.51504e+8 
           3510      7.42506e+8 
           3530      7.30548e+8 
           3550      7.18484e+8 
           3570      7.09392e+8 
           3590      6.94027e+8 
           3610      6.83381e+8 
           3630      6.71039e+8 
           3640      6.69291e+8 
           3650      6.62687e+8 
           3670      6.54338e+8 
           3690      6.34979e+8 
           3710      6.22185e+8 
           3730      6.12444e+8 
           3750      6.75046e+8 
           3770      6.81394e+8 
           3790      7.10939e+8 
           3810      7.41126e+8 
           3830      6.50067e+8 
           3850      7.56534e+8 
           3870      7.53036e+8 
           3890      6.20185e+8 
           3910      7.39778e+8 
           3930      7.26218e+8 
           3950      7.16009e+8 
           3970      5.76081e+8 
           3990      6.89491e+8 
           4010      6.80077e+8 
           4030      6.46946e+8 
           4050       6.6439e+8 
           4070      6.51667e+8 
           4090      6.12429e+8 
           4110      5.36856e+8 
           4130      6.13081e+8 
           4150      6.05939e+8 
           4170       5.9975e+8 
           4190      5.91785e+8 
           4210      5.82265e+8 
           4230       5.7294e+8 
           4250      5.63806e+8 
           4270      5.54839e+8 
           4290      5.46095e+8 
           4310      5.35786e+8 
           4330      4.95644e+8 
           4350      4.52235e+8 
           4370      5.10324e+8 
           4390      4.93331e+8 
           4410      4.96905e+8 
           4430      4.87015e+8 
           4450      4.81734e+8 
           4470      4.57617e+8 
           4490      4.67097e+8 
           4510      4.60056e+8 
           4530      4.53102e+8 
           4550      4.46289e+8 
           4570      4.39595e+8 
           4590      4.33037e+8 
           4610      4.26593e+8 
           4630      4.20262e+8 
           4650      4.14041e+8 
           4670      4.07945e+8 
           4690       4.0187e+8 
           4710      3.91451e+8 
           4730      3.90303e+8 
           4750      3.84636e+8 
           4770      3.79099e+8 
           4790      3.73641e+8 
           4810      3.68293e+8 
           4830      3.61777e+8 
           4850      3.39613e+8 
           4870      3.03726e+8 
           4890       3.4577e+8 
           4910      3.42568e+8 
           4930      3.31316e+8 
           4950      3.33333e+8 
           4970      3.28673e+8 
           4990      3.24107e+8 
           5010      3.16076e+8 
           5030      3.15206e+8 
           5050      3.09095e+8 
           5070      3.06617e+8 
           5090      3.02424e+8 
           5110      2.98315e+8 
           5130      2.94276e+8 
           5150      2.90304e+8 
           5170      2.86385e+8 
           5190      2.82546e+8 
           5210      2.78757e+8 
           5230      2.75032e+8 
           5250      2.71368e+8 
           5270      2.67766e+8 
           5290      2.64237e+8 
           5310      2.60754e+8 
           5330      2.57329e+8 
           5350      2.53974e+8 
           5370      2.50662e+8 
           5390      2.47405e+8 
           5410      2.44201e+8 
           5430      2.41051e+8 
           5450      2.37966e+8 
           5470       2.3492e+8 
           5490      2.31912e+8 
           5510      2.28965e+8 
           5530      2.26056e+8 
           5550      2.23206e+8 
           5570      2.20392e+8 
           5590      2.17624e+8 
           5610       2.1489e+8 
           5630      2.12213e+8 
           5650      2.09569e+8 
           5670      2.06968e+8 
           5690      2.04399e+8 
           5710      2.01883e+8 
           5730      1.99398e+8 
           5750      1.96953e+8 
           5770      1.94549e+8 
           5790      1.92174e+8 
           5810      1.89837e+8 
           5830       1.8754e+8 
           5850       1.8528e+8 
           5870      1.78093e+8 
           5890      1.80752e+8 
           5910      1.78689e+8 
           5930      1.76565e+8 
           5950      1.74464e+8 
           5970      1.72399e+8 
           5990      1.70357e+8 
           6010      1.68349e+8 
           6030      1.66374e+8 
           6050      1.64422e+8 
           6070      1.62502e+8 
           6090      1.60603e+8 
           6110      1.58746e+8 
           6130       1.5691e+8 
           6150      1.55094e+8 
           6170      1.53309e+8 
           6190      1.51553e+8 
           6210      1.49816e+8 
           6230      1.48108e+8 
           6250      1.46429e+8 
           6270      1.44768e+8 
           6290      1.43135e+8 
           6310      1.41519e+8 
           6330      1.39931e+8 
           6350      1.38359e+8 
           6370      1.36814e+8 
           6390      1.35285e+8 
           6410      1.33782e+8 
           6430      1.32304e+8 
           6450      1.30842e+8 
           6470      1.29396e+8 
           6490      1.27973e+8 
           6510      1.26575e+8 
           6530      1.24873e+8 
           6550      1.20423e+8 
           6570      1.07464e+8 
           6590      1.20406e+8 
           6610      1.19799e+8 
           6630      1.18555e+8 
           6650      1.17366e+8 
           6670      1.15105e+8 
           6690      1.13896e+8 
           6710      1.13644e+8 
           6730      1.12438e+8 
           6750      1.11243e+8 
           6770      1.10069e+8 
           6790      1.08907e+8 
           6810      1.07764e+8 
           6830      1.06633e+8 
           6850      1.05514e+8 
           6870      1.04414e+8 
           6890      1.03324e+8 
           6910      1.02254e+8 
           6930      1.01186e+8 
           6950      1.00144e+8 
           6970      9.91126e+7 
           6990      9.80836e+7 
           7010      9.70877e+7 
           7030       9.6094e+7 
           7050      9.51175e+7 
           7070      9.26657e+7 
           7090      9.31929e+7 
           7110       9.2252e+7 
           7130      9.13202e+7 
           7150      9.04047e+7 
           7170      8.94761e+7 
           7190         8.86e+7 
           7210      8.77178e+7 
           7230      8.68368e+7 
           7250      8.59785e+7 
           7270      8.51283e+7 
           7290      8.36056e+7 
           7310      8.34378e+7 
           7330      8.26326e+7 
           7350      8.18208e+7 
           7370      8.10167e+7 
           7390       8.0227e+7 
           7410      7.94446e+7 
           7430      7.86762e+7 
           7450      7.79218e+7 
           7470      7.71675e+7 
           7490      7.64269e+7 
           7510      7.56597e+7 
           7530       7.4966e+7 
           7550      7.42455e+7 
           7570      7.35381e+7 
           7590      7.28372e+7 
           7610      7.21426e+7 
           7630      7.14607e+7 
           7650       7.0785e+7 
           7670      7.01154e+7 
           7690      6.94517e+7 
           7710       6.8794e+7 
           7730      6.81611e+7 
           7750      6.75149e+7 
           7770       6.6887e+7 
           7790      6.62708e+7 
           7810      6.55983e+7 
           7830      6.50486e+7 
           7850      6.45219e+7 
           7870      6.39268e+7 
           7890      6.33005e+7 
           7910       6.2758e+7 
           7930      6.20764e+7 
           7950      6.14605e+7 
           7970      6.08559e+7 
           7990      6.03274e+7 
           8010      5.97564e+7 
           8030      5.92371e+7 
           8050      5.87396e+7 
           8070      5.82521e+7 
           8090      5.76018e+7 
           8110      5.71617e+7 
           8130      5.67332e+7 
           8150       5.6108e+7 
           8170      5.57337e+7 
           8190      5.51631e+7 
           8210      5.45788e+7 
           8230      5.42811e+7 
           8250      5.38118e+7 
           8270      5.30434e+7 
           8290       5.2796e+7 
           8310      5.23529e+7 
           8330       5.1883e+7 
           8350      5.11663e+7 
           8370      5.08435e+7 
           8390      5.04697e+7 
           8410      4.99983e+7 
           8430       4.9482e+7 
           8450      4.87895e+7 
           8470      4.83735e+7 
           8490      4.82964e+7 
           8510      4.72857e+7 
           8530      4.76943e+7 
           8550      4.56976e+7 
           8570       4.7682e+7 
