# Kurucz ODFNEW /NOVER (2003)
# teff = 31000 K (value for the effective temperature for the model. Temperatures are given in K)
# logg = 4.5 log(cm/s2) (value for Log(G) for the model.)
# meta = 0.5  (value for the Metallicity for the model.)
# lh = 1.25  (l/Hp where l is the  mixing length of the convective element and Hp is the pressure scale height)
# vtur = 2 km/s (Microturbulence velocity)
# alpha = 0.4  (Alpha)
#
# column 1: WAVELENGTH (ANGSTROM), Wavelength in Angstrom
# column 2: FLUX (ERG/CM2/S/A), Flux in erg/cm2/s/A
          147.2      4.43427e-8 
            151      1.31878e-7 
          155.2      4.14531e-7 
          158.8      1.05747e-6 
            162      2.35276e-6 
            166      6.14038e-6 
          170.3      1.62917e-5 
          173.4      3.24161e-5 
          176.8      6.66195e-5 
          180.2     0.000133315 
          181.7     0.000180167 
          186.1     0.000420662 
            191      0.00103815 
          193.9      0.00173288 
          198.4      0.00373145 
          201.8      0.00651324 
            205       0.0108209 
          210.5       0.0250616 
          216.2       0.0569449 
          219.8       0.0943148 
            223        0.145293 
          226.8        0.269703 
            230         11.6729 
            234         24.1046 
            240         44.4828 
          246.5         85.4058 
          252.4         152.872 
          256.8         226.707 
            260         349.116 
            264         494.479 
          268.5         766.604 
          273.5         1158.46 
          278.5         1652.25 
            284         3636.09 
            290         5623.62 
            296         8278.36 
            301         11410.3 
            308         28336.1 
            318         57837.2 
            328         94133.3 
            338          170841 
            348          281020 
            357      1.05816e+6 
            366      2.56519e+6 
            375      3.32754e+6 
            385      5.37117e+6 
            395       1.5682e+7 
            405      2.01719e+7 
            414      3.65111e+7 
            422      4.34135e+7 
            430      5.38627e+7 
            441      6.88039e+7 
            451      7.97944e+7 
            460       8.6249e+7 
            470      1.10621e+8 
            480      1.34483e+8 
            490      1.55319e+8 
            500      1.89676e+8 
            506      2.83096e+8 
            512      2.74473e+9 
            520      2.57873e+9 
            530      2.45686e+9 
            540      2.38492e+9 
            550      3.10998e+9 
            560      4.12408e+9 
            570      4.36793e+9 
            580      3.90773e+9 
            590      4.40809e+9 
            600      3.17855e+9 
            610      4.45049e+9 
            620      5.23521e+9 
            630       5.0764e+9 
            640      4.54016e+9 
            650      4.27091e+9 
            658      3.52371e+9 
            665      4.64291e+9 
            675      5.34329e+9 
            685      4.14541e+9 
            695      6.20823e+9 
            705      4.50658e+9 
            716      6.85476e+9 
            726      6.47681e+9 
            735      6.70627e+9 
            745      6.45393e+9 
            755      6.56062e+9 
            765      7.07335e+9 
            775      7.48974e+9 
            785      7.78799e+9 
            795      7.71311e+9 
            805       7.3221e+9 
            815      7.20932e+9 
            825      7.96937e+9 
            835      5.67181e+9 
            845      7.52061e+9 
            855        7.389e+9 
            865      7.72416e+9 
            875      7.84926e+9 
            885      8.17985e+9 
            895      8.28591e+9 
            905       7.9189e+9 
            915      8.68315e+9 
            925     2.99015e+10 
            935     5.11815e+10 
            945      7.2087e+10 
            955     8.06435e+10 
            965     9.18253e+10 
            975     2.47103e+10 
            985     6.75354e+10 
            995     6.20332e+10 
           1005     6.70897e+10 
           1015     7.38996e+10 
           1025      5.3894e+10 
           1035       6.811e+10 
           1045     8.70253e+10 
           1055     8.00761e+10 
           1065      6.1022e+10 
           1075     6.82767e+10 
           1085     6.32733e+10 
           1095     6.89253e+10 
           1105     6.39008e+10 
           1115     6.17203e+10 
           1125     4.05327e+10 
           1135      5.9228e+10 
           1145     5.63675e+10 
           1155      5.3032e+10 
           1165     5.29638e+10 
           1175     2.95708e+10 
           1185     4.78992e+10 
           1195     4.58082e+10 
           1205     3.95715e+10 
           1215     3.26806e+10 
           1225     4.31452e+10 
           1235     4.74239e+10 
           1245     4.49516e+10 
           1255     4.48122e+10 
           1265     4.64018e+10 
           1275     4.85551e+10 
           1285     4.87742e+10 
           1295     3.97795e+10 
           1305     4.18422e+10 
           1315     4.81319e+10 
           1325     4.55155e+10 
           1335     4.42696e+10 
           1345     4.32077e+10 
           1355     4.32453e+10 
           1365     4.01796e+10 
           1375     3.81427e+10 
           1385     3.52784e+10 
           1395     2.00868e+10 
           1405     2.37352e+10 
           1415     3.36554e+10 
           1425     3.09287e+10 
           1435     3.35525e+10 
           1442      3.3608e+10 
           1447     3.33672e+10 
           1455     3.14193e+10 
           1465     2.95331e+10 
           1475     3.05868e+10 
           1485     3.02207e+10 
           1495     2.92244e+10 
           1505     2.68099e+10 
           1512      2.5585e+10 
           1517     2.61484e+10 
           1525     2.56528e+10 
           1535     2.12745e+10 
           1545     1.83297e+10 
           1555     1.82318e+10 
           1565     2.08728e+10 
           1575     2.23612e+10 
           1585     2.23423e+10 
           1595     2.24954e+10 
           1605     2.20551e+10 
           1615     2.08281e+10 
           1625     2.11532e+10 
           1635     2.19212e+10 
           1645     2.23223e+10 
           1655     2.18141e+10 
           1665     2.15936e+10 
           1672     1.98109e+10 
           1677     2.39675e+10 
           1685     2.25423e+10 
           1695     2.14077e+10 
           1705     2.11042e+10 
           1715     1.98661e+10 
           1725     1.87857e+10 
           1735     1.97149e+10 
           1745     1.96306e+10 
           1755     1.94699e+10 
           1765     1.92402e+10 
           1775     1.80376e+10 
           1785     1.85325e+10 
           1795     1.83733e+10 
           1805     1.84027e+10 
           1815     1.72559e+10 
           1825     1.73263e+10 
           1835     1.70619e+10 
           1845     1.56778e+10 
           1855     1.62931e+10 
           1865     1.64383e+10 
           1875     1.61884e+10 
           1885      1.4906e+10 
           1895     1.42371e+10 
           1905     1.50587e+10 
           1915     1.43327e+10 
           1925     1.33221e+10 
           1935     1.44525e+10 
           1945     1.48281e+10 
           1955     1.30307e+10 
           1967      1.4064e+10 
           1976     1.47746e+10 
           1984     1.37857e+10 
           1995     1.36067e+10 
           2005      1.3953e+10 
           2015     1.39002e+10 
           2025       1.398e+10 
           2035     1.30297e+10 
           2045     1.30368e+10 
           2055     1.11716e+10 
           2065     1.09143e+10 
           2074     1.13313e+10 
           2078     1.08366e+10 
           2085     1.13845e+10 
           2095     1.14383e+10 
           2105     1.21112e+10 
           2115     1.22505e+10 
           2125     1.20779e+10 
           2135      1.1908e+10 
           2145     1.15262e+10 
           2155     1.17821e+10 
           2165     1.13423e+10 
           2175     1.14318e+10 
           2185     1.10938e+10 
           2195     1.13034e+10 
           2205     1.11864e+10 
           2215     1.08161e+10 
           2225     1.07358e+10 
           2235     1.05457e+10 
           2245     1.04901e+10 
           2255     1.01231e+10 
           2265      1.0216e+10 
           2275     1.00849e+10 
           2285      9.72051e+9 
           2295      8.37713e+9 
           2305       9.3682e+9 
           2315      9.21644e+9 
           2325      9.22654e+9 
           2335      9.04404e+9 
           2345      9.06435e+9 
           2355      8.85915e+9 
           2365      8.72107e+9 
           2375      8.46879e+9 
           2385      8.22242e+9 
           2395      8.19199e+9 
           2405      8.18849e+9 
           2415      8.01359e+9 
           2425      7.99952e+9 
           2435      7.82531e+9 
           2445      7.77403e+9 
           2455       7.6877e+9 
           2465      7.57895e+9 
           2475       7.4225e+9 
           2485      6.98953e+9 
           2495      4.58452e+9 
           2505      6.46651e+9 
           2513      6.57216e+9 
           2518      6.66373e+9 
           2525      6.93587e+9 
           2535      6.93812e+9 
           2545      6.64291e+9 
           2555       6.6793e+9 
           2565      6.52655e+9 
           2575      6.54925e+9 
           2585      6.48289e+9 
           2595      6.37819e+9 
           2605      6.34542e+9 
           2615      6.19176e+9 
           2625      6.16435e+9 
           2635      6.08781e+9 
           2645      5.98586e+9 
           2655      5.92643e+9 
           2665        5.681e+9 
           2675      5.59912e+9 
           2685      5.66984e+9 
           2695      5.46808e+9 
           2705      5.35616e+9 
           2715       5.3408e+9 
           2725      5.32247e+9 
           2735      5.23427e+9 
           2745       5.2107e+9 
           2755      5.15805e+9 
           2765      5.07153e+9 
           2775      5.11528e+9 
           2785      4.99312e+9 
           2795      4.76032e+9 
           2805      4.84413e+9 
           2815      4.86397e+9 
           2825      4.79844e+9 
           2835      4.63776e+9 
           2845      4.68281e+9 
           2855      4.57759e+9 
           2865      4.53646e+9 
           2875      4.46608e+9 
           2885      4.41359e+9 
           2895      4.34773e+9 
           2910      4.20101e+9 
           2930      4.21297e+9 
           2950      4.08457e+9 
           2970      3.99801e+9 
           2990      3.86211e+9 
           3010      3.67827e+9 
           3030      3.62224e+9 
           3050      3.60721e+9 
           3070      3.57547e+9 
           3090      3.39901e+9 
           3110       3.4227e+9 
           3130      3.30004e+9 
           3150      3.26134e+9 
           3170      3.16412e+9 
           3190      3.12054e+9 
           3210      3.05048e+9 
           3230       2.9649e+9 
           3250      2.93487e+9 
           3270      2.83852e+9 
           3290      2.79586e+9 
           3310       2.7292e+9 
           3330      2.65663e+9 
           3350      2.60154e+9 
           3370      2.54113e+9 
           3390      2.52359e+9 
           3410      2.46715e+9 
           3430        2.436e+9 
           3450      2.36131e+9 
           3470      2.32209e+9 
           3490      2.27171e+9 
           3510      2.22718e+9 
           3530      2.20501e+9 
           3550      2.15154e+9 
           3570       2.1105e+9 
           3590      2.05279e+9 
           3610      2.02291e+9 
           3630      1.98078e+9 
           3640      1.96571e+9 
           3650      1.91397e+9 
           3670      1.88881e+9 
           3690      1.85159e+9 
           3710      1.76572e+9 
           3730      1.72547e+9 
           3750      1.72158e+9 
           3770      1.66931e+9 
           3790      1.73923e+9 
           3810       1.7827e+9 
           3830      1.58831e+9 
           3850      1.77366e+9 
           3870       1.7027e+9 
           3890      1.48988e+9 
           3910      1.75187e+9 
           3930      1.68779e+9 
           3950      1.62873e+9 
           3970      1.37044e+9 
           3990      1.61089e+9 
           4010      1.59266e+9 
           4030      1.51892e+9 
           4050      1.53402e+9 
           4070      1.43861e+9 
           4090      1.34498e+9 
           4110      1.23105e+9 
           4130      1.39252e+9 
           4150      1.37819e+9 
           4170      1.38653e+9 
           4190      1.36324e+9 
           4210      1.34378e+9 
           4230      1.31558e+9 
           4250      1.26333e+9 
           4270      1.23541e+9 
           4290      1.20013e+9 
           4310      1.15776e+9 
           4330      1.08705e+9 
           4350      1.01371e+9 
           4370      1.11208e+9 
           4390      1.11257e+9 
           4410      1.09398e+9 
           4430      1.09324e+9 
           4450      1.06854e+9 
           4470      1.03502e+9 
           4490      1.04448e+9 
           4510      1.02617e+9 
           4530      1.01973e+9 
           4550      1.00303e+9 
           4570      9.90108e+8 
           4590      9.69464e+8 
           4610      9.40188e+8 
           4630      9.21082e+8 
           4650      8.74183e+8 
           4670      8.96665e+8 
           4690      8.88297e+8 
           4710      8.56706e+8 
           4730       8.7497e+8 
           4750      8.58183e+8 
           4770      8.59165e+8 
           4790      8.43746e+8 
           4810      8.23213e+8 
           4830      8.04427e+8 
           4850       7.5663e+8 
           4870        6.823e+8 
           4890      7.68297e+8 
           4910      7.60222e+8 
           4930      7.38458e+8 
           4950       7.3344e+8 
           4970      7.35694e+8 
           4990      7.23439e+8 
           5010      6.88001e+8 
           5030      6.93277e+8 
           5050      6.83424e+8 
           5070      6.82161e+8 
           5090      6.68231e+8 
           5110      6.56634e+8 
           5130      6.44051e+8 
           5150      6.36772e+8 
           5170        6.285e+8 
           5190      6.21554e+8 
           5210      6.12627e+8 
           5230      6.04783e+8 
           5250      5.94662e+8 
           5270       5.8389e+8 
           5290      5.79631e+8 
           5310      5.70557e+8 
           5330      5.63273e+8 
           5350       5.5491e+8 
           5370      5.47649e+8 
           5390      5.38198e+8 
           5410       5.2936e+8 
           5430      5.25315e+8 
           5450      5.16951e+8 
           5470      5.09891e+8 
           5490      5.03033e+8 
           5510      4.97155e+8 
           5530      4.89241e+8 
           5550      4.84107e+8 
           5570      4.77249e+8 
           5590      4.69946e+8 
           5610      4.64626e+8 
           5630      4.58799e+8 
           5650      4.51261e+8 
           5670      4.43161e+8 
           5690      4.32302e+8 
           5710       4.2817e+8 
           5730      4.24394e+8 
           5750       4.1665e+8 
           5770      4.14355e+8 
           5790      4.08283e+8 
           5810      4.02687e+8 
           5830      3.96083e+8 
           5850      3.92719e+8 
           5870      3.78228e+8 
           5890      3.79845e+8 
           5910      3.76642e+8 
           5930      3.72167e+8 
           5950      3.67626e+8 
           5970      3.65833e+8 
           5990      3.59414e+8 
           6010      3.56776e+8 
           6030      3.51295e+8 
           6050      3.47463e+8 
           6070      3.43848e+8 
           6090      3.39785e+8 
           6110      3.35203e+8 
           6130      3.31395e+8 
           6150       3.2501e+8 
           6170       3.2154e+8 
           6190      3.19083e+8 
           6210      3.15741e+8 
           6230      3.11824e+8 
           6250      3.06755e+8 
           6270      3.03843e+8 
           6290      3.00448e+8 
           6310      2.95897e+8 
           6330      2.93513e+8 
           6350      2.88976e+8 
           6370      2.86747e+8 
           6390      2.83192e+8 
           6410       2.7975e+8 
           6430      2.76746e+8 
           6450      2.73275e+8 
           6470      2.68115e+8 
           6490      2.65132e+8 
           6510      2.61532e+8 
           6530      2.57759e+8 
           6550      2.49154e+8 
           6570      2.21962e+8 
           6590      2.48038e+8 
           6610      2.47678e+8 
           6630      2.45723e+8 
           6650      2.42518e+8 
           6670      2.37145e+8 
           6690      2.34492e+8 
           6710      2.34284e+8 
           6730      2.30773e+8 
           6750      2.29556e+8 
           6770      2.27232e+8 
           6790      2.22684e+8 
           6810      2.21792e+8 
           6830      2.18855e+8 
           6850      2.17057e+8 
           6870      2.14455e+8 
           6890      2.11386e+8 
           6910       2.0816e+8 
           6930      2.07863e+8 
           6950      2.05615e+8 
           6970       2.0339e+8 
           6990      2.01009e+8 
           7010      1.98576e+8 
           7030       1.9622e+8 
           7050      1.94237e+8 
           7070      1.89326e+8 
           7090      1.90155e+8 
           7110      1.86747e+8 
           7130      1.84953e+8 
           7150      1.84103e+8 
           7170      1.82279e+8 
           7190      1.80501e+8 
           7210      1.78653e+8 
           7230      1.74221e+8 
           7250      1.74186e+8 
           7270      1.73051e+8 
           7290      1.69863e+8 
           7310      1.69322e+8 
           7330      1.67537e+8 
           7350      1.65817e+8 
           7370       1.6419e+8 
           7390      1.62523e+8 
           7410      1.60817e+8 
           7430      1.59134e+8 
           7450      1.57391e+8 
           7470      1.54261e+8 
           7490      1.53619e+8 
           7510      1.52595e+8 
           7530      1.50743e+8 
           7550      1.49634e+8 
           7570      1.48102e+8 
           7590      1.46322e+8 
           7610      1.44448e+8 
           7630      1.43504e+8 
           7650      1.41982e+8 
           7670      1.40794e+8 
           7690      1.39044e+8 
           7710      1.37823e+8 
           7730      1.35956e+8 
           7750      1.35218e+8 
           7770       1.3373e+8 
           7790      1.32666e+8 
           7810      1.31345e+8 
           7830      1.30091e+8 
           7850      1.28763e+8 
           7870      1.26886e+8 
           7890      1.25518e+8 
           7910      1.24818e+8 
           7930      1.23584e+8 
           7950      1.22581e+8 
           7970      1.21261e+8 
           7990      1.20159e+8 
           8010      1.19008e+8 
           8030      1.17802e+8 
           8050       1.1684e+8 
           8070      1.15718e+8 
           8090      1.14547e+8 
           8110      1.12173e+8 
           8130      1.12448e+8 
           8150      1.11347e+8 
           8170       1.1043e+8 
           8190      1.08055e+8 
           8210      1.07261e+8 
           8230      1.06011e+8 
           8250      1.05836e+8 
           8270      1.03264e+8 
           8290      1.03627e+8 
           8310      1.03036e+8 
           8330       1.0201e+8 
           8350      1.00549e+8 
           8370      9.98329e+7 
           8390      9.93682e+7 
           8410      9.82143e+7 
           8430      9.75792e+7 
           8450      9.60732e+7 
           8470      9.58196e+7 
           8490      9.47049e+7 
           8510      9.35736e+7 
           8530      9.30266e+7 
           8550      9.18343e+7 
           8570      9.18165e+7 
