# Kurucz ODFNEW /NOVER (2003)
# teff = 23000 K (value for the effective temperature for the model. Temperatures are given in K)
# logg = 3.5 log(cm/s2) (value for Log(G) for the model.)
# meta = -1  (value for the Metallicity for the model.)
# lh = 1.25  (l/Hp where l is the  mixing length of the convective element and Hp is the pressure scale height)
# vtur = 2 km/s (Microturbulence velocity)
# alpha = 0  (Alpha)
#
# column 1: WAVELENGTH (ANGSTROM), Wavelength in Angstrom
# column 2: FLUX (ERG/CM2/S/A), Flux in erg/cm2/s/A
          147.2     2.61285e-16 
            151     1.37978e-15 
          155.2     7.93747e-15 
          158.8     3.31427e-14 
            162     1.12202e-13 
            166     4.83366e-13 
          170.3     2.15578e-12 
          173.4     6.05623e-12 
          176.8     1.80373e-11 
          180.2     5.15554e-11 
          181.7     8.09192e-11 
          186.1     2.91272e-10 
            191      1.13129e-9 
          193.9      2.44401e-9 
          198.4      7.71719e-9 
          201.8       1.7773e-8 
            205      3.79813e-8 
          210.5      1.32547e-7 
          216.2       4.5185e-7 
          219.8      9.47671e-7 
            223      1.79293e-6 
          226.8       3.7311e-6 
            230     0.000121315 
            234     0.000291113 
            240      0.00073835 
          246.5      0.00192543 
          252.4      0.00445216 
          256.8      0.00760414 
            260       0.0122119 
            264       0.0201467 
          268.5       0.0348097 
          273.5       0.0624254 
          278.5         0.10999 
            284        0.201223 
            290         0.37496 
            296        0.680268 
            301          1.0908 
            308         1.99258 
            318         5.00473 
            328         11.1439 
            338         24.1542 
            348         49.3745 
            357         93.7885 
            366          168.92 
            375         287.346 
            385          511.93 
            395         879.715 
            405         1466.68 
            414         2285.27 
            422         3290.17 
            430         4703.51 
            441         7535.91 
            451         11319.2 
            460           15951 
            470         23168.3 
            480         32865.7 
            490         46114.4 
            500         63703.4 
            506          491666 
            512      1.71605e+6 
            520       2.0787e+6 
            530      2.72817e+6 
            540      3.00531e+6 
            550      4.21339e+6 
            560      4.94638e+6 
            570      6.07266e+6 
            580       6.0924e+6 
            590      7.98188e+6 
            600      9.51545e+6 
            610      1.12887e+7 
            620      1.27984e+7 
            630      1.46762e+7 
            640       1.5793e+7 
            650      1.66911e+7 
            658      2.03842e+7 
            665       2.2237e+7 
            675      2.39751e+7 
            685       2.6303e+7 
            695      3.10095e+7 
            705      3.34181e+7 
            716      3.78033e+7 
            726      4.08253e+7 
            735       4.4066e+7 
            745      4.94057e+7 
            755      5.38911e+7 
            765      5.85882e+7 
            775      6.39648e+7 
            785      6.95411e+7 
            795      7.41329e+7 
            805      7.94182e+7 
            815      8.41002e+7 
            825      9.14446e+7 
            835      9.31253e+7 
            845      1.01655e+8 
            855      1.07707e+8 
            865      1.15392e+8 
            875      1.24032e+8 
            885      1.32803e+8 
            895      1.40326e+8 
            905      1.44984e+8 
            915      2.44354e+8 
            925      2.37272e+9 
            935        6.448e+9 
            945     1.33872e+10 
            955     1.61527e+10 
            965     1.92389e+10 
            975       5.7788e+9 
            985     1.87024e+10 
            995      1.7675e+10 
           1005     1.90729e+10 
           1015     1.84842e+10 
           1025      9.19498e+9 
           1035     1.53681e+10 
           1045     2.05547e+10 
           1055     1.94291e+10 
           1065     1.71561e+10 
           1075     1.88057e+10 
           1085     1.70914e+10 
           1095     1.87205e+10 
           1105     1.74427e+10 
           1115     1.73776e+10 
           1125     1.56038e+10 
           1135     1.74081e+10 
           1145     1.61522e+10 
           1155      1.6641e+10 
           1165      1.6625e+10 
           1175     1.27154e+10 
           1185     1.59526e+10 
           1195     1.48064e+10 
           1205     1.15674e+10 
           1215      6.80306e+9 
           1225     1.34499e+10 
           1235     1.46767e+10 
           1245     1.45566e+10 
           1255     1.42342e+10 
           1265      1.4058e+10 
           1275     1.42759e+10 
           1285     1.39699e+10 
           1295     1.17517e+10 
           1305     1.21394e+10 
           1315     1.33548e+10 
           1325     1.27448e+10 
           1335     1.22403e+10 
           1345     1.23638e+10 
           1355     1.23837e+10 
           1365     1.17815e+10 
           1375     1.15693e+10 
           1385     1.14863e+10 
           1395     1.00339e+10 
           1405     1.03607e+10 
           1415     1.06961e+10 
           1425     1.04476e+10 
           1435     1.05143e+10 
           1442     1.06047e+10 
           1447     1.04083e+10 
           1455     1.02132e+10 
           1465      9.81781e+9 
           1475      9.73224e+9 
           1485      9.55787e+9 
           1495      9.39099e+9 
           1505      8.91201e+9 
           1512       8.3218e+9 
           1517      8.49491e+9 
           1525      8.52573e+9 
           1535       7.7737e+9 
           1545      7.83927e+9 
           1555      7.48138e+9 
           1565      7.78354e+9 
           1575      7.95656e+9 
           1585      7.83818e+9 
           1595      7.80595e+9 
           1605      7.57722e+9 
           1615      7.43326e+9 
           1625        7.388e+9 
           1635      7.52014e+9 
           1645      7.35882e+9 
           1655      7.28915e+9 
           1665      7.29209e+9 
           1672      7.08871e+9 
           1677      7.32661e+9 
           1685       7.1691e+9 
           1695      6.92597e+9 
           1705      6.70954e+9 
           1715      6.46424e+9 
           1725       6.3909e+9 
           1735      6.44147e+9 
           1745      6.31304e+9 
           1755      6.33597e+9 
           1765      6.11552e+9 
           1775       5.9576e+9 
           1785      5.96718e+9 
           1795      6.00354e+9 
           1805      5.98392e+9 
           1815      5.62357e+9 
           1825      5.69614e+9 
           1835      5.57158e+9 
           1845      5.17888e+9 
           1855      5.13513e+9 
           1865      5.19989e+9 
           1875      5.29792e+9 
           1885      4.85487e+9 
           1895      4.56845e+9 
           1905       4.8306e+9 
           1915      4.62896e+9 
           1925       4.4653e+9 
           1935      4.62271e+9 
           1945      4.68344e+9 
           1955      4.32408e+9 
           1967      4.53818e+9 
           1976      4.68372e+9 
           1984      4.40178e+9 
           1995       4.2963e+9 
           2005      4.36104e+9 
           2015      4.35701e+9 
           2025      4.41515e+9 
           2035      4.14298e+9 
           2045      4.13814e+9 
           2055      4.02152e+9 
           2065      4.03593e+9 
           2074      4.17168e+9 
           2078      3.92034e+9 
           2085      3.98548e+9 
           2095      3.82341e+9 
           2105      3.89761e+9 
           2115      3.86901e+9 
           2125      3.90868e+9 
           2135      3.83281e+9 
           2145      3.68048e+9 
           2155      3.75235e+9 
           2165      3.71889e+9 
           2175      3.65961e+9 
           2185      3.60117e+9 
           2195      3.59189e+9 
           2205      3.54799e+9 
           2215      3.50582e+9 
           2225      3.43435e+9 
           2235      3.38513e+9 
           2245      3.38068e+9 
           2255       3.3095e+9 
           2265      3.30178e+9 
           2275      3.25957e+9 
           2285      3.23709e+9 
           2295       3.1146e+9 
           2305      3.14911e+9 
           2315      3.08344e+9 
           2325       3.0498e+9 
           2335      2.98497e+9 
           2345      2.96785e+9 
           2355      2.95588e+9 
           2365       2.9147e+9 
           2375      2.87338e+9 
           2385      2.83814e+9 
           2395       2.8072e+9 
           2405      2.77133e+9 
           2415      2.73151e+9 
           2425      2.72414e+9 
           2435      2.67386e+9 
           2445      2.65348e+9 
           2455      2.63516e+9 
           2465      2.59764e+9 
           2475       2.5666e+9 
           2485      2.53373e+9 
           2495      2.41402e+9 
           2505      2.47188e+9 
           2513      2.39609e+9 
           2518      2.43459e+9 
           2525      2.41373e+9 
           2535        2.383e+9 
           2545      2.33301e+9 
           2555      2.33297e+9 
           2565      2.30342e+9 
           2575      2.29056e+9 
           2585      2.26312e+9 
           2595      2.23805e+9 
           2605      2.22451e+9 
           2615      2.20053e+9 
           2625      2.17882e+9 
           2635      2.15092e+9 
           2645      2.13382e+9 
           2655      2.11142e+9 
           2665       2.0763e+9 
           2675      2.05864e+9 
           2685      2.04935e+9 
           2695      2.00273e+9 
           2705      1.99629e+9 
           2715      1.97696e+9 
           2725      1.94356e+9 
           2735      1.93788e+9 
           2745      1.89849e+9 
           2755      1.88558e+9 
           2765      1.85925e+9 
           2775       1.8585e+9 
           2785      1.83546e+9 
           2795      1.78401e+9 
           2805      1.78673e+9 
           2815      1.78105e+9 
           2825      1.74764e+9 
           2835      1.71452e+9 
           2845      1.72353e+9 
           2855      1.70394e+9 
           2865      1.68968e+9 
           2875      1.67175e+9 
           2885      1.65507e+9 
           2895      1.63659e+9 
           2910      1.61002e+9 
           2930      1.57697e+9 
           2950      1.53558e+9 
           2970      1.51505e+9 
           2990      1.48246e+9 
           3010      1.45018e+9 
           3030       1.4272e+9 
           3050      1.39932e+9 
           3070      1.37219e+9 
           3090      1.33898e+9 
           3110      1.31846e+9 
           3130      1.29344e+9 
           3150      1.26894e+9 
           3170      1.24312e+9 
           3190      1.21122e+9 
           3210      1.19723e+9 
           3230      1.17389e+9 
           3250      1.15225e+9 
           3270      1.13154e+9 
           3290      1.10888e+9 
           3310      1.09043e+9 
           3330       1.0702e+9 
           3350      1.04883e+9 
           3370      1.03141e+9 
           3390      1.01302e+9 
           3410      9.94819e+8 
           3430      9.71916e+8 
           3450      9.51153e+8 
           3470      9.36997e+8 
           3490      9.20567e+8 
           3510      9.08791e+8 
           3530      8.94229e+8 
           3550      8.78951e+8 
           3570      8.67416e+8 
           3590      8.47138e+8 
           3610      8.33094e+8 
           3630      8.18764e+8 
           3640      8.16888e+8 
           3650      8.01192e+8 
           3670      7.91085e+8 
           3690      7.69113e+8 
           3710      7.50662e+8 
           3730      7.35187e+8 
           3750      7.97153e+8 
           3770      8.00195e+8 
           3790      8.28752e+8 
           3810      8.58224e+8 
           3830       7.6122e+8 
           3850        8.705e+8 
           3870      8.62808e+8 
           3890      7.26168e+8 
           3910      8.47956e+8 
           3930      8.26322e+8 
           3950        8.194e+8 
           3970       6.7425e+8 
           3990      7.89163e+8 
           4010      7.79061e+8 
           4030       7.4284e+8 
           4050      7.59155e+8 
           4070      7.40477e+8 
           4090      7.01116e+8 
           4110      6.23656e+8 
           4130      6.98733e+8 
           4150      6.91533e+8 
           4170      6.84829e+8 
           4190      6.75667e+8 
           4210      6.65883e+8 
           4230      6.54464e+8 
           4250      6.42792e+8 
           4270      6.28375e+8 
           4290      6.22079e+8 
           4310      6.09769e+8 
           4330      5.68563e+8 
           4350      5.21478e+8 
           4370      5.80474e+8 
           4390      5.63781e+8 
           4410      5.64956e+8 
           4430      5.55336e+8 
           4450      5.48947e+8 
           4470      5.23438e+8 
           4490      5.31231e+8 
           4510      5.24622e+8 
           4530      5.16273e+8 
           4550      5.08068e+8 
           4570       5.0006e+8 
           4590      4.92886e+8 
           4610      4.85215e+8 
           4630      4.77904e+8 
           4650      4.68383e+8 
           4670      4.63758e+8 
           4690      4.57653e+8 
           4710      4.44673e+8 
           4730       4.4284e+8 
           4750      4.35846e+8 
           4770      4.31818e+8 
           4790      4.25379e+8 
           4810      4.18738e+8 
           4830      4.11418e+8 
           4850      3.89166e+8 
           4870      3.50998e+8 
           4890      3.93727e+8 
           4910      3.89776e+8 
           4930      3.77149e+8 
           4950      3.78767e+8 
           4970      3.73894e+8 
           4990      3.68528e+8 
           5010      3.58147e+8 
           5030      3.58252e+8 
           5050      3.50738e+8 
           5070      3.48474e+8 
           5090      3.43647e+8 
           5110      3.38856e+8 
           5130      3.33771e+8 
           5150      3.29266e+8 
           5170      3.25244e+8 
           5190      3.20868e+8 
           5210      3.16272e+8 
           5230       3.1226e+8 
           5250      3.08095e+8 
           5270      3.03916e+8 
           5290      2.99926e+8 
           5310      2.95907e+8 
           5330      2.91993e+8 
           5350      2.88037e+8 
           5370      2.84433e+8 
           5390      2.80666e+8 
           5410      2.77024e+8 
           5430      2.73313e+8 
           5450      2.69789e+8 
           5470      2.66309e+8 
           5490       2.6291e+8 
           5510      2.59565e+8 
           5530      2.56213e+8 
           5550      2.52988e+8 
           5570      2.49741e+8 
           5590      2.46607e+8 
           5610      2.43439e+8 
           5630      2.40429e+8 
           5650      2.37184e+8 
           5670      2.34026e+8 
           5690      2.30929e+8 
           5710      2.28528e+8 
           5730      2.25719e+8 
           5750      2.22796e+8 
           5770      2.20236e+8 
           5790      2.17526e+8 
           5810      2.14859e+8 
           5830       2.1219e+8 
           5850      2.09652e+8 
           5870      2.01797e+8 
           5890      2.04099e+8 
           5910      2.02084e+8 
           5930      1.99577e+8 
           5950      1.97141e+8 
           5970      1.94966e+8 
           5990      1.92543e+8 
           6010      1.90325e+8 
           6030      1.88039e+8 
           6050      1.85851e+8 
           6070      1.83687e+8 
           6090      1.81518e+8 
           6110      1.79403e+8 
           6130      1.77312e+8 
           6150      1.75125e+8 
           6170       1.7317e+8 
           6190      1.71207e+8 
           6210      1.69237e+8 
           6230      1.67298e+8 
           6250      1.65332e+8 
           6270      1.63474e+8 
           6290      1.61617e+8 
           6310      1.59761e+8 
           6330      1.57973e+8 
           6350      1.56055e+8 
           6370      1.54371e+8 
           6390      1.52668e+8 
           6410      1.50965e+8 
           6430      1.49289e+8 
           6450      1.47622e+8 
           6470      1.45901e+8 
           6490      1.44305e+8 
           6510      1.42753e+8 
           6530      1.40891e+8 
           6550        1.363e+8 
           6570      1.22196e+8 
           6590      1.35361e+8 
           6610      1.35061e+8 
           6630      1.33639e+8 
           6650      1.32265e+8 
           6670      1.29763e+8 
           6690       1.2839e+8 
           6710      1.28053e+8 
           6730      1.26644e+8 
           6750      1.25324e+8 
           6770      1.23993e+8 
           6790      1.22504e+8 
           6810      1.21347e+8 
           6830      1.20072e+8 
           6850      1.18818e+8 
           6870      1.17568e+8 
           6890      1.16323e+8 
           6910      1.15098e+8 
           6930      1.13902e+8 
           6950      1.12724e+8 
           6970      1.11559e+8 
           6990      1.10389e+8 
           7010      1.09262e+8 
           7030      1.08131e+8 
           7050      1.07018e+8 
           7070       1.0431e+8 
           7090      1.04847e+8 
           7110      1.03766e+8 
           7130      1.02718e+8 
           7150      1.01672e+8 
           7170      1.00622e+8 
           7190      9.96331e+7 
           7210      9.86318e+7 
           7230      9.70275e+7 
           7250      9.66434e+7 
           7270      9.56919e+7 
           7290      9.39908e+7 
           7310      9.37803e+7 
           7330      9.28696e+7 
           7350      9.19465e+7 
           7370      9.10389e+7 
           7390      9.01467e+7 
           7410      8.92628e+7 
           7430      8.83802e+7 
           7450       8.7533e+7 
           7470      8.66531e+7 
           7490      8.58351e+7 
           7510       8.4971e+7 
           7530      8.41814e+7 
           7550      8.33725e+7 
           7570       8.2571e+7 
           7590      8.17767e+7 
           7610      8.09832e+7 
           7630      8.02162e+7 
           7650      7.94497e+7 
           7670      7.86965e+7 
           7690        7.795e+7 
           7710      7.72039e+7 
           7730      7.64834e+7 
           7750      7.57504e+7 
           7770      7.49741e+7 
           7790      7.43475e+7 
           7810      7.35905e+7 
           7830      7.29631e+7 
           7850      7.23411e+7 
           7870      7.16637e+7 
           7890      7.09377e+7 
           7910      7.03567e+7 
           7930      6.96008e+7 
           7950      6.88935e+7 
           7970      6.82219e+7 
           7990      6.76153e+7 
           8010      6.69845e+7 
           8030      6.63941e+7 
           8050      6.58321e+7 
           8070      6.52748e+7 
           8090      6.45495e+7 
           8110      6.40311e+7 
           8130      6.35625e+7 
           8150      6.28596e+7 
           8170      6.24337e+7 
           8190      6.17809e+7 
           8210      6.10164e+7 
           8230      6.06535e+7 
           8250      6.01494e+7 
           8270      5.92749e+7 
           8290      5.90057e+7 
           8310      5.85038e+7 
           8330      5.79789e+7 
           8350      5.71828e+7 
           8370      5.68184e+7 
           8390      5.64034e+7 
           8410      5.58797e+7 
           8430      5.53074e+7 
           8450      5.45025e+7 
           8470      5.41194e+7 
           8490      5.39327e+7 
           8510      5.29304e+7 
           8530      5.32054e+7 
           8550      5.12505e+7 
           8570      5.30946e+7 
           8590      5.05317e+7 
