# Kurucz ODFNEW /NOVER (2003)
# teff = 19000 K (value for the effective temperature for the model. Temperatures are given in K)
# logg = 5 log(cm/s2) (value for Log(G) for the model.)
# meta = 0.5  (value for the Metallicity for the model.)
# lh = 1.25  (l/Hp where l is the  mixing length of the convective element and Hp is the pressure scale height)
# vtur = 2 km/s (Microturbulence velocity)
# alpha = 0.4  (Alpha)
#
# column 1: WAVELENGTH (ANGSTROM), Wavelength in Angstrom
# column 2: FLUX (ERG/CM2/S/A), Flux in erg/cm2/s/A
          147.2     1.75674e-20 
            151     1.10319e-19 
          155.2     7.59463e-19 
          158.8     3.66295e-18 
            162     1.40193e-17 
            166     6.98349e-17 
          170.3     3.59179e-16 
          173.4     1.12279e-15 
          176.8     3.72364e-15 
          180.2     1.18105e-14 
          181.7     1.93574e-14 
          186.1     7.91178e-14 
            191     3.52162e-13 
          193.9     8.19016e-13 
          198.4     2.89295e-12 
          201.8     7.25304e-12 
            205     1.67903e-11 
          210.5     6.65399e-11 
          216.2     2.57668e-10 
          219.8     5.84549e-10 
            223      1.18097e-9 
          226.8      2.65778e-9 
            230      6.46735e-9 
            234      1.61002e-8 
            240       5.1744e-8 
          246.5      1.69844e-7 
          252.4      4.74429e-7 
          256.8      9.77382e-7 
            260      1.66731e-6 
            264      3.13217e-6 
          268.5      6.21226e-6 
          273.5      1.29101e-5 
          278.5      2.63178e-5 
            284      5.64842e-5 
            290     0.000123738 
            296     0.000261977 
            301     0.000479223 
            308       0.0010838 
            318      0.00327952 
            328      0.00902464 
            338        0.024047 
            348       0.0596277 
            357         0.14069 
            366        0.296167 
            375        0.584684 
            385          1.2129 
            395         2.41102 
            405         4.62801 
            414         8.14053 
            422         12.9976 
            430         20.5337 
            441         37.5178 
            451         63.2713 
            460         98.5425 
            470         158.685 
            480         249.551 
            490         385.704 
            500         585.272 
            506         5434.88 
            512         32743.1 
            520         41709.1 
            530         58354.8 
            540         70406.8 
            550          104903 
            560          132504 
            570          176387 
            580          218938 
            590          309392 
            600          383615 
            610          490113 
            620          573689 
            630          683400 
            640          749660 
            650          752496 
            658      1.03631e+6 
            665      1.16292e+6 
            675      1.33973e+6 
            685      1.53181e+6 
            695       1.8699e+6 
            705      2.08843e+6 
            716      2.43943e+6 
            726      2.74072e+6 
            735      3.03371e+6 
            745      3.51225e+6 
            755      3.97789e+6 
            765      4.49005e+6 
            775      5.06299e+6 
            785      5.66398e+6 
            795      6.14545e+6 
            805      6.76052e+6 
            815      7.40839e+6 
            825      8.27103e+6 
            835       8.5242e+6 
            845      9.58358e+6 
            855      1.04914e+7 
            865      1.15014e+7 
            875      1.25577e+7 
            885      1.39739e+7 
            895      1.51275e+7 
            905      1.55062e+7 
            915      2.53344e+7 
            925      9.83756e+7 
            935      2.07868e+8 
            945      5.71533e+8 
            955      1.26003e+9 
            965      1.88991e+9 
            975      4.68858e+8 
            985      2.76983e+9 
            995      2.52779e+9 
           1005       3.3524e+9 
           1015       2.9188e+9 
           1025       5.5963e+8 
           1035      1.83286e+9 
           1045      4.86425e+9 
           1055      4.99384e+9 
           1065       3.7051e+9 
           1075      4.94276e+9 
           1085      4.50357e+9 
           1095      5.29955e+9 
           1105      4.26026e+9 
           1115      3.92449e+9 
           1125      4.07858e+9 
           1135      5.57275e+9 
           1145      4.46636e+9 
           1155      5.17414e+9 
           1165      5.60837e+9 
           1175      4.29577e+9 
           1185      5.65808e+9 
           1195      2.43337e+9 
           1205      1.36404e+9 
           1215       6.9646e+8 
           1225       1.7971e+9 
           1235      5.18575e+9 
           1245      5.93594e+9 
           1255      5.80585e+9 
           1265      4.94411e+9 
           1275      5.55584e+9 
           1285       6.4884e+9 
           1295      3.31998e+9 
           1305      2.33932e+9 
           1315      5.80772e+9 
           1325      5.68584e+9 
           1335      5.04039e+9 
           1345      5.75915e+9 
           1355      5.63506e+9 
           1365      4.73777e+9 
           1375      4.98274e+9 
           1385      5.11176e+9 
           1395      4.25916e+9 
           1405       4.4873e+9 
           1415      4.53398e+9 
           1425      4.88763e+9 
           1435      4.80492e+9 
           1442      5.31369e+9 
           1447      5.29808e+9 
           1455      5.16293e+9 
           1465        4.792e+9 
           1475      4.64603e+9 
           1485      4.53515e+9 
           1495      4.73258e+9 
           1505      4.16826e+9 
           1512      3.82325e+9 
           1517       4.1733e+9 
           1525      4.19377e+9 
           1535      3.67116e+9 
           1545      3.88799e+9 
           1555      3.64885e+9 
           1565      3.66881e+9 
           1575      3.97289e+9 
           1585      4.03298e+9 
           1595      4.10178e+9 
           1605      4.02523e+9 
           1615      4.07217e+9 
           1625      3.84758e+9 
           1635      4.08294e+9 
           1645      4.09011e+9 
           1655      3.74787e+9 
           1665       4.1021e+9 
           1672      3.92498e+9 
           1677      4.03463e+9 
           1685      4.16094e+9 
           1695      3.90193e+9 
           1705      3.66709e+9 
           1715      3.38364e+9 
           1725      3.35769e+9 
           1735      3.55739e+9 
           1745      3.44633e+9 
           1755      3.58379e+9 
           1765      3.29321e+9 
           1775      3.28658e+9 
           1785      3.33334e+9 
           1795      3.57072e+9 
           1805       3.5567e+9 
           1815      3.17076e+9 
           1825      3.31279e+9 
           1835       3.1065e+9 
           1845      2.84792e+9 
           1855      2.75303e+9 
           1865      2.80763e+9 
           1875       3.1256e+9 
           1885      2.80658e+9 
           1895      2.63698e+9 
           1905      2.85717e+9 
           1915      2.67064e+9 
           1925      2.60362e+9 
           1935      2.72911e+9 
           1945      2.72572e+9 
           1955      2.53162e+9 
           1967       2.7978e+9 
           1976      2.91893e+9 
           1984      2.67445e+9 
           1995      2.60803e+9 
           2005      2.70559e+9 
           2015      2.45705e+9 
           2025      2.76367e+9 
           2035      2.52088e+9 
           2045      2.57664e+9 
           2055      2.43004e+9 
           2065      2.50339e+9 
           2074      2.56771e+9 
           2078      2.40935e+9 
           2085      2.52223e+9 
           2095      2.35075e+9 
           2105      2.41306e+9 
           2115      2.41379e+9 
           2125      2.44302e+9 
           2135      2.31242e+9 
           2145      2.29721e+9 
           2155      2.38326e+9 
           2165      2.32248e+9 
           2175       2.2897e+9 
           2185      2.20582e+9 
           2195      2.24997e+9 
           2205       2.1959e+9 
           2215       2.1355e+9 
           2225      2.02647e+9 
           2235      2.11359e+9 
           2245      2.06707e+9 
           2255      1.95972e+9 
           2265      2.03087e+9 
           2275      2.04807e+9 
           2285      2.05565e+9 
           2295      1.95466e+9 
           2305      1.91101e+9 
           2315      1.83647e+9 
           2325      1.80823e+9 
           2335      1.70806e+9 
           2345      1.69853e+9 
           2355      1.70526e+9 
           2365      1.63537e+9 
           2375      1.66324e+9 
           2385      1.60024e+9 
           2395       1.6847e+9 
           2405      1.59432e+9 
           2415      1.61803e+9 
           2425      1.63745e+9 
           2435      1.55839e+9 
           2445      1.61014e+9 
           2455      1.57948e+9 
           2465      1.57004e+9 
           2475      1.52171e+9 
           2485      1.57507e+9 
           2495      1.50122e+9 
           2505       1.5484e+9 
           2513      1.45838e+9 
           2518      1.51967e+9 
           2525      1.44668e+9 
           2535      1.44742e+9 
           2545       1.3754e+9 
           2555      1.42923e+9 
           2565      1.41639e+9 
           2575      1.46246e+9 
           2585      1.45737e+9 
           2595      1.45494e+9 
           2605      1.41231e+9 
           2615      1.40252e+9 
           2625       1.3958e+9 
           2635      1.39716e+9 
           2645      1.41558e+9 
           2655      1.40355e+9 
           2665      1.32546e+9 
           2675       1.3639e+9 
           2685      1.34639e+9 
           2695      1.31339e+9 
           2705      1.31327e+9 
           2715      1.28511e+9 
           2725      1.26591e+9 
           2735      1.29424e+9 
           2745      1.21328e+9 
           2755         1.21e+9 
           2765      1.21565e+9 
           2775      1.23885e+9 
           2785      1.22793e+9 
           2795      1.11379e+9 
           2805      1.17141e+9 
           2815      1.20261e+9 
           2825      1.18118e+9 
           2835      1.12092e+9 
           2845       1.1172e+9 
           2855      1.12367e+9 
           2865      1.14305e+9 
           2875      1.11998e+9 
           2885       1.1135e+9 
           2895      1.10573e+9 
           2910      1.09881e+9 
           2930      1.07144e+9 
           2950      1.04601e+9 
           2970      1.03667e+9 
           2990      1.01265e+9 
           3010      1.00256e+9 
           3030      9.92244e+8 
           3050      9.68137e+8 
           3070      9.50168e+8 
           3090      9.30805e+8 
           3110      9.11082e+8 
           3130      8.99899e+8 
           3150       8.8361e+8 
           3170      8.63761e+8 
           3190      8.33602e+8 
           3210      8.30632e+8 
           3230      8.17814e+8 
           3250      8.06388e+8 
           3270      7.93877e+8 
           3290      7.80077e+8 
           3310      7.68719e+8 
           3330      7.52786e+8 
           3350      7.36809e+8 
           3370      7.25468e+8 
           3390       7.1395e+8 
           3410      7.03332e+8 
           3430       6.8875e+8 
           3450      6.75122e+8 
           3470      6.63983e+8 
           3490      6.53333e+8 
           3510      6.43279e+8 
           3530      6.33319e+8 
           3550      6.23423e+8 
           3570      6.16073e+8 
           3590      5.99377e+8 
           3610      5.91627e+8 
           3630       5.8241e+8 
           3640      5.81915e+8 
           3650      5.75903e+8 
           3670         5.69e+8 
           3690      5.60193e+8 
           3710      5.40977e+8 
           3730       5.1556e+8 
           3750      5.21889e+8 
           3770      5.14007e+8 
           3790      5.58376e+8 
           3810      5.97349e+8 
           3830      5.04578e+8 
           3850      6.24142e+8 
           3870      6.59086e+8 
           3890      4.65606e+8 
           3910      6.62007e+8 
           3930      6.55945e+8 
           3950      6.40772e+8 
           3970      4.35533e+8 
           3990      6.05011e+8 
           4010      6.31627e+8 
           4030      5.80581e+8 
           4050      6.22887e+8 
           4070      5.91513e+8 
           4090      5.10523e+8 
           4110      4.27844e+8 
           4130      5.49758e+8 
           4150      5.59587e+8 
           4170      5.60602e+8 
           4190      5.55628e+8 
           4210      5.51721e+8 
           4230      5.41127e+8 
           4250      5.27911e+8 
           4270      5.07646e+8 
           4290      5.08881e+8 
           4310      4.90906e+8 
           4330      4.07916e+8 
           4350      3.64694e+8 
           4370      4.61559e+8 
           4390      4.49974e+8 
           4410      4.63568e+8 
           4430      4.54304e+8 
           4450      4.53768e+8 
           4470      4.16439e+8 
           4490      4.30658e+8 
           4510      4.36015e+8 
           4530      4.25454e+8 
           4550       4.2063e+8 
           4570      4.15604e+8 
           4590      4.08592e+8 
           4610      4.01332e+8 
           4630      3.92126e+8 
           4650      3.86617e+8 
           4670      3.82967e+8 
           4690      3.79862e+8 
           4710      3.60748e+8 
           4730      3.64203e+8 
           4750      3.58304e+8 
           4770      3.58766e+8 
           4790      3.51113e+8 
           4810      3.40954e+8 
           4830      3.30029e+8 
           4850      2.83798e+8 
           4870      2.46558e+8 
           4890      3.14434e+8 
           4910      3.17143e+8 
           4930      3.03927e+8 
           4950      3.12377e+8 
           4970      3.10203e+8 
           4990      3.04832e+8 
           5010      2.89645e+8 
           5030       2.9357e+8 
           5050      2.81958e+8 
           5070      2.87931e+8 
           5090      2.83055e+8 
           5110      2.77641e+8 
           5130      2.72774e+8 
           5150      2.68416e+8 
           5170       2.6771e+8 
           5190      2.63343e+8 
           5210       2.5533e+8 
           5230      2.57182e+8 
           5250      2.54133e+8 
           5270      2.49047e+8 
           5290      2.48271e+8 
           5310      2.44253e+8 
           5330      2.39679e+8 
           5350      2.36047e+8 
           5370      2.35128e+8 
           5390      2.32025e+8 
           5410      2.27636e+8 
           5430      2.24237e+8 
           5450      2.21833e+8 
           5470      2.17494e+8 
           5490      2.17262e+8 
           5510      2.14125e+8 
           5530      2.11297e+8 
           5550      2.08872e+8 
           5570      2.05833e+8 
           5590      2.03856e+8 
           5610      2.00909e+8 
           5630      1.99294e+8 
           5650      1.93059e+8 
           5670      1.90926e+8 
           5690      1.90296e+8 
           5710      1.88907e+8 
           5730      1.86983e+8 
           5750      1.84397e+8 
           5770      1.82464e+8 
           5790      1.80138e+8 
           5810      1.77449e+8 
           5830      1.75425e+8 
           5850      1.73369e+8 
           5870      1.64416e+8 
           5890      1.67156e+8 
           5910      1.66695e+8 
           5930      1.65284e+8 
           5950      1.61716e+8 
           5970      1.61205e+8 
           5990      1.58703e+8 
           6010      1.57794e+8 
           6030      1.55723e+8 
           6050      1.53965e+8 
           6070      1.52083e+8 
           6090      1.49988e+8 
           6110      1.48675e+8 
           6130      1.47005e+8 
           6150      1.43102e+8 
           6170      1.43145e+8 
           6190      1.41937e+8 
           6210      1.40184e+8 
           6230      1.38489e+8 
           6250      1.35869e+8 
           6270      1.35109e+8 
           6290      1.33603e+8 
           6310      1.31774e+8 
           6330      1.30698e+8 
           6350      1.27204e+8 
           6370      1.26815e+8 
           6390       1.2605e+8 
           6410      1.24604e+8 
           6430      1.23767e+8 
           6450      1.21859e+8 
           6470       1.2045e+8 
           6490      1.19056e+8 
           6510      1.17063e+8 
           6530      1.14395e+8 
           6550      1.04205e+8 
           6570      8.97816e+7 
           6590      1.08287e+8 
           6610      1.10685e+8 
           6630      1.10276e+8 
           6650      1.09247e+8 
           6670      1.06611e+8 
           6690      1.05731e+8 
           6710      1.05905e+8 
           6730      1.04794e+8 
           6750      1.03835e+8 
           6770      1.02811e+8 
           6790      1.00997e+8 
           6810      1.00445e+8 
           6830      9.90826e+7 
           6850      9.84647e+7 
           6870      9.74532e+7 
           6890      9.64042e+7 
           6910      9.53972e+7 
           6930      9.40551e+7 
           6950      9.34677e+7 
           6970      9.25289e+7 
           6990      9.14912e+7 
           7010      9.03719e+7 
           7030      8.95307e+7 
           7050      8.84625e+7 
           7070      8.62443e+7 
           7090      8.69726e+7 
           7110      8.58579e+7 
           7130      8.50212e+7 
           7150      8.41189e+7 
           7170      8.33864e+7 
           7190      8.26244e+7 
           7210      8.18405e+7 
           7230      7.99325e+7 
           7250      7.99222e+7 
           7270      7.94046e+7 
           7290       7.8048e+7 
           7310      7.78048e+7 
           7330      7.70583e+7 
           7350      7.63536e+7 
           7370      7.55999e+7 
           7390      7.48463e+7 
           7410      7.41204e+7 
           7430      7.30121e+7 
           7450      7.25188e+7 
           7470      7.15774e+7 
           7490      7.10077e+7 
           7510      7.04897e+7 
           7530      6.97902e+7 
           7550      6.91764e+7 
           7570      6.85615e+7 
           7590      6.77887e+7 
           7610      6.72637e+7 
           7630      6.66203e+7 
           7650      6.59828e+7 
           7670      6.53573e+7 
           7690      6.47311e+7 
           7710      6.41359e+7 
           7730      6.34766e+7 
           7750      6.29299e+7 
           7770      6.13533e+7 
           7790      6.17564e+7 
           7810       6.1178e+7 
           7830      6.06287e+7 
           7850       5.9504e+7 
           7870      5.91533e+7 
           7890      5.82934e+7 
           7910      5.83145e+7 
           7930      5.78883e+7 
           7950      5.68094e+7 
           7970      5.67826e+7 
           7990      5.56064e+7 
           8010        5.581e+7 
           8030      5.52677e+7 
           8050      5.46644e+7 
           8070      5.42885e+7 
           8090      5.37481e+7 
           8110      5.32216e+7 
           8130       5.2736e+7 
           8150      5.23272e+7 
           8170      5.19032e+7 
           8190      5.13051e+7 
           8210      5.06285e+7 
           8230      4.98437e+7 
           8250      5.00075e+7 
           8270      4.94399e+7 
           8290      4.91396e+7 
           8310       4.8683e+7 
           8330      4.83377e+7 
           8350      4.77908e+7 
           8370      4.73772e+7 
           8390      4.71484e+7 
           8410      4.67396e+7 
           8430      4.62684e+7 
           8450      4.52666e+7 
           8470      4.55105e+7 
           8490      4.49221e+7 
           8510      4.45276e+7 
           8530      4.42626e+7 
           8550      4.34543e+7 
           8570      4.37088e+7 
