# Kurucz ODFNEW /NOVER (2003)
# teff = 8250 K (value for the effective temperature for the model. Temperatures are given in K)
# logg = 4 log(cm/s2) (value for Log(G) for the model.)
# meta = 0.5  (value for the Metallicity for the model.)
# lh = 1.25  (l/Hp where l is the  mixing length of the convective element and Hp is the pressure scale height)
# vtur = 2 km/s (Microturbulence velocity)
# alpha = 0.4  (Alpha)
#
# column 1: WAVELENGTH (ANGSTROM), Wavelength in Angstrom
# column 2: FLUX (ERG/CM2/S/A), Flux in erg/cm2/s/A
            338     8.39499e-23 
            348     8.83527e-22 
            357     6.26892e-21 
            366     3.13604e-21 
            375     1.67982e-20 
            385     9.83855e-20 
            395     5.23594e-19 
            405     2.55287e-18 
            414     9.91257e-18 
            422     3.14167e-17 
            430     9.50911e-17 
            441     4.06694e-16 
            451     1.42599e-15 
            460     4.19548e-15 
            470     1.32118e-14 
            480     3.95141e-14 
            490     1.12647e-13 
            500     3.06628e-13 
            506     7.22056e-13 
            512     1.43304e-12 
            520     2.97218e-12 
            530     7.20198e-12 
            540     1.65187e-11 
            550     3.73068e-11 
            560     8.10533e-11 
            570     1.70728e-10 
            580      3.4516e-10 
            590     6.96186e-10 
            600      1.35152e-9 
            610       2.5716e-9 
            620      4.76322e-9 
            630      8.63782e-9 
            640      1.53239e-8 
            650      2.67331e-8 
            658      4.11148e-8 
            665      5.89171e-8 
            675      9.83197e-8 
            685      1.61523e-7 
            695      2.60437e-7 
            705      4.07219e-7 
            716      6.74592e-7 
            726      1.03882e-6 
            735      1.51368e-6 
            745      2.26469e-6 
            755       3.3573e-6 
            765      4.92682e-6 
            775      7.14288e-6 
            785      1.02939e-5 
            795      1.43652e-5 
            805      2.01839e-5 
            815      2.84663e-5 
            825      3.93282e-5 
            835      5.37415e-5 
            845       7.2874e-5 
            855      9.79824e-5 
            865     0.000130653 
            875     0.000170753 
            885     0.000226848 
            895     0.000295857 
            905     0.000379078 
            915        0.115009 
            925        0.326089 
            935        0.425254 
            945        0.562463 
            955         0.75856 
            965        0.990223 
            975         1.23264 
            985         1.55872 
            995         1.92188 
           1005         2.52305 
           1015         3.16362 
           1025         3.80091 
           1035         4.82541 
           1045         5.95854 
           1055         7.32592 
           1065         8.85271 
           1075         10.9003 
           1085          13.287 
           1095         15.8405 
           1105          45.799 
           1115         143.277 
           1125         205.524 
           1135         284.469 
           1145         355.832 
           1155         390.221 
           1165         530.609 
           1175         633.028 
           1185         661.934 
           1195         360.683 
           1205         563.372 
           1215         154.757 
           1225         675.446 
           1235         1208.86 
           1245         2540.33 
           1255         5196.39 
           1265         4088.35 
           1275         6604.48 
           1285         8573.93 
           1295         9891.41 
           1305          7082.1 
           1315           11490 
           1325         13323.7 
           1335         14492.3 
           1345         17058.4 
           1355         17457.8 
           1365         18791.5 
           1375         20318.7 
           1385         22074.8 
           1395         24926.5 
           1405         27462.3 
           1415           28434 
           1425         31355.4 
           1435         31622.4 
           1442         36095.6 
           1447         38129.8 
           1455           41890 
           1465         42766.4 
           1475         46126.1 
           1485         50447.5 
           1495         56191.9 
           1505         61207.5 
           1512         62220.7 
           1517         67013.7 
           1525         76328.4 
           1535          130215 
           1545          228134 
           1555          244155 
           1565          238568 
           1575          346564 
           1585          434640 
           1595          542150 
           1605          561111 
           1615          541516 
           1625          473811 
           1635          582169 
           1645          853759 
           1655          519246 
           1665          848157 
           1672          492058 
           1677       1.3298e+6 
           1685      2.45976e+6 
           1695      1.96729e+6 
           1705      4.10278e+6 
           1715      9.73171e+6 
           1725      1.05647e+7 
           1735      1.56024e+7 
           1745       1.4302e+7 
           1755      2.00668e+7 
           1765      1.08523e+7 
           1775      1.80986e+7 
           1785      1.72921e+7 
           1795      2.48754e+7 
           1805      1.74326e+7 
           1815      1.84509e+7 
           1825      1.61567e+7 
           1835      1.46822e+7 
           1845       1.2382e+7 
           1855      1.67343e+7 
           1865      2.08282e+7 
           1875      1.88621e+7 
           1885      1.97768e+7 
           1895       2.1586e+7 
           1905      1.86266e+7 
           1915      2.12505e+7 
           1925      1.96741e+7 
           1935      1.20488e+7 
           1945       2.2268e+7 
           1955      2.28845e+7 
           1967      2.60813e+7 
           1976      2.44288e+7 
           1984      2.25257e+7 
           1995      2.28668e+7 
           2005      2.09824e+7 
           2015      1.91528e+7 
           2025      1.84386e+7 
           2035      2.28472e+7 
           2045      2.51566e+7 
           2055      2.21781e+7 
           2065      2.22085e+7 
           2074        2.687e+7 
           2078      3.01369e+7 
           2085      2.82433e+7 
           2095      2.56542e+7 
           2105      2.30568e+7 
           2115      2.38187e+7 
           2125      2.43384e+7 
           2135      1.87455e+7 
           2145      2.39489e+7 
           2155      2.43502e+7 
           2165      2.14654e+7 
           2175       2.1587e+7 
           2185      2.35678e+7 
           2195       2.5435e+7 
           2205      2.34552e+7 
           2215      1.93777e+7 
           2225      1.90822e+7 
           2235      2.39889e+7 
           2245      2.15789e+7 
           2255      1.83748e+7 
           2265      1.86888e+7 
           2275      2.09895e+7 
           2285      2.25559e+7 
           2295      1.95252e+7 
           2305      2.09054e+7 
           2315      1.95492e+7 
           2325      1.86503e+7 
           2335       1.4502e+7 
           2345      1.12148e+7 
           2355      1.76701e+7 
           2365      1.16193e+7 
           2375      1.46781e+7 
           2385      9.54966e+6 
           2395      1.21103e+7 
           2405      1.17343e+7 
           2415      1.28737e+7 
           2425      1.77633e+7 
           2435      1.67727e+7 
           2445      1.87488e+7 
           2455      1.87464e+7 
           2465        1.831e+7 
           2475      1.65879e+7 
           2485      1.69562e+7 
           2495      1.59224e+7 
           2505      2.10277e+7 
           2513        1.503e+7 
           2518      1.49139e+7 
           2525      1.25777e+7 
           2535      1.09873e+7 
           2545      1.07446e+7 
           2555      1.45509e+7 
           2565        1.403e+7 
           2575      1.77569e+7 
           2585      1.79118e+7 
           2595      1.69214e+7 
           2605      1.52279e+7 
           2615      1.41327e+7 
           2625      1.86653e+7 
           2635      2.03334e+7 
           2645      2.64394e+7 
           2655      2.80876e+7 
           2665      2.12319e+7 
           2675       2.4505e+7 
           2685      2.38713e+7 
           2695       2.1738e+7 
           2705      2.37894e+7 
           2715         2.08e+7 
           2725      2.11357e+7 
           2735      2.33963e+7 
           2745      1.49661e+7 
           2755      1.66242e+7 
           2765      1.81441e+7 
           2775      2.09171e+7 
           2785      1.45923e+7 
           2795      5.27526e+6 
           2805      7.01793e+6 
           2815      1.93399e+7 
           2825      2.53229e+7 
           2835      2.46491e+7 
           2845      2.33451e+7 
           2855      1.96027e+7 
           2865      2.55107e+7 
           2875      2.47843e+7 
           2885      2.48631e+7 
           2895      2.34964e+7 
           2910      2.86708e+7 
           2930      2.63104e+7 
           2950      2.65016e+7 
           2970      2.86503e+7 
           2990      2.85738e+7 
           3010      2.96361e+7 
           3030      2.92392e+7 
           3050      2.89283e+7 
           3070      2.91582e+7 
           3090      3.01881e+7 
           3110      2.88936e+7 
           3130      2.87897e+7 
           3150      2.97773e+7 
           3170      2.93154e+7 
           3190      2.68728e+7 
           3210      2.84679e+7 
           3230      2.64327e+7 
           3250      2.83768e+7 
           3270      2.93956e+7 
           3290      2.94695e+7 
           3310       3.0256e+7 
           3330      2.92893e+7 
           3350      2.86855e+7 
           3370      2.81304e+7 
           3390      2.87288e+7 
           3410      2.91163e+7 
           3430      2.93541e+7 
           3450      2.91632e+7 
           3470      2.87028e+7 
           3490      2.85579e+7 
           3510      2.94076e+7 
           3530      2.91343e+7 
           3550      3.04373e+7 
           3570      2.83931e+7 
           3590      2.82063e+7 
           3610      2.84438e+7 
           3630      2.85738e+7 
           3640      2.79687e+7 
           3650      2.98188e+7 
           3670      2.94947e+7 
           3690      2.82213e+7 
           3710       2.8884e+7 
           3730      2.87674e+7 
           3750      3.50703e+7 
           3770      3.79992e+7 
           3790      4.68941e+7 
           3810        5.497e+7 
           3830      4.26941e+7 
           3850      6.05004e+7 
           3870      6.93446e+7 
           3890      3.97864e+7 
           3910      6.77039e+7 
           3930      4.75763e+7 
           3950      6.37223e+7 
           3970      3.33109e+7 
           3990       6.7702e+7 
           4010      8.01716e+7 
           4030      8.00645e+7 
           4050      7.90001e+7 
           4070      7.46982e+7 
           4090       5.7795e+7 
           4110      4.41113e+7 
           4130      7.03857e+7 
           4150      7.74721e+7 
           4170      7.67567e+7 
           4190      7.64892e+7 
           4210      7.64826e+7 
           4230      7.36135e+7 
           4250      7.43614e+7 
           4270      6.98316e+7 
           4290      7.05392e+7 
           4310      6.27778e+7 
           4330       4.8395e+7 
           4350      4.10625e+7 
           4370       6.4297e+7 
           4390       6.6547e+7 
           4410      6.61481e+7 
           4430      6.41336e+7 
           4450       6.6199e+7 
           4470      6.65374e+7 
           4490      6.46828e+7 
           4510       6.7835e+7 
           4530      6.39072e+7 
           4550      6.33757e+7 
           4570      6.57787e+7 
           4590      6.25263e+7 
           4610      6.42663e+7 
           4630      6.18091e+7 
           4650      6.23692e+7 
           4670      6.23164e+7 
           4690      5.90679e+7 
           4710       5.6161e+7 
           4730      5.97014e+7 
           4750      5.93851e+7 
           4770      5.81017e+7 
           4790      5.73646e+7 
           4810      5.52293e+7 
           4830      5.25637e+7 
           4850      3.96773e+7 
           4870      3.14829e+7 
           4890      4.86964e+7 
           4910      5.20509e+7 
           4930      5.17317e+7 
           4950      5.30765e+7 
           4970       5.3428e+7 
           4990      5.07024e+7 
           5010      4.81251e+7 
           5030      4.97161e+7 
           5050      4.87928e+7 
           5070      5.01394e+7 
           5090      4.94088e+7 
           5110       4.9408e+7 
           5130      4.80472e+7 
           5150      4.66436e+7 
           5170      4.57548e+7 
           5190      4.49833e+7 
           5210      4.53908e+7 
           5230      4.49975e+7 
           5250       4.5511e+7 
           5270      4.11022e+7 
           5290      4.43649e+7 
           5310      4.35904e+7 
           5330      4.06939e+7 
           5350      4.30161e+7 
           5370      4.28635e+7 
           5390       4.2131e+7 
           5410      4.05947e+7 
           5430      4.11701e+7 
           5450      4.17297e+7 
           5470      4.10197e+7 
           5490      4.02577e+7 
           5510      4.00317e+7 
           5530      3.98523e+7 
           5550       3.9776e+7 
           5570      3.90804e+7 
           5590      3.84565e+7 
           5610      3.85478e+7 
           5630      3.85859e+7 
           5650      3.78989e+7 
           5670      3.69383e+7 
           5690       3.7105e+7 
           5710      3.67126e+7 
           5730      3.73392e+7 
           5750      3.62013e+7 
           5770       3.6245e+7 
           5790      3.57242e+7 
           5810      3.55948e+7 
           5830      3.54142e+7 
           5850      3.49049e+7 
           5870      3.46248e+7 
           5890      3.37277e+7 
           5910      3.40164e+7 
           5930      3.36942e+7 
           5950      3.32584e+7 
           5970      3.31141e+7 
           5990      3.25563e+7 
           6010      3.19552e+7 
           6030      3.18596e+7 
           6050      3.16122e+7 
           6070       3.1755e+7 
           6090      3.12318e+7 
           6110      3.07532e+7 
           6130      3.00506e+7 
           6150      2.90806e+7 
           6170      2.91526e+7 
           6190      2.99615e+7 
           6210      2.96184e+7 
           6230      2.91344e+7 
           6250      2.80484e+7 
           6270      2.90006e+7 
           6290      2.87879e+7 
           6310      2.80512e+7 
           6330      2.78987e+7 
           6350      2.70804e+7 
           6370      2.71251e+7 
           6390      2.73126e+7 
           6410      2.66455e+7 
           6430      2.67506e+7 
           6450      2.57501e+7 
           6470      2.60744e+7 
           6490      2.54873e+7 
           6510      2.52927e+7 
           6530      2.42784e+7 
           6550      2.07391e+7 
           6570      1.64927e+7 
           6590      2.27973e+7 
           6610      2.41685e+7 
           6630      2.44026e+7 
           6650      2.43455e+7 
           6670      2.40888e+7 
           6690      2.40401e+7 
           6710      2.38392e+7 
           6730      2.35796e+7 
           6750      2.30399e+7 
           6770      2.33413e+7 
           6790      2.30806e+7 
           6810      2.28997e+7 
           6830      2.26608e+7 
           6850      2.24532e+7 
           6870      2.23985e+7 
           6890      2.21988e+7 
           6910      2.20019e+7 
           6930      2.17747e+7 
           6950      2.16448e+7 
           6970      2.14091e+7 
           6990      2.13238e+7 
           7010      2.05575e+7 
           7030      2.08707e+7 
           7050      2.07411e+7 
           7070      2.05892e+7 
           7090       2.0453e+7 
           7110      1.97456e+7 
           7130       1.9924e+7 
           7150      1.97368e+7 
           7170       1.9525e+7 
           7190      1.93553e+7 
           7210      1.93387e+7 
           7230      1.91223e+7 
           7250       1.8784e+7 
           7270      1.89623e+7 
           7290      1.85855e+7 
           7310      1.86207e+7 
           7330      1.84673e+7 
           7350      1.84102e+7 
           7370      1.82862e+7 
           7390      1.79886e+7 
           7410      1.77023e+7 
           7430      1.74311e+7 
           7450      1.74055e+7 
           7470      1.72557e+7 
           7490      1.72436e+7 
           7510       1.7218e+7 
           7530      1.71207e+7 
           7550      1.70704e+7 
           7570      1.68225e+7 
           7590      1.67883e+7 
           7610      1.66104e+7 
           7630      1.65532e+7 
           7650      1.63161e+7 
           7670       1.6039e+7 
           7690      1.59194e+7 
           7710      1.59668e+7 
           7730      1.58685e+7 
           7750      1.56857e+7 
           7770      1.51346e+7 
           7790      1.56045e+7 
           7810      1.53833e+7 
           7830      1.52077e+7 
           7850      1.49866e+7 
           7870      1.49325e+7 
           7890      1.47207e+7 
           7910      1.46307e+7 
           7930      1.43629e+7 
           7950       1.4271e+7 
           7970      1.45328e+7 
           7990      1.41226e+7 
           8010      1.42776e+7 
           8030      1.40781e+7 
           8050      1.40227e+7 
           8070      1.39256e+7 
           8090      1.38343e+7 
           8110      1.37742e+7 
           8130      1.37327e+7 
           8150      1.36263e+7 
           8170      1.35286e+7 
           8190      1.31262e+7 
           8210      1.29427e+7 
           8230      1.28821e+7 
           8250      1.29011e+7 
           8270      1.30977e+7 
           8290      1.29638e+7 
           8310      1.27689e+7 
           8330      1.26241e+7 
           8350      1.26474e+7 
           8370      1.26516e+7 
           8390      1.24945e+7 
           8410      1.24351e+7 
           8430      1.22553e+7 
           8450      1.18866e+7 
           8470      1.19755e+7 
           8490      1.19202e+7 
           8510       1.1215e+7 
           8530      1.17884e+7 
           8550      9.91419e+6 
           8570      1.19572e+7 
           8590      1.12016e+7 
           8610      1.09428e+7 
           8630      1.18805e+7 
           8650       1.1366e+7 
           8670      9.08284e+6 
           8690      1.12007e+7 
           8710      1.19016e+7 
           8730      1.13519e+7 
           8750      9.13549e+6 
           8770        1.094e+7 
           8790      1.18171e+7 
           8810      1.18762e+7 
           8830      1.13542e+7 
           8850      1.01813e+7 
           8870      8.67833e+6 
           8890      1.08702e+7 
           8910      1.14488e+7 
           8930      1.14684e+7 
           8950      1.16599e+7 
           8970      1.13092e+7 
           8990       1.0701e+7 
           9010       8.4771e+6 
           9030      9.30124e+6 
           9050      1.07353e+7 
           9070      1.07961e+7 
           9090      1.07003e+7 
           9110      1.09648e+7 
           9130      1.10519e+7 
           9150      1.10469e+7 
           9170      1.08191e+7 
           9190      1.04223e+7 
           9210      9.49684e+6 
           9230      7.39017e+6 
           9250       9.0349e+6 
           9270      9.72063e+6 
           9290      1.04039e+7 
           9310      1.04731e+7 
           9330      1.03672e+7 
           9350      1.04065e+7 
           9370      1.03875e+7 
           9390      1.01788e+7 
