# Kurucz ODFNEW /NOVER (2003)
# teff = 27000 K (value for the effective temperature for the model. Temperatures are given in K)
# logg = 4 log(cm/s2) (value for Log(G) for the model.)
# meta = 0.2  (value for the Metallicity for the model.)
# lh = 1.25  (l/Hp where l is the  mixing length of the convective element and Hp is the pressure scale height)
# vtur = 2 km/s (Microturbulence velocity)
# alpha = 0.4  (Alpha)
#
# column 1: WAVELENGTH (ANGSTROM), Wavelength in Angstrom
# column 2: FLUX (ERG/CM2/S/A), Flux in erg/cm2/s/A
          147.2     3.37699e-12 
            151     1.25077e-11 
          155.2     4.96033e-11 
          158.8     1.53187e-10 
            162     4.01836e-10 
            166      1.27862e-9 
          170.3      4.17633e-9 
          173.4      9.55432e-9 
          176.8      2.28822e-8 
          180.2      5.31518e-8 
          181.7      7.62647e-8 
          186.1      2.14106e-7 
            191       6.4288e-7 
          193.9      1.20222e-6 
          198.4      3.07068e-6 
          201.8      6.07742e-6 
            205       1.1331e-5 
          210.5      3.17553e-5 
          216.2       8.7641e-5 
          219.8     0.000162218 
            223     0.000275966 
          226.8     0.000519229 
            230       0.0173958 
            234       0.0379537 
            240        0.082972 
          246.5        0.187608 
          252.4         0.38281 
          256.8        0.613884 
            260        0.951242 
            264         1.42684 
          268.5         2.35081 
          273.5         3.91681 
          278.5         6.31815 
            284         12.0334 
            290         20.4769 
            296         34.2443 
            301         51.3985 
            308          97.411 
            318         220.422 
            328         431.587 
            338         878.411 
            348         1651.43 
            357         10373.5 
            366         25691.8 
            375         37157.2 
            385         62975.9 
            395          170122 
            405          242356 
            414          390256 
            422          507520 
            430          696450 
            441          989859 
            451      1.27598e+6 
            460      1.57966e+6 
            470      2.15583e+6 
            480       2.8065e+6 
            490      3.63989e+6 
            500       4.5961e+6 
            506      1.62103e+7 
            512      1.24832e+8 
            520      1.26907e+8 
            530      1.35014e+8 
            540      1.32088e+8 
            550      2.00843e+8 
            560      2.43156e+8 
            570       2.7192e+8 
            580      2.47439e+8 
            590      3.17368e+8 
            600      3.10488e+8 
            610      3.78977e+8 
            620      4.16686e+8 
            630      4.25546e+8 
            640      3.73814e+8 
            650      2.96738e+8 
            658      3.97713e+8 
            665      4.91058e+8 
            675      5.16089e+8 
            685      4.86414e+8 
            695      6.78499e+8 
            705      6.13932e+8 
            716       7.5492e+8 
            726      7.38555e+8 
            735      7.84526e+8 
            745      8.73226e+8 
            755      9.02128e+8 
            765       9.6264e+8 
            775      1.02151e+9 
            785      1.08209e+9 
            795      1.08848e+9 
            805      1.10526e+9 
            815      1.11375e+9 
            825      1.21472e+9 
            835      9.36819e+8 
            845       1.2027e+9 
            855      1.20544e+9 
            865      1.27385e+9 
            875      1.33194e+9 
            885      1.42597e+9 
            895      1.47512e+9 
            905      1.43774e+9 
            915      1.90681e+9 
            925     1.14561e+10 
            935      2.2838e+10 
            945     3.58992e+10 
            955     4.12086e+10 
            965     4.58358e+10 
            975      9.34824e+9 
            985     3.41552e+10 
            995     3.35684e+10 
           1005     3.86865e+10 
           1015     4.10107e+10 
           1025     2.67609e+10 
           1035     3.47605e+10 
           1045     4.85701e+10 
           1055     4.44449e+10 
           1065     3.39321e+10 
           1075     3.92206e+10 
           1085     3.62929e+10 
           1095     4.00915e+10 
           1105     3.56605e+10 
           1115      3.3545e+10 
           1125     2.35421e+10 
           1135     3.52391e+10 
           1145     3.22355e+10 
           1155     3.21937e+10 
           1165     3.22318e+10 
           1175     1.76614e+10 
           1185     2.95835e+10 
           1195     2.75366e+10 
           1205     1.85183e+10 
           1215     1.78348e+10 
           1225     2.61467e+10 
           1235     2.93608e+10 
           1245     2.80865e+10 
           1255     2.78106e+10 
           1265     2.85615e+10 
           1275     2.96332e+10 
           1285     2.93699e+10 
           1295     1.99208e+10 
           1305     2.21323e+10 
           1315     2.87162e+10 
           1325      2.6793e+10 
           1335     2.61394e+10 
           1345     2.58147e+10 
           1355     2.57367e+10 
           1365     2.34907e+10 
           1375      2.2407e+10 
           1385     2.08159e+10 
           1395     1.15919e+10 
           1405     1.39903e+10 
           1415     1.90093e+10 
           1425     1.84444e+10 
           1435     1.95863e+10 
           1442      2.0047e+10 
           1447     1.97558e+10 
           1455     1.88274e+10 
           1465     1.73237e+10 
           1475     1.79358e+10 
           1485     1.76524e+10 
           1495     1.71642e+10 
           1505     1.54293e+10 
           1512     1.40711e+10 
           1517     1.45056e+10 
           1525     1.47836e+10 
           1535     1.22301e+10 
           1545     1.13974e+10 
           1555     1.11505e+10 
           1565     1.23943e+10 
           1575     1.33418e+10 
           1585     1.33219e+10 
           1595     1.32486e+10 
           1605     1.33261e+10 
           1615     1.28255e+10 
           1625     1.27187e+10 
           1635     1.34777e+10 
           1645     1.35819e+10 
           1655      1.3323e+10 
           1665     1.34075e+10 
           1672     1.25614e+10 
           1677     1.44204e+10 
           1685     1.37146e+10 
           1695     1.29006e+10 
           1705     1.26299e+10 
           1715     1.18773e+10 
           1725     1.15308e+10 
           1735     1.20264e+10 
           1745     1.18698e+10 
           1755      1.1816e+10 
           1765     1.17756e+10 
           1775     1.08792e+10 
           1785     1.11263e+10 
           1795     1.13558e+10 
           1805     1.14461e+10 
           1815     1.02699e+10 
           1825      1.0627e+10 
           1835     1.03118e+10 
           1845      9.35176e+9 
           1855      9.64852e+9 
           1865      9.75101e+9 
           1875      9.93714e+9 
           1885      8.91211e+9 
           1895      8.32313e+9 
           1905      9.01705e+9 
           1915      8.46916e+9 
           1925      7.94536e+9 
           1935      8.54281e+9 
           1945      8.74349e+9 
           1955      7.75474e+9 
           1967      8.48152e+9 
           1976      8.91416e+9 
           1984      8.22597e+9 
           1995      8.11014e+9 
           2005       8.4072e+9 
           2015      8.32767e+9 
           2025      8.47429e+9 
           2035       7.7415e+9 
           2045      7.87713e+9 
           2055      7.29047e+9 
           2065       7.2385e+9 
           2074        7.587e+9 
           2078      6.96063e+9 
           2085      7.39728e+9 
           2095      7.08915e+9 
           2105       7.3901e+9 
           2115      7.44056e+9 
           2125      7.45162e+9 
           2135      7.32379e+9 
           2145      6.95017e+9 
           2155      7.24357e+9 
           2165      7.15695e+9 
           2175      7.07433e+9 
           2185      6.84386e+9 
           2195      6.93451e+9 
           2205      6.92204e+9 
           2215      6.78258e+9 
           2225      6.60662e+9 
           2235      6.48767e+9 
           2245      6.53465e+9 
           2255      6.31761e+9 
           2265      6.38025e+9 
           2275      6.28032e+9 
           2285      6.20007e+9 
           2295      5.46824e+9 
           2305      5.97765e+9 
           2315      5.82806e+9 
           2325      5.77866e+9 
           2335      5.62148e+9 
           2345      5.69051e+9 
           2355      5.62225e+9 
           2365      5.57339e+9 
           2375      5.42878e+9 
           2385      5.37454e+9 
           2395      5.29737e+9 
           2405      5.23316e+9 
           2415      5.14818e+9 
           2425      5.13291e+9 
           2435      4.98892e+9 
           2445      4.98336e+9 
           2455      4.96303e+9 
           2465      4.88546e+9 
           2475      4.78856e+9 
           2485      4.60466e+9 
           2495      3.37433e+9 
           2505      4.35672e+9 
           2513      4.32079e+9 
           2518      4.44239e+9 
           2525      4.47564e+9 
           2535       4.4591e+9 
           2545      4.23596e+9 
           2555      4.30831e+9 
           2565      4.22531e+9 
           2575      4.25158e+9 
           2585      4.19327e+9 
           2595      4.15313e+9 
           2605      4.11986e+9 
           2615      4.04412e+9 
           2625      4.01888e+9 
           2635       3.9727e+9 
           2645      3.91499e+9 
           2655      3.88203e+9 
           2665      3.71397e+9 
           2675       3.7239e+9 
           2685      3.72845e+9 
           2695      3.58548e+9 
           2705      3.50532e+9 
           2715      3.51486e+9 
           2725      3.50671e+9 
           2735      3.46893e+9 
           2745       3.4122e+9 
           2755      3.39259e+9 
           2765      3.34326e+9 
           2775      3.36925e+9 
           2785      3.30216e+9 
           2795      3.16588e+9 
           2805      3.20889e+9 
           2815      3.21604e+9 
           2825      3.17183e+9 
           2835      3.05931e+9 
           2845       3.0957e+9 
           2855      3.02732e+9 
           2865      3.02183e+9 
           2875      2.98075e+9 
           2885      2.94935e+9 
           2895      2.89983e+9 
           2910      2.82094e+9 
           2930      2.80587e+9 
           2950      2.72146e+9 
           2970      2.67758e+9 
           2990      2.60678e+9 
           3010      2.48934e+9 
           3030       2.4769e+9 
           3050      2.45019e+9 
           3070      2.42273e+9 
           3090      2.30352e+9 
           3110      2.31185e+9 
           3130      2.23994e+9 
           3150      2.21083e+9 
           3170       2.1504e+9 
           3190      2.11183e+9 
           3210      2.08036e+9 
           3230       2.0211e+9 
           3250      1.99755e+9 
           3270      1.94507e+9 
           3290      1.90792e+9 
           3310      1.87091e+9 
           3330      1.82638e+9 
           3350      1.79625e+9 
           3370      1.75439e+9 
           3390      1.73402e+9 
           3410      1.70039e+9 
           3430      1.66838e+9 
           3450      1.62789e+9 
           3470      1.59704e+9 
           3490      1.56329e+9 
           3510      1.53785e+9 
           3530      1.52041e+9 
           3550      1.48823e+9 
           3570       1.4638e+9 
           3590      1.42097e+9 
           3610      1.40009e+9 
           3630      1.37521e+9 
           3640       1.3721e+9 
           3650      1.34944e+9 
           3670      1.33455e+9 
           3690      1.30695e+9 
           3710      1.25277e+9 
           3730      1.20818e+9 
           3750      1.24679e+9 
           3770      1.22655e+9 
           3790      1.27564e+9 
           3810      1.31299e+9 
           3830      1.16615e+9 
           3850      1.30885e+9 
           3870       1.2773e+9 
           3890      1.10461e+9 
           3910      1.28767e+9 
           3930      1.24025e+9 
           3950      1.21906e+9 
           3970      1.02302e+9 
           3990       1.1883e+9 
           4010      1.17924e+9 
           4030      1.12338e+9 
           4050      1.13544e+9 
           4070      1.07266e+9 
           4090      1.01114e+9 
           4110      9.21612e+8 
           4130       1.0312e+9 
           4150      1.02393e+9 
           4170      1.02427e+9 
           4190      1.01036e+9 
           4210      1.00216e+9 
           4230      9.77653e+8 
           4250      9.45072e+8 
           4270      9.18987e+8 
           4290      9.00858e+8 
           4310       8.7173e+8 
           4330      8.20655e+8 
           4350      7.60168e+8 
           4370      8.34443e+8 
           4390      8.34852e+8 
           4410       8.2412e+8 
           4430      8.20727e+8 
           4450      8.03493e+8 
           4470      7.74693e+8 
           4490      7.82102e+8 
           4510      7.75551e+8 
           4530      7.65542e+8 
           4550       7.5446e+8 
           4570       7.4098e+8 
           4590      7.26865e+8 
           4610      7.07791e+8 
           4630      6.98632e+8 
           4650      6.70072e+8 
           4670      6.76748e+8 
           4690      6.71862e+8 
           4710      6.43582e+8 
           4730      6.53003e+8 
           4750      6.40987e+8 
           4770       6.4208e+8 
           4790      6.30457e+8 
           4810      6.15863e+8 
           4830      6.03296e+8 
           4850      5.72449e+8 
           4870      5.17594e+8 
           4890      5.78972e+8 
           4910      5.72483e+8 
           4930      5.54425e+8 
           4950      5.52152e+8 
           4970      5.52079e+8 
           4990      5.42745e+8 
           5010      5.19059e+8 
           5030      5.24499e+8 
           5050      5.13646e+8 
           5070       5.1246e+8 
           5090       5.0274e+8 
           5110      4.94528e+8 
           5130      4.84738e+8 
           5150      4.79589e+8 
           5170      4.74391e+8 
           5190      4.68882e+8 
           5210      4.60806e+8 
           5230      4.56008e+8 
           5250      4.49793e+8 
           5270      4.42004e+8 
           5290      4.37551e+8 
           5310      4.31001e+8 
           5330      4.25412e+8 
           5350      4.18973e+8 
           5370      4.14212e+8 
           5390      4.07655e+8 
           5410      4.02768e+8 
           5430      3.97085e+8 
           5450      3.91169e+8 
           5470      3.86048e+8 
           5490      3.81278e+8 
           5510      3.77038e+8 
           5530       3.7099e+8 
           5550      3.67184e+8 
           5570      3.62038e+8 
           5590      3.57487e+8 
           5610      3.52536e+8 
           5630      3.48479e+8 
           5650      3.42098e+8 
           5670      3.36291e+8 
           5690      3.30463e+8 
           5710      3.28568e+8 
           5730      3.25453e+8 
           5750      3.19683e+8 
           5770      3.17923e+8 
           5790       3.1345e+8 
           5810      3.09532e+8 
           5830      3.04707e+8 
           5850      3.01549e+8 
           5870       2.9039e+8 
           5890       2.9157e+8 
           5910      2.89126e+8 
           5930      2.85315e+8 
           5950      2.81484e+8 
           5970      2.80225e+8 
           5990      2.75071e+8 
           6010      2.72899e+8 
           6030      2.68812e+8 
           6050      2.65905e+8 
           6070      2.63185e+8 
           6090      2.60047e+8 
           6110      2.56874e+8 
           6130      2.54008e+8 
           6150       2.4939e+8 
           6170      2.46855e+8 
           6190      2.44673e+8 
           6210      2.42064e+8 
           6230      2.39318e+8 
           6250      2.35793e+8 
           6270      2.33266e+8 
           6290      2.30785e+8 
           6310      2.27649e+8 
           6330      2.25489e+8 
           6350      2.21978e+8 
           6370      2.20197e+8 
           6390      2.17547e+8 
           6410         2.15e+8 
           6430      2.12835e+8 
           6450      2.10268e+8 
           6470      2.06756e+8 
           6490      2.04678e+8 
           6510       2.0248e+8 
           6530      1.99298e+8 
           6550      1.93333e+8 
           6570      1.72599e+8 
           6590      1.91539e+8 
           6610      1.91348e+8 
           6630      1.89552e+8 
           6650       1.8711e+8 
           6670      1.83729e+8 
           6690      1.81816e+8 
           6710      1.81311e+8 
           6730      1.78654e+8 
           6750      1.77556e+8 
           6770      1.75621e+8 
           6790      1.72226e+8 
           6810      1.71451e+8 
           6830       1.6931e+8 
           6850       1.6793e+8 
           6870      1.66051e+8 
           6890       1.6389e+8 
           6910      1.61617e+8 
           6930      1.60811e+8 
           6950      1.59177e+8 
           6970       1.5749e+8 
           6990      1.55719e+8 
           7010      1.54026e+8 
           7030      1.52328e+8 
           7050       1.5079e+8 
           7070      1.46909e+8 
           7090      1.47595e+8 
           7110      1.44917e+8 
           7130      1.43557e+8 
           7150      1.42962e+8 
           7170      1.41564e+8 
           7190      1.40158e+8 
           7210      1.38693e+8 
           7230      1.35282e+8 
           7250      1.35354e+8 
           7270      1.34425e+8 
           7290      1.31987e+8 
           7310      1.31639e+8 
           7330      1.30242e+8 
           7350      1.28976e+8 
           7370      1.27715e+8 
           7390      1.26418e+8 
           7410      1.25139e+8 
           7430      1.23798e+8 
           7450      1.22571e+8 
           7470      1.20268e+8 
           7490      1.19956e+8 
           7510       1.1889e+8 
           7530      1.17542e+8 
           7550      1.16609e+8 
           7570      1.15468e+8 
           7590      1.14265e+8 
           7610      1.12833e+8 
           7630      1.12028e+8 
           7650      1.10896e+8 
           7670      1.09883e+8 
           7690      1.08777e+8 
           7710        1.077e+8 
           7730      1.06526e+8 
           7750      1.05663e+8 
           7770      1.04115e+8 
           7790      1.03649e+8 
           7810      1.02607e+8 
           7830      1.01665e+8 
           7850      1.00677e+8 
           7870       9.9418e+7 
           7890      9.82429e+7 
           7910      9.77226e+7 
           7930      9.67451e+7 
           7950      9.57821e+7 
           7970      9.48809e+7 
           7990      9.39167e+7 
           8010      9.31077e+7 
           8030      9.22355e+7 
           8050      9.14522e+7 
           8070      9.06466e+7 
           8090      8.96867e+7 
           8110      8.81337e+7 
           8130      8.81337e+7 
           8150      8.72536e+7 
           8170      8.65956e+7 
           8190      8.50443e+7 
           8210       8.4446e+7 
           8230      8.35188e+7 
           8250      8.33523e+7 
           8270      8.14349e+7 
           8290      8.16564e+7 
           8310      8.10674e+7 
           8330      8.03691e+7 
           8350      7.92335e+7 
           8370      7.86295e+7 
           8390      7.81694e+7 
           8410      7.73613e+7 
           8430      7.67243e+7 
           8450      7.53696e+7 
           8470      7.52609e+7 
           8490      7.44939e+7 
           8510      7.35979e+7 
           8530      7.32998e+7 
           8550      7.16947e+7 
           8570      7.26941e+7 
