# Kurucz ODFNEW /NOVER (2003)
# teff = 8000 K (value for the effective temperature for the model. Temperatures are given in K)
# logg = 4 log(cm/s2) (value for Log(G) for the model.)
# meta = 0  (value for the Metallicity for the model.)
# lh = 1.25  (l/Hp where l is the  mixing length of the convective element and Hp is the pressure scale height)
# vtur = 2 km/s (Microturbulence velocity)
# alpha = 0.4  (Alpha)
#
# column 1: WAVELENGTH (ANGSTROM), Wavelength in Angstrom
# column 2: FLUX (ERG/CM2/S/A), Flux in erg/cm2/s/A
            328     3.82668e-25 
            338     4.02075e-24 
            348     3.66669e-23 
            357     2.39504e-22 
            366      1.4215e-21 
            375     7.69908e-21 
            385     4.56244e-20 
            395     2.45511e-19 
            405     1.20988e-18 
            414     4.74066e-18 
            422     1.51418e-17 
            430     4.61814e-17 
            441     1.99444e-16 
            451     7.05299e-16 
            460     2.09053e-15 
            470     6.63566e-15 
            480     1.99941e-14 
            490     5.74148e-14 
            500     1.57382e-13 
            506     3.73557e-13 
            512     7.43732e-13 
            520     1.55011e-12 
            530      3.7795e-12 
            540     8.73299e-12 
            550     1.98141e-11 
            560     4.32446e-11 
            570     9.15584e-11 
            580     1.86114e-10 
            590     3.77141e-10 
            600     7.35941e-10 
            610      1.40375e-9 
            620      2.61241e-9 
            630      4.75748e-9 
            640      8.48478e-9 
            650       1.4848e-8 
            658      2.29093e-8 
            665      3.30689e-8 
            675      5.53057e-8 
            685      9.09899e-8 
            695      1.47151e-7 
            705      2.32575e-7 
            716      3.84022e-7 
            726      5.93181e-7 
            735      8.67233e-7 
            745      1.30471e-6 
            755      1.94159e-6 
            765      2.85606e-6 
            775      4.15295e-6 
            785      5.98359e-6 
            795      8.40574e-6 
            805      1.19014e-5 
            815      1.67157e-5 
            825      2.31249e-5 
            835      3.16826e-5 
            845      4.30448e-5 
            855      5.79865e-5 
            865      7.74883e-5 
            875     0.000102131 
            885     0.000135194 
            895     0.000176658 
            905     0.000228114 
            915        0.128387 
            925        0.400063 
            935        0.524915 
            945         0.69404 
            955        0.949274 
            965         1.22774 
            975         1.50616 
            985         1.92289 
            995         2.35172 
           1005         3.09671 
           1015         3.86228 
           1025         4.52703 
           1035         5.86569 
           1045         7.23497 
           1055         8.87579 
           1065         10.6649 
           1075         13.1285 
           1085         15.9927 
           1095         18.9724 
           1105         56.7304 
           1115         178.455 
           1125          253.54 
           1135         350.549 
           1145          435.86 
           1155         472.569 
           1165         631.257 
           1175         736.091 
           1185         763.265 
           1195         387.064 
           1205         428.847 
           1215         106.841 
           1225         489.896 
           1235         1110.11 
           1245         2260.07 
           1255         4317.85 
           1265         3916.26 
           1275         6032.77 
           1285         7997.62 
           1295         9399.67 
           1305         7453.07 
           1315         11332.2 
           1325         13158.7 
           1335         14487.9 
           1345         16911.6 
           1355         17475.2 
           1365           19095 
           1375         20721.2 
           1385         22463.6 
           1395         25327.3 
           1405         27851.7 
           1415         29252.5 
           1425         32090.1 
           1435         32595.7 
           1442         37119.2 
           1447         38977.2 
           1455           42705 
           1465         43861.7 
           1475         47398.9 
           1485         51679.3 
           1495           57333 
           1505           62400 
           1512         63901.5 
           1517         68480.5 
           1525           77438 
           1535          122667 
           1545          202283 
           1555          218728 
           1565          212573 
           1575          302295 
           1585          369678 
           1595          432864 
           1605          455288 
           1615          491309 
           1625          485409 
           1635          650519 
           1645      1.15102e+6 
           1655          680844 
           1665      1.26197e+6 
           1672          740553 
           1677      2.05275e+6 
           1685      3.40741e+6 
           1695      2.74959e+6 
           1705       5.1539e+6 
           1715      9.71442e+6 
           1725      1.03778e+7 
           1735      1.41044e+7 
           1745      1.32194e+7 
           1755      1.72548e+7 
           1765      1.05195e+7 
           1775      1.57573e+7 
           1785      1.57515e+7 
           1795      2.07118e+7 
           1805      1.53443e+7 
           1815      1.66566e+7 
           1825      1.45189e+7 
           1835       1.4191e+7 
           1845       1.1822e+7 
           1855      1.48337e+7 
           1865      1.77716e+7 
           1875      1.68025e+7 
           1885      1.75852e+7 
           1895      1.87713e+7 
           1905      1.66615e+7 
           1915      1.89894e+7 
           1925      1.83016e+7 
           1935      1.27621e+7 
           1945      2.01877e+7 
           1955       2.0581e+7 
           1967      2.28067e+7 
           1976      2.16298e+7 
           1984      2.03369e+7 
           1995      2.03773e+7 
           2005      1.90257e+7 
           2015      1.82184e+7 
           2025      1.68933e+7 
           2035      2.04693e+7 
           2045      2.22865e+7 
           2055      2.05001e+7 
           2065      2.02808e+7 
           2074      2.40096e+7 
           2078       2.5834e+7 
           2085      2.45108e+7 
           2095      2.27332e+7 
           2105      2.07969e+7 
           2115      2.14724e+7 
           2125      2.17096e+7 
           2135      1.72487e+7 
           2145      2.14696e+7 
           2155      2.14371e+7 
           2165      1.95027e+7 
           2175      1.94392e+7 
           2185      2.09874e+7 
           2195      2.27592e+7 
           2205      2.14569e+7 
           2215      1.83457e+7 
           2225      1.83151e+7 
           2235      2.22377e+7 
           2245      1.99083e+7 
           2255      1.79281e+7 
           2265      1.79023e+7 
           2275      1.97528e+7 
           2285      2.10594e+7 
           2295      1.85546e+7 
           2305      1.97631e+7 
           2315      1.90149e+7 
           2325      1.83862e+7 
           2335      1.53643e+7 
           2345      1.23103e+7 
           2355      1.78976e+7 
           2365      1.29523e+7 
           2375      1.57274e+7 
           2385      1.09259e+7 
           2395      1.31894e+7 
           2405      1.28468e+7 
           2415      1.35371e+7 
           2425      1.73783e+7 
           2435      1.65853e+7 
           2445       1.8319e+7 
           2455      1.81319e+7 
           2465      1.81246e+7 
           2475      1.63967e+7 
           2485      1.67457e+7 
           2495      1.57881e+7 
           2505      2.00233e+7 
           2513      1.53336e+7 
           2518      1.50452e+7 
           2525      1.32129e+7 
           2535      1.16831e+7 
           2545      1.13902e+7 
           2555      1.45018e+7 
           2565       1.4397e+7 
           2575      1.75421e+7 
           2585      1.78301e+7 
           2595      1.71911e+7 
           2605      1.57714e+7 
           2615      1.47447e+7 
           2625      1.86314e+7 
           2635       1.9538e+7 
           2645      2.41605e+7 
           2655      2.52016e+7 
           2665       2.0345e+7 
           2675      2.26697e+7 
           2685      2.25837e+7 
           2695      2.03541e+7 
           2705      2.18427e+7 
           2715      1.94686e+7 
           2725      1.99013e+7 
           2735      2.19166e+7 
           2745      1.54986e+7 
           2755      1.68873e+7 
           2765      1.80707e+7 
           2775      2.04357e+7 
           2785      1.58439e+7 
           2795      5.98849e+6 
           2805       8.0014e+6 
           2815      1.98876e+7 
           2825      2.35168e+7 
           2835      2.27873e+7 
           2845      2.14759e+7 
           2855      1.84801e+7 
           2865       2.2996e+7 
           2875      2.24558e+7 
           2885      2.25787e+7 
           2895      2.15222e+7 
           2910      2.54721e+7 
           2930      2.38393e+7 
           2950      2.38202e+7 
           2970      2.51956e+7 
           2990      2.51791e+7 
           3010      2.57433e+7 
           3030       2.5533e+7 
           3050      2.54001e+7 
           3070      2.55423e+7 
           3090      2.61494e+7 
           3110      2.51984e+7 
           3130      2.51946e+7 
           3150       2.5957e+7 
           3170      2.57767e+7 
           3190      2.38308e+7 
           3210       2.4942e+7 
           3230      2.34941e+7 
           3250      2.48458e+7 
           3270      2.55677e+7 
           3290      2.57683e+7 
           3310      2.62732e+7 
           3330      2.55114e+7 
           3350      2.50573e+7 
           3370        2.472e+7 
           3390       2.5053e+7 
           3410      2.53266e+7 
           3430      2.56498e+7 
           3450      2.53888e+7 
           3470      2.50387e+7 
           3490      2.49839e+7 
           3510      2.55605e+7 
           3530      2.53524e+7 
           3550      2.62113e+7 
           3570      2.47931e+7 
           3590       2.4624e+7 
           3610      2.48124e+7 
           3630      2.49432e+7 
           3640      2.44847e+7 
           3650      2.58062e+7 
           3670      2.55761e+7 
           3690      2.44491e+7 
           3710      2.52845e+7 
           3730      2.55142e+7 
           3750      3.13519e+7 
           3770      3.36946e+7 
           3790      4.11084e+7 
           3810      4.76488e+7 
           3830      3.75191e+7 
           3850      5.22529e+7 
           3870      5.85158e+7 
           3890      3.49914e+7 
           3910      5.77116e+7 
           3930      4.44102e+7 
           3950      5.60754e+7 
           3970      3.07772e+7 
           3990      5.74272e+7 
           4010      6.57281e+7 
           4030      6.57454e+7 
           4050       6.4907e+7 
           4070      6.16735e+7 
           4090      4.93948e+7 
           4110      3.81745e+7 
           4130      5.88984e+7 
           4150      6.32166e+7 
           4170      6.27438e+7 
           4190      6.23823e+7 
           4210      6.24521e+7 
           4230      6.04943e+7 
           4250      6.09087e+7 
           4270       5.8517e+7 
           4290       5.8116e+7 
           4310      5.27572e+7 
           4330      4.19189e+7 
           4350      3.58702e+7 
           4370      5.40685e+7 
           4390       5.5518e+7 
           4410       5.5035e+7 
           4430      5.41994e+7 
           4450      5.49994e+7 
           4470      5.50984e+7 
           4490      5.42723e+7 
           4510      5.57553e+7 
           4530       5.3241e+7 
           4550      5.26575e+7 
           4570      5.41981e+7 
           4590      5.22015e+7 
           4610      5.32652e+7 
           4630      5.17059e+7 
           4650      5.19468e+7 
           4670      5.18655e+7 
           4690      4.98005e+7 
           4710      4.77804e+7 
           4730      4.99855e+7 
           4750      4.97675e+7 
           4770      4.88759e+7 
           4790      4.81763e+7 
           4810      4.68907e+7 
           4830      4.46994e+7 
           4850      3.48181e+7 
           4870       2.7955e+7 
           4890      4.18541e+7 
           4910      4.43126e+7 
           4930      4.40189e+7 
           4950      4.47709e+7 
           4970      4.49878e+7 
           4990      4.32919e+7 
           5010      4.16712e+7 
           5030      4.27818e+7 
           5050      4.20345e+7 
           5070      4.26796e+7 
           5090       4.2134e+7 
           5110      4.20328e+7 
           5130      4.11073e+7 
           5150      4.02233e+7 
           5170      3.92643e+7 
           5190      3.87218e+7 
           5210      3.90454e+7 
           5230      3.86675e+7 
           5250      3.91949e+7 
           5270      3.62895e+7 
           5290      3.82503e+7 
           5310      3.77663e+7 
           5330      3.59226e+7 
           5350      3.72274e+7 
           5370      3.68618e+7 
           5390      3.64098e+7 
           5410      3.54267e+7 
           5430      3.57182e+7 
           5450      3.58522e+7 
           5470       3.5408e+7 
           5490      3.49567e+7 
           5510       3.4794e+7 
           5530      3.44565e+7 
           5550      3.44777e+7 
           5570      3.38663e+7 
           5590      3.33363e+7 
           5610      3.33109e+7 
           5630      3.33456e+7 
           5650      3.28975e+7 
           5670      3.22663e+7 
           5690      3.22842e+7 
           5710      3.19186e+7 
           5730       3.2162e+7 
           5750      3.14977e+7 
           5770      3.14178e+7 
           5790      3.10629e+7 
           5810      3.08996e+7 
           5830      3.07013e+7 
           5850      3.02848e+7 
           5870      3.00613e+7 
           5890      2.94024e+7 
           5910      2.95737e+7 
           5930      2.93189e+7 
           5950      2.90093e+7 
           5970      2.88385e+7 
           5990      2.84657e+7 
           6010      2.80992e+7 
           6030      2.78997e+7 
           6050      2.77258e+7 
           6070      2.76855e+7 
           6090      2.73364e+7 
           6110      2.69973e+7 
           6130      2.64585e+7 
           6150      2.58952e+7 
           6170      2.58216e+7 
           6190      2.62361e+7 
           6210      2.60049e+7 
           6230      2.56159e+7 
           6250      2.49256e+7 
           6270      2.54127e+7 
           6290       2.5219e+7 
           6310      2.47661e+7 
           6330      2.46117e+7 
           6350      2.41243e+7 
           6370      2.40371e+7 
           6390      2.40788e+7 
           6410      2.36189e+7 
           6430      2.35934e+7 
           6450      2.29737e+7 
           6470      2.30308e+7 
           6490      2.26216e+7 
           6510      2.24099e+7 
           6530      2.16067e+7 
           6550      1.86799e+7 
           6570       1.4975e+7 
           6590      2.03623e+7 
           6610      2.14369e+7 
           6630      2.16146e+7 
           6650      2.15615e+7 
           6670      2.13909e+7 
           6690      2.13128e+7 
           6710      2.11358e+7 
           6730      2.09613e+7 
           6750      2.05941e+7 
           6770      2.07036e+7 
           6790      2.05099e+7 
           6810      2.03482e+7 
           6830      2.01597e+7 
           6850      1.99916e+7 
           6870      1.98969e+7 
           6890      1.97371e+7 
           6910      1.95781e+7 
           6930      1.94064e+7 
           6950       1.9273e+7 
           6970      1.91006e+7 
           6990      1.89876e+7 
           7010      1.85535e+7 
           7030      1.86234e+7 
           7050      1.85225e+7 
           7070      1.83809e+7 
           7090      1.82549e+7 
           7110      1.77901e+7 
           7130      1.78698e+7 
           7150      1.77066e+7 
           7170      1.75552e+7 
           7190      1.74045e+7 
           7210       1.7332e+7 
           7230      1.71901e+7 
           7250      1.69871e+7 
           7270      1.70021e+7 
           7290      1.67403e+7 
           7310      1.67172e+7 
           7330      1.65679e+7 
           7350      1.65113e+7 
           7370      1.63989e+7 
           7390      1.61944e+7 
           7410      1.59562e+7 
           7430      1.58233e+7 
           7450      1.57629e+7 
           7470      1.56198e+7 
           7490       1.5554e+7 
           7510       1.5506e+7 
           7530      1.54138e+7 
           7550      1.53454e+7 
           7570       1.5179e+7 
           7590      1.51076e+7 
           7610      1.49717e+7 
           7630      1.48953e+7 
           7650       1.4728e+7 
           7670      1.45367e+7 
           7690      1.44376e+7 
           7710      1.44065e+7 
           7730       1.4332e+7 
           7750      1.41835e+7 
           7770       1.3778e+7 
           7790      1.40649e+7 
           7810      1.39152e+7 
           7830      1.37803e+7 
           7850      1.36313e+7 
           7870      1.35451e+7 
           7890      1.34057e+7 
           7910      1.33422e+7 
           7930      1.31228e+7 
           7950      1.30628e+7 
           7970      1.31563e+7 
           7990      1.28899e+7 
           8010      1.29448e+7 
           8030      1.28126e+7 
           8050      1.27415e+7 
           8070      1.26628e+7 
           8090       1.2572e+7 
           8110      1.25078e+7 
           8130      1.24498e+7 
           8150      1.23553e+7 
           8170      1.22672e+7 
           8190      1.19967e+7 
           8210      1.19015e+7 
           8230      1.18303e+7 
           8250      1.17946e+7 
           8270      1.18842e+7 
           8290      1.17858e+7 
           8310       1.1644e+7 
           8330      1.15084e+7 
           8350      1.15219e+7 
           8370      1.14879e+7 
           8390      1.13567e+7 
           8410      1.13022e+7 
           8430      1.11781e+7 
           8450      1.09179e+7 
           8470      1.09142e+7 
           8490      1.09391e+7 
           8510        1.034e+7 
           8530      1.08363e+7 
           8550      9.38029e+6 
           8570      1.09185e+7 
           8590      1.02831e+7 
           8610      1.00443e+7 
           8630      1.08456e+7 
           8650      1.04405e+7 
           8670      8.57414e+6 
           8690      1.03506e+7 
           8710      1.08414e+7 
           8730      1.04092e+7 
           8750      8.48844e+6 
           8770       1.0024e+7 
           8790      1.07055e+7 
           8810      1.07283e+7 
           8830      1.03932e+7 
           8850      9.42034e+6 
           8870      8.08841e+6 
           8890      9.95544e+6 
           8910      1.03887e+7 
           8930      1.04192e+7 
           8950      1.05067e+7 
           8970      1.02693e+7 
           8990      9.77342e+6 
           9010      7.88727e+6 
           9030      8.62393e+6 
           9050      9.77719e+6 
           9070      9.83166e+6 
           9090      9.75106e+6 
           9110      9.95023e+6 
           9130      1.00007e+7 
           9150      9.95342e+6 
           9170      9.78999e+6 
           9190      9.49941e+6 
           9210      8.75603e+6 
           9230      6.93558e+6 
           9250      8.38458e+6 
           9270      8.96659e+6 
           9290       9.4191e+6 
           9310      9.45865e+6 
           9330      9.40429e+6 
           9350      9.39427e+6 
           9370      9.35678e+6 
