# Kurucz ODFNEW /NOVER (2003)
# teff = 21000 K (value for the effective temperature for the model. Temperatures are given in K)
# logg = 4 log(cm/s2) (value for Log(G) for the model.)
# meta = -0.5  (value for the Metallicity for the model.)
# lh = 1.25  (l/Hp where l is the  mixing length of the convective element and Hp is the pressure scale height)
# vtur = 2 km/s (Microturbulence velocity)
# alpha = 0.4  (Alpha)
#
# column 1: WAVELENGTH (ANGSTROM), Wavelength in Angstrom
# column 2: FLUX (ERG/CM2/S/A), Flux in erg/cm2/s/A
          147.2     1.23175e-18 
            151     6.80727e-18 
          155.2     4.10183e-17 
          158.8     1.77896e-16 
            162     6.23016e-16 
            166     2.80127e-15 
          170.3     1.30534e-14 
          173.4     3.79153e-14 
          176.8     1.17124e-13 
          180.2     3.47597e-13 
          181.7     5.54741e-13 
          186.1     2.10124e-12 
            191     8.65153e-12 
          193.9     1.93539e-11 
          198.4     6.46055e-11 
          201.8     1.55342e-10 
            205     3.45946e-10 
          210.5      1.29716e-9 
          216.2      4.76843e-9 
          219.8      1.04935e-8 
            223      2.07217e-8 
          226.8      4.53753e-8 
            230      5.69481e-7 
            234      1.42371e-6 
            240      4.10184e-6 
          246.5      1.21168e-5 
          252.4      3.11208e-5 
          256.8      5.94518e-5 
            260      9.76487e-5 
            264     0.000173224 
          268.5      0.00032293 
          273.5     0.000628384 
          278.5      0.00119981 
            284      0.00239183 
            290      0.00487777 
            296      0.00964397 
            301       0.0166857 
            308       0.0344411 
            318       0.0951621 
            328         0.23879 
            338        0.579881 
            348         1.32053 
            357         2.77487 
            366         5.45059 
            375         10.1128 
            385         19.6367 
            395         36.5997 
            405         66.1243 
            414          110.32 
            422         168.492 
            430          254.46 
            441         439.063 
            451          704.54 
            460         1050.77 
            470         1614.65 
            480         2426.01 
            490         3590.78 
            500         5225.84 
            506         47914.4 
            512          199255 
            520          252286 
            530          355392 
            540          402336 
            550          595208 
            560          726261 
            570          928883 
            580          950458 
            590      1.30259e+6 
            600      1.62527e+6 
            610      2.00818e+6 
            620      2.33486e+6 
            630      2.75775e+6 
            640      3.04823e+6 
            650      3.23934e+6 
            658      4.14646e+6 
            665      4.56437e+6 
            675      5.07647e+6 
            685      5.73093e+6 
            695      6.87897e+6 
            705      7.62441e+6 
            716      8.80801e+6 
            726      9.70421e+6 
            735      1.07156e+7 
            745      1.22455e+7 
            755      1.36621e+7 
            765      1.51451e+7 
            775      1.68656e+7 
            785      1.86382e+7 
            795       2.0153e+7 
            805      2.20064e+7 
            815      2.37645e+7 
            825      2.62212e+7 
            835      2.70844e+7 
            845      3.00339e+7 
            855      3.23734e+7 
            865      3.51733e+7 
            875      3.81825e+7 
            885      4.16034e+7 
            895      4.45759e+7 
            905      4.61307e+7 
            915      7.29678e+7 
            925      4.01217e+8 
            935      1.38587e+9 
            945      4.69106e+9 
            955      7.77768e+9 
            965     1.03367e+10 
            975      1.92283e+9 
            985      1.1825e+10 
            995     1.11604e+10 
           1005     1.26421e+10 
           1015     1.14972e+10 
           1025      2.92563e+9 
           1035      8.23883e+9 
           1045     1.44734e+10 
           1055     1.36266e+10 
           1065     1.12199e+10 
           1075     1.30842e+10 
           1085     1.18149e+10 
           1095     1.31953e+10 
           1105     1.13942e+10 
           1115     1.07717e+10 
           1125      9.90711e+9 
           1135      1.2212e+10 
           1145     1.07068e+10 
           1155     1.13999e+10 
           1165     1.16178e+10 
           1175      8.65403e+9 
           1185     1.14028e+10 
           1195      8.83215e+9 
           1205      4.79206e+9 
           1215      2.30352e+9 
           1225      7.26659e+9 
           1235      1.0106e+10 
           1245     1.04384e+10 
           1255     1.01172e+10 
           1265      9.67046e+9 
           1275     1.01258e+10 
           1285     1.00295e+10 
           1295      6.64467e+9 
           1305      6.54986e+9 
           1315      9.52376e+9 
           1325       9.0134e+9 
           1335      8.39565e+9 
           1345      8.79939e+9 
           1355      8.72437e+9 
           1365      8.01409e+9 
           1375      7.93082e+9 
           1385      7.96224e+9 
           1395      6.53828e+9 
           1405      6.94956e+9 
           1415      7.26223e+9 
           1425      7.27309e+9 
           1435      7.33399e+9 
           1442      7.53037e+9 
           1447      7.38216e+9 
           1455      7.20849e+9 
           1465      6.83202e+9 
           1475      6.76135e+9 
           1485      6.57304e+9 
           1495      6.51827e+9 
           1505       6.0449e+9 
           1512      5.58434e+9 
           1517      5.77677e+9 
           1525      5.87767e+9 
           1535      5.30201e+9 
           1545      5.40278e+9 
           1555      5.12661e+9 
           1565      5.28142e+9 
           1575      5.50281e+9 
           1585       5.4222e+9 
           1595      5.45852e+9 
           1605      5.36176e+9 
           1615      5.29239e+9 
           1625      5.16682e+9 
           1635       5.3176e+9 
           1645      5.25328e+9 
           1655      5.05864e+9 
           1665      5.23356e+9 
           1672       5.0482e+9 
           1677      5.19965e+9 
           1685      5.15504e+9 
           1695       4.9356e+9 
           1705      4.72508e+9 
           1715      4.50747e+9 
           1725      4.45688e+9 
           1735      4.56822e+9 
           1745      4.45255e+9 
           1755      4.50469e+9 
           1765      4.27409e+9 
           1775      4.21758e+9 
           1785      4.19978e+9 
           1795      4.31587e+9 
           1805      4.29131e+9 
           1815      3.96545e+9 
           1825      4.08307e+9 
           1835      3.93889e+9 
           1845      3.65184e+9 
           1855      3.59275e+9 
           1865      3.63242e+9 
           1875      3.78516e+9 
           1885      3.45598e+9 
           1895      3.24409e+9 
           1905        3.463e+9 
           1915      3.29359e+9 
           1925       3.1829e+9 
           1935      3.29628e+9 
           1945      3.32551e+9 
           1955      3.08833e+9 
           1967      3.28065e+9 
           1976      3.39257e+9 
           1984      3.16725e+9 
           1995      3.09314e+9 
           2005      3.15739e+9 
           2015      3.10413e+9 
           2025      3.20428e+9 
           2035      2.98447e+9 
           2045      3.00021e+9 
           2055      2.89892e+9 
           2065      2.94132e+9 
           2074      3.01569e+9 
           2078      2.83815e+9 
           2085      2.91133e+9 
           2095      2.77168e+9 
           2105      2.82609e+9 
           2115      2.81131e+9 
           2125      2.84898e+9 
           2135      2.78078e+9 
           2145      2.67181e+9 
           2155      2.74401e+9 
           2165      2.70891e+9 
           2175      2.66989e+9 
           2185      2.61544e+9 
           2195      2.62685e+9 
           2205       2.5844e+9 
           2215      2.54285e+9 
           2225      2.47598e+9 
           2235      2.47537e+9 
           2245      2.46876e+9 
           2255      2.39772e+9 
           2265       2.4175e+9 
           2275      2.38647e+9 
           2285        2.382e+9 
           2295      2.28726e+9 
           2305      2.30163e+9 
           2315      2.24819e+9 
           2325      2.22471e+9 
           2335      2.14703e+9 
           2345       2.1254e+9 
           2355      2.13898e+9 
           2365      2.09136e+9 
           2375      2.07806e+9 
           2385      2.04378e+9 
           2395      2.04875e+9 
           2405      2.00368e+9 
           2415      1.98202e+9 
           2425      1.99126e+9 
           2435      1.93593e+9 
           2445      1.93468e+9 
           2455      1.93021e+9 
           2465       1.8899e+9 
           2475      1.86968e+9 
           2485      1.86003e+9 
           2495      1.77985e+9 
           2505       1.8197e+9 
           2513       1.7523e+9 
           2518      1.78908e+9 
           2525      1.75565e+9 
           2535      1.72905e+9 
           2545      1.68606e+9 
           2555      1.71542e+9 
           2565      1.68455e+9 
           2575      1.69393e+9 
           2585      1.68034e+9 
           2595      1.66423e+9 
           2605      1.65164e+9 
           2615      1.63501e+9 
           2625      1.61771e+9 
           2635      1.60014e+9 
           2645      1.60529e+9 
           2655      1.58927e+9 
           2665       1.5501e+9 
           2675      1.55027e+9 
           2685      1.54241e+9 
           2695      1.50562e+9 
           2705      1.50192e+9 
           2715      1.48372e+9 
           2725      1.45748e+9 
           2735      1.46064e+9 
           2745      1.41267e+9 
           2755      1.40779e+9 
           2765      1.39787e+9 
           2775      1.40587e+9 
           2785      1.38574e+9 
           2795      1.33229e+9 
           2805      1.35039e+9 
           2815      1.35065e+9 
           2825      1.32515e+9 
           2835      1.29037e+9 
           2845       1.2997e+9 
           2855      1.29033e+9 
           2865      1.28538e+9 
           2875      1.26948e+9 
           2885      1.25888e+9 
           2895      1.24589e+9 
           2910      1.22622e+9 
           2930        1.198e+9 
           2950      1.16982e+9 
           2970      1.15728e+9 
           2990      1.13068e+9 
           3010      1.11038e+9 
           3030      1.09438e+9 
           3050      1.07327e+9 
           3070      1.05349e+9 
           3090      1.02783e+9 
           3110      1.01266e+9 
           3130      9.95342e+8 
           3150      9.76782e+8 
           3170      9.57672e+8 
           3190      9.31967e+8 
           3210      9.23205e+8 
           3230      9.06463e+8 
           3250      8.90954e+8 
           3270      8.75826e+8 
           3290      8.59119e+8 
           3310      8.45639e+8 
           3330      8.30314e+8 
           3350      8.14152e+8 
           3370      8.01233e+8 
           3390      7.87742e+8 
           3410      7.74284e+8 
           3430      7.57564e+8 
           3450      7.42033e+8 
           3470      7.31251e+8 
           3490      7.18718e+8 
           3510      7.09022e+8 
           3530      6.98683e+8 
           3550      6.87275e+8 
           3570      6.79005e+8 
           3590      6.63071e+8 
           3610      6.52998e+8 
           3630      6.42163e+8 
           3640      6.41085e+8 
           3650      6.30677e+8 
           3670      6.23374e+8 
           3690      6.09137e+8 
           3710       5.8986e+8 
           3730      5.70284e+8 
           3750      6.15519e+8 
           3770      6.21914e+8 
           3790      6.62209e+8 
           3810       6.9423e+8 
           3830       6.0086e+8 
           3850      7.16123e+8 
           3870      7.23556e+8 
           3890      5.68551e+8 
           3910      7.17649e+8 
           3930      6.99119e+8 
           3950      6.94133e+8 
           3970      5.29471e+8 
           3990      6.65117e+8 
           4010      6.65012e+8 
           4030       6.2419e+8 
           4050      6.50081e+8 
           4070      6.30221e+8 
           4090      5.78783e+8 
           4110      5.02087e+8 
           4130      5.91325e+8 
           4150      5.89314e+8 
           4170      5.85972e+8 
           4190      5.79854e+8 
           4210      5.72424e+8 
           4230      5.62223e+8 
           4250      5.51501e+8 
           4270      5.36697e+8 
           4290       5.3236e+8 
           4310      5.20272e+8 
           4330      4.67172e+8 
           4350      4.23804e+8 
           4370      4.94385e+8 
           4390      4.78709e+8 
           4410      4.84566e+8 
           4430      4.76188e+8 
           4450      4.71632e+8 
           4470      4.43174e+8 
           4490      4.53998e+8 
           4510      4.51369e+8 
           4530      4.43299e+8 
           4550      4.36589e+8 
           4570      4.30053e+8 
           4590      4.23828e+8 
           4610      4.17038e+8 
           4630      4.10631e+8 
           4650      4.02455e+8 
           4670      3.98721e+8 
           4690       3.9418e+8 
           4710      3.80345e+8 
           4730      3.80116e+8 
           4750      3.74283e+8 
           4770      3.72029e+8 
           4790      3.66154e+8 
           4810      3.58653e+8 
           4830      3.51685e+8 
           4850      3.22684e+8 
           4870       2.8646e+8 
           4890      3.36506e+8 
           4910      3.34223e+8 
           4930      3.21736e+8 
           4950      3.26076e+8 
           4970      3.22283e+8 
           4990      3.17465e+8 
           5010      3.06741e+8 
           5030      3.08207e+8 
           5050      2.99936e+8 
           5070      3.00373e+8 
           5090      2.96055e+8 
           5110      2.91693e+8 
           5130      2.87233e+8 
           5150      2.83401e+8 
           5170      2.80367e+8 
           5190      2.76546e+8 
           5210      2.71013e+8 
           5230      2.69302e+8 
           5250      2.65723e+8 
           5270      2.62028e+8 
           5290      2.58826e+8 
           5310       2.5533e+8 
           5330      2.51667e+8 
           5350      2.47867e+8 
           5370      2.45488e+8 
           5390      2.42269e+8 
           5410      2.39014e+8 
           5430      2.35276e+8 
           5450      2.32525e+8 
           5470      2.29481e+8 
           5490      2.27012e+8 
           5510      2.24027e+8 
           5530      2.21091e+8 
           5550      2.18461e+8 
           5570      2.15583e+8 
           5590      2.13019e+8 
           5610      2.10006e+8 
           5630      2.07804e+8 
           5650      2.03904e+8 
           5670      2.01554e+8 
           5690      1.99465e+8 
           5710      1.97481e+8 
           5730      1.95141e+8 
           5750      1.92578e+8 
           5770      1.90464e+8 
           5790      1.88128e+8 
           5810      1.85775e+8 
           5830      1.83483e+8 
           5850      1.81328e+8 
           5870      1.73643e+8 
           5890      1.76148e+8 
           5910      1.74774e+8 
           5930      1.72719e+8 
           5950      1.70304e+8 
           5970      1.68731e+8 
           5990      1.66472e+8 
           6010      1.64793e+8 
           6030       1.6281e+8 
           6050      1.60933e+8 
           6070      1.59056e+8 
           6090      1.57129e+8 
           6110      1.55376e+8 
           6130      1.53602e+8 
           6150      1.51409e+8 
           6170      1.49994e+8 
           6190      1.48347e+8 
           6210      1.46641e+8 
           6230      1.44973e+8 
           6250       1.4314e+8 
           6270      1.41644e+8 
           6290       1.4004e+8 
           6310      1.38331e+8 
           6330      1.36941e+8 
           6350      1.34799e+8 
           6370      1.33518e+8 
           6390      1.32324e+8 
           6410      1.30812e+8 
           6430      1.29507e+8 
           6450      1.28017e+8 
           6470      1.26525e+8 
           6490      1.25192e+8 
           6510      1.23641e+8 
           6530      1.21772e+8 
           6550      1.15805e+8 
           6570      1.02201e+8 
           6590      1.16589e+8 
           6610      1.16928e+8 
           6630      1.15992e+8 
           6650      1.14827e+8 
           6670      1.12454e+8 
           6690      1.11303e+8 
           6710      1.11193e+8 
           6730      1.09992e+8 
           6750      1.08878e+8 
           6770      1.07735e+8 
           6790      1.06333e+8 
           6810      1.05433e+8 
           6830        1.043e+8 
           6850      1.03266e+8 
           6870      1.02195e+8 
           6890      1.01118e+8 
           6910       1.0006e+8 
           6930      9.89814e+7 
           6950      9.80226e+7 
           6970      9.70188e+7 
           6990      9.60018e+7 
           7010      9.50101e+7 
           7030      9.40358e+7 
           7050       9.3071e+7 
           7070      9.06685e+7 
           7090      9.12294e+7 
           7110      9.02623e+7 
           7130      8.93712e+7 
           7150      8.84593e+7 
           7170      8.75781e+7 
           7190      8.67272e+7 
           7210      8.58626e+7 
           7230      8.42928e+7 
           7250       8.4115e+7 
           7270       8.3325e+7 
           7290      8.18547e+7 
           7310      8.16753e+7 
           7330      8.08866e+7 
           7350      8.00984e+7 
           7370      7.93174e+7 
           7390      7.85369e+7 
           7410      7.77773e+7 
           7430      7.69702e+7 
           7450      7.62656e+7 
           7470      7.54797e+7 
           7490      7.47884e+7 
           7510      7.40633e+7 
           7530      7.33714e+7 
           7550      7.26858e+7 
           7570      7.19932e+7 
           7590      7.13004e+7 
           7610      7.06269e+7 
           7630      6.99659e+7 
           7650      6.93044e+7 
           7670      6.86489e+7 
           7690      6.80056e+7 
           7710      6.73681e+7 
           7730      6.67299e+7 
           7750      6.61099e+7 
           7770      6.51086e+7 
           7790      6.48865e+7 
           7810      6.42457e+7 
           7830      6.36906e+7 
           7850      6.30608e+7 
           7870      6.24852e+7 
           7890      6.18118e+7 
           7910      6.14274e+7 
           7930      6.08783e+7 
           7950      6.01611e+7 
           7970      5.96104e+7 
           7990      5.89548e+7 
           8010       5.8545e+7 
           8030      5.80137e+7 
           8050      5.75019e+7 
           8070      5.70368e+7 
           8090      5.64109e+7 
           8110      5.59698e+7 
           8130      5.55369e+7 
           8150      5.49657e+7 
           8170      5.45801e+7 
           8190      5.40033e+7 
           8210      5.33615e+7 
           8230      5.29779e+7 
           8250      5.26328e+7 
           8270      5.18949e+7 
           8290      5.16689e+7 
           8310      5.12247e+7 
           8330      5.07819e+7 
           8350      5.00942e+7 
           8370      4.97858e+7 
           8390      4.94497e+7 
           8410      4.90028e+7 
           8430      4.85049e+7 
           8450      4.76551e+7 
           8470      4.75453e+7 
           8490      4.71711e+7 
           8510      4.65194e+7 
           8530      4.64833e+7 
           8550      4.50632e+7 
           8570       4.6332e+7 
