# Kurucz ODFNEW /NOVER (2003)
# teff = 3500 K (value for the effective temperature for the model. Temperatures are given in K)
# logg = 4.5 log(cm/s2) (value for Log(G) for the model.)
# meta = -2.5  (value for the Metallicity for the model.)
# lh = 1.25  (l/Hp where l is the  mixing length of the convective element and Hp is the pressure scale height)
# vtur = 2 km/s (Microturbulence velocity)
# alpha = 0.4  (Alpha)
#
# column 1: WAVELENGTH (ANGSTROM), Wavelength in Angstrom
# column 2: FLUX (ERG/CM2/S/A), Flux in erg/cm2/s/A
          186.1     1.08777e-35 
            191     1.03267e-35 
          193.9     1.00201e-35 
          198.4     9.57076e-36 
          201.8     9.25097e-36 
            205     8.96441e-36 
          210.5     8.50208e-36 
          216.2     8.05969e-36 
          219.8     7.79784e-36 
            223     7.57565e-36 
          226.8     7.32392e-36 
            230     7.12154e-36 
            234     6.88015e-36 
            240     6.54044e-36 
          246.5     6.20006e-36 
          252.4     5.91358e-36 
          256.8     5.71267e-36 
            260     5.57292e-36 
            264     5.40532e-36 
          268.5     5.22566e-36 
          273.5     5.03634e-36 
          278.5     4.85712e-36 
            284     4.67082e-36 
            290     4.47954e-36 
            296     4.29978e-36 
            301     4.15812e-36 
            308     3.97126e-36 
            318     3.72542e-36 
            328     3.50172e-36 
            338     3.29759e-36 
            348     3.11079e-36 
            357     2.95592e-36 
            366     2.81234e-36 
            375     2.67896e-36 
            385     2.54161e-36 
            395     2.41455e-36 
            405     2.29678e-36 
            414     2.19801e-36 
            422     2.11546e-36 
            430     2.03748e-36 
            441      1.9371e-36 
            451     1.85215e-36 
            460     1.78038e-36 
            470     1.70543e-36 
            480     1.63511e-36 
            490     1.56905e-36 
            500     1.50692e-36 
            506     1.47139e-36 
            512     1.43711e-36 
            520     1.39323e-36 
            530     1.34115e-36 
            540     1.29194e-36 
            550     1.24539e-36 
            560     1.20131e-36 
            570     1.15952e-36 
            580     1.11989e-36 
            590     1.08224e-36 
            600     1.04647e-36 
            610     1.01244e-36 
            620     9.80045e-37 
            630      9.4918e-37 
            640      9.1975e-37 
            650     8.91667e-37 
            658     8.70117e-37 
            665     8.51895e-37 
            675     8.26841e-37 
            685     8.02876e-37 
            695     7.79938e-37 
            705     7.57969e-37 
            716     7.34858e-37 
            726     7.14754e-37 
            735     6.97357e-37 
            745     6.78761e-37 
            755       6.609e-37 
            765     6.43734e-37 
            775     6.27229e-37 
            785      6.1135e-37 
            795     5.96067e-37 
            805      5.8135e-37 
            815     5.67171e-37 
            825     5.53505e-37 
            835     5.40327e-37 
            845     5.27614e-37 
            855     5.15344e-37 
            865     5.03498e-37 
            875     4.92055e-37 
            885     4.80998e-37 
            895     4.70309e-37 
            905     4.59973e-37 
            915     4.17868e-22 
            925      2.3887e-21 
            935     5.15392e-21 
            945      1.1283e-20 
            955     2.29555e-20 
            965     4.61109e-20 
            975     9.27889e-20 
            985     2.23931e-19 
            995     4.26036e-19 
           1005     8.39452e-19 
           1015     1.58821e-18 
           1025     2.91039e-18 
           1035     5.15283e-18 
           1045     1.14469e-17 
           1055     1.78189e-17 
           1065     3.62306e-17 
           1075     6.48244e-17 
           1085     1.10194e-16 
           1095     1.95367e-16 
           1105     3.28004e-16 
           1115     5.88961e-16 
           1125     1.13353e-15 
           1135     2.07171e-15 
           1145     3.39998e-15 
           1155     6.97529e-15 
           1165     1.02744e-14 
           1175      2.5845e-14 
           1185     3.86461e-14 
           1195      6.7789e-14 
           1205     6.99195e-14 
           1215     8.99139e-14 
           1225     1.77142e-13 
           1235     6.07124e-13 
           1245     1.44394e-12 
           1255     3.82057e-12 
           1265     7.92621e-12 
           1275     8.46608e-12 
           1285       2.749e-11 
           1295     3.22428e-11 
           1305     1.54424e-10 
           1315     2.27838e-10 
           1325     6.36972e-10 
           1335     4.40117e-10 
           1345      1.16903e-9 
           1355      1.37474e-9 
           1365      4.04344e-9 
           1375      5.20472e-9 
           1385      6.63382e-9 
           1395      1.00273e-8 
           1405       1.4452e-8 
           1415      3.04247e-8 
           1425       2.7554e-8 
           1435      6.38358e-8 
           1442      1.33369e-7 
           1447      7.00144e-8 
           1455      1.03013e-7 
           1465      1.65958e-7 
           1475      2.11081e-7 
           1485      1.99518e-7 
           1495      5.63065e-7 
           1505      1.01167e-6 
           1512      3.26874e-7 
           1517      4.60073e-7 
           1525      1.04051e-6 
           1535      2.48016e-6 
           1545      1.02153e-6 
           1555      1.79856e-6 
           1565      1.27295e-6 
           1575      2.44326e-6 
           1585      2.08382e-6 
           1595      1.62581e-6 
           1605      1.60459e-6 
           1615      1.70944e-6 
           1625      1.67819e-6 
           1635      2.62998e-6 
           1645       5.8838e-6 
           1655       3.3252e-6 
           1665      1.16633e-5 
           1672      7.86236e-6 
           1677      2.06065e-5 
           1685       3.2803e-5 
           1695      6.19546e-5 
           1705      6.83576e-5 
           1715      9.17454e-5 
           1725     0.000129314 
           1735     0.000176349 
           1745      0.00022736 
           1755      0.00019739 
           1765      0.00030499 
           1775      0.00021779 
           1785     0.000831738 
           1795     0.000429599 
           1805      0.00153535 
           1815     0.000620852 
           1825      0.00118653 
           1835     0.000943058 
           1845      0.00200438 
           1855     0.000815048 
           1865      0.00336944 
           1875      0.00253494 
           1885      0.00378561 
           1895      0.00493584 
           1905      0.00528591 
           1915      0.00982919 
           1925      0.00534988 
           1935      0.00215288 
           1945      0.00994945 
           1955       0.0189881 
           1967       0.0184991 
           1976       0.0233588 
           1984       0.0377212 
           1995       0.0255834 
           2005        0.035313 
           2015       0.0387286 
           2025       0.0240014 
           2035       0.0418446 
           2045       0.0382501 
           2055        0.047582 
           2065       0.0415467 
           2074       0.0230847 
           2078       0.0549964 
           2085       0.0862438 
           2095        0.172622 
           2105        0.212025 
           2115        0.208433 
           2125        0.263883 
           2135        0.425308 
           2145         0.17157 
           2155          0.3493 
           2165        0.254527 
           2175        0.285631 
           2185        0.208501 
           2195        0.645339 
           2205        0.339853 
           2215        0.610318 
           2225        0.275982 
           2235        0.967008 
           2245         1.06642 
           2255         2.13027 
           2265        0.300195 
           2275         1.07102 
           2285         1.31702 
           2295         3.70791 
           2305        0.223278 
           2315         5.04912 
           2325         2.83675 
           2335          8.5189 
           2345         5.76012 
           2355         1.35455 
           2365         3.19611 
           2375         2.09897 
           2385         8.77941 
           2395         5.97471 
           2405         28.6206 
           2415         11.5023 
           2425         7.98607 
           2435         23.7828 
           2445         45.1758 
           2455          67.726 
           2465         21.0238 
           2475         49.9563 
           2485         7.73808 
           2495         8.52706 
           2505         24.7458 
           2513         12.7476 
           2518         10.7196 
           2525          19.487 
           2535         109.152 
           2545         137.546 
           2555         258.193 
           2565         94.3939 
           2575         130.133 
           2585         120.863 
           2595         123.195 
           2605         220.979 
           2615         192.689 
           2625         407.618 
           2635         735.963 
           2645          555.83 
           2655         638.444 
           2665         702.407 
           2675         360.376 
           2685         746.851 
           2695         474.004 
           2705         768.027 
           2715         680.351 
           2725         438.963 
           2735         502.375 
           2745         719.008 
           2755         672.254 
           2765         984.149 
           2775         1081.27 
           2785         655.226 
           2795         690.234 
           2805         657.886 
           2815         542.591 
           2825         421.597 
           2835          233.62 
           2845         66.7676 
           2855         12.7374 
           2865         159.339 
           2875         390.361 
           2885         734.926 
           2895         1145.83 
           2910         1695.89 
           2930          2382.4 
           2950         2380.85 
           2970          2502.9 
           2990         2710.27 
           3010         2693.29 
           3030         3514.36 
           3050         4244.56 
           3070         3680.76 
           3090         2789.93 
           3110         4897.59 
           3130         5795.01 
           3150         7069.49 
           3170           11401 
           3190         10576.5 
           3210         13427.1 
           3230         14157.6 
           3250         21209.2 
           3270         29777.2 
           3290           29907 
           3310         22981.1 
           3330           20642 
           3350         17648.6 
           3370         12012.2 
           3390         17694.2 
           3410         22647.6 
           3430         28078.7 
           3450         22521.5 
           3470         24068.8 
           3490         32649.6 
           3510         40978.2 
           3530         45585.2 
           3550         65818.9 
           3570         31746.6 
           3590         26526.7 
           3610         39496.7 
           3630         49446.6 
           3640         49624.6 
           3650         51603.9 
           3670         78688.9 
           3690         64128.7 
           3710         46934.8 
           3730         19650.6 
           3750         26579.6 
           3770         68399.1 
           3790         78327.4 
           3810         76401.6 
           3830         30736.4 
           3850         57577.5 
           3870         53178.1 
           3890           52685 
           3910           61573 
           3930           21246 
           3950         41923.7 
           3970         29622.7 
           3990         88161.7 
           4010          128724 
           4030          104462 
           4050          129003 
           4070          120973 
           4090          129120 
           4110         45547.6 
           4130         67819.2 
           4150         50542.7 
           4170         56883.5 
           4190         66266.3 
           4210         55858.7 
           4230         26680.5 
           4250         78760.2 
           4270         86782.8 
           4290         91121.6 
           4310          112584 
           4330          161842 
           4350          175385 
           4370          180970 
           4390          169533 
           4410          181419 
           4430          189016 
           4450          200136 
           4470          239282 
           4490          247097 
           4510          264932 
           4530          218629 
           4550          255126 
           4570          269728 
           4590          276090 
           4610          290044 
           4630          305803 
           4650          284988 
           4670          306909 
           4690          299108 
           4710          289780 
           4730          281963 
           4750          270828 
           4770          227002 
           4790          229872 
           4810          300034 
           4830          295891 
           4850          334008 
           4870          342881 
           4890          343800 
           4910          341333 
           4930          319365 
           4950          303505 
           4970          288485 
           4990          244056 
           5010          213714 
           5030          215219 
           5050          197668 
           5070          178729 
           5090          172907 
           5110          157259 
           5130          149550 
           5150          132401 
           5170          134127 
           5190          183077 
           5210          213859 
           5230          410351 
           5250          430015 
           5270          371902 
           5290          440324 
           5310          463014 
           5330          423317 
           5350          445521 
           5370          445997 
           5390          445261 
           5410          440623 
           5430          437051 
           5450          432860 
           5470          462059 
           5490          463736 
           5510          447731 
           5530          482700 
           5550          486308 
           5570          486319 
           5590          441674 
           5610          487058 
           5630          525571 
           5650          547725 
           5670          546188 
           5690          547929 
           5710          548327 
           5730          558653 
           5750          566054 
           5770          567534 
           5790          570183 
           5810          570315 
           5830          577371 
           5850          563567 
           5870          549368 
           5890          254899 
           5910          512749 
           5930          574582 
           5950          584187 
           5970          593609 
           5990          598923 
           6010          604330 
           6030          609984 
           6050          611794 
           6070          613259 
           6090          612702 
           6110          600786 
           6130          576841 
           6150          618704 
           6170          530791 
           6190          622817 
           6210          622700 
           6230          622067 
           6250          614620 
           6270          622454 
           6290          636193 
           6310          641023 
           6330          646146 
           6350          652808 
           6370          652744 
           6390          655584 
           6410          654021 
           6430          646451 
           6450          615146 
           6470          622112 
           6490          633095 
           6510          657026 
           6530          672497 
           6550          667615 
           6570          662640 
           6590          677024 
           6610          677873 
           6630          682129 
           6650          682649 
           6670          680018 
           6690          680504 
           6710          675583 
           6730          681546 
           6750          678745 
           6770          689446 
           6790          688054 
           6810          692426 
           6830          696187 
           6850          699008 
           6870          697801 
           6890          701002 
           6910          703419 
           6930          703962 
           6950          703941 
           6970          708235 
           6990          707750 
           7010          711261 
           7030          711070 
           7050          713286 
           7070          703943 
           7090          701566 
           7110          702431 
           7130          697963 
           7150          676245 
           7170          705630 
           7190          712284 
           7210          697438 
           7230          718341 
           7250          710269 
           7270          722768 
           7290          726747 
           7310          725948 
           7330          714770 
           7350          719184 
           7370          725828 
           7390          727492 
           7410          728785 
           7430          728074 
           7450          729465 
           7470          731842 
           7490          733379 
           7510          734621 
           7530          736239 
           7550          735383 
           7570          737879 
           7590          738116 
           7610          737559 
           7630          738421 
           7650          737462 
           7670          703715 
           7690          732549 
           7710          716206 
           7730          739047 
           7750          736367 
           7770          739632 
           7790          740930 
           7810          742143 
           7830          741613 
           7850          741201 
           7870          743704 
           7890          744053 
           7910          743246 
           7930          744234 
           7950          742163 
           7970          745620 
           7990          744606 
           8010          745355 
           8030          744801 
           8050          744303 
           8070          744320 
           8090          745307 
           8110          745301 
           8130          745401 
           8150          745547 
           8170          744780 
           8190          713457 
           8210          742682 
           8230          743526 
           8250          743468 
           8270          743677 
           8290          743327 
           8310          741881 
           8330          730288 
           8350          740950 
           8370          733649 
           8390          701684 
           8410          730842 
           8430          695041 
           8450          737393 
           8470          732864 
           8490          726541 
           8510          706432 
           8530          725180 
           8550          640212 
           8570          735199 
           8590          736528 
           8610          736058 
           8630          735584 
           8650          729316 
           8670          649977 
           8690          709597 
           8710          735094 
           8730          733163 
           8750          733408 
           8770          731830 
           8790          733038 
