# Kurucz ODFNEW /NOVER (2003)
# teff = 19000 K (value for the effective temperature for the model. Temperatures are given in K)
# logg = 4 log(cm/s2) (value for Log(G) for the model.)
# meta = -1  (value for the Metallicity for the model.)
# lh = 1.25  (l/Hp where l is the  mixing length of the convective element and Hp is the pressure scale height)
# vtur = 2 km/s (Microturbulence velocity)
# alpha = 0.4  (Alpha)
#
# column 1: WAVELENGTH (ANGSTROM), Wavelength in Angstrom
# column 2: FLUX (ERG/CM2/S/A), Flux in erg/cm2/s/A
          147.2     1.82611e-21 
            151     1.23294e-20 
          155.2     9.08031e-20 
          158.8     4.61891e-19 
            162     1.84991e-18 
            166     9.74279e-18 
          170.3     5.34112e-17 
          173.4     1.73132e-16 
          176.8     6.00559e-16 
          180.2     1.99166e-15 
          181.7     3.33335e-15 
          186.1     1.44325e-14 
            191     6.83568e-14 
          193.9     1.65312e-13 
          198.4     6.19745e-13 
          201.8     1.62225e-12 
            205     3.90481e-12 
          210.5     1.65969e-11 
          216.2     6.89756e-11 
          219.8     1.63435e-10 
            223     3.43586e-10 
          226.8     8.08927e-10 
            230      3.19472e-9 
            234      8.24104e-9 
            240      2.74568e-8 
          246.5      9.38813e-8 
          252.4      2.72013e-7 
          256.8      5.74409e-7 
            260      9.93986e-7 
            264      1.90748e-6 
          268.5      3.87253e-6 
          273.5      8.27017e-6 
          278.5      1.72161e-5 
            284      3.73974e-5 
            290      8.41347e-5 
            296     0.000182741 
            301     0.000341003 
            308     0.000781464 
            318       0.0024416 
            328      0.00702796 
            338       0.0190122 
            348       0.0483915 
            357        0.107167 
            366        0.228007 
            375        0.465336 
            385        0.987769 
            395         2.01103 
            405         3.94748 
            414         7.03494 
            422         11.4831 
            430         18.3552 
            441         34.1143 
            451         58.1816 
            460          91.996 
            470          149.75 
            480         238.334 
            490         371.724 
            500         568.379 
            506         5888.37 
            512         17358.8 
            520         22752.8 
            530         33770.2 
            540           39961 
            550         60474.7 
            560           77692 
            570          101257 
            580          108923 
            590          152975 
            600          200462 
            610          252422 
            620          305794 
            630          375192 
            640          441912 
            650          531202 
            658          628155 
            665          699611 
            675          812264 
            685          954780 
            695      1.14222e+6 
            705      1.31917e+6 
            716      1.55048e+6 
            726      1.77087e+6 
            735      2.01139e+6 
            745      2.31756e+6 
            755      2.64519e+6 
            765      2.98467e+6 
            775      3.39243e+6 
            785      3.82082e+6 
            795      4.25151e+6 
            805      4.75469e+6 
            815      5.26199e+6 
            825      5.87269e+6 
            835      6.37045e+6 
            845      7.09166e+6 
            855      7.77809e+6 
            865      8.58211e+6 
            875      9.40464e+6 
            885      1.03467e+7 
            895      1.12606e+7 
            905      1.19625e+7 
            915      2.00436e+7 
            925      8.53516e+7 
            935      3.07317e+8 
            945      1.57522e+9 
            955      3.49671e+9 
            965      4.93675e+9 
            975      1.15746e+9 
            985      7.15542e+9 
            995      7.12115e+9 
           1005      7.68211e+9 
           1015      6.27392e+9 
           1025      9.18709e+8 
           1035      4.53176e+9 
           1045      8.42413e+9 
           1055      8.24251e+9 
           1065      7.18467e+9 
           1075      8.09938e+9 
           1085      7.46179e+9 
           1095       8.0849e+9 
           1105       7.2225e+9 
           1115      7.06141e+9 
           1125      6.73641e+9 
           1135      7.49409e+9 
           1145      6.80112e+9 
           1155      7.12581e+9 
           1165      7.26465e+9 
           1175      6.12672e+9 
           1185      7.09152e+9 
           1195      5.37041e+9 
           1205      3.24521e+9 
           1215      7.19428e+8 
           1225      3.67359e+9 
           1235      6.00035e+9 
           1245      6.41207e+9 
           1255      6.23184e+9 
           1265      5.88839e+9 
           1275      6.20635e+9 
           1285       6.1804e+9 
           1295      4.82463e+9 
           1305      4.55033e+9 
           1315      5.89007e+9 
           1325      5.65258e+9 
           1335      5.32068e+9 
           1345      5.52904e+9 
           1355      5.46476e+9 
           1365      5.18643e+9 
           1375      5.14275e+9 
           1385      5.17834e+9 
           1395      4.74197e+9 
           1405      4.86402e+9 
           1415      4.86043e+9 
           1425      4.82028e+9 
           1435       4.8148e+9 
           1442      4.87597e+9 
           1447      4.80941e+9 
           1455      4.70648e+9 
           1465      4.56995e+9 
           1475      4.48673e+9 
           1485      4.36329e+9 
           1495      4.33141e+9 
           1505      4.14514e+9 
           1512      3.97189e+9 
           1517      4.06558e+9 
           1525      4.03616e+9 
           1535      3.80323e+9 
           1545      3.88704e+9 
           1555      3.70213e+9 
           1565      3.69865e+9 
           1575      3.78229e+9 
           1585      3.73457e+9 
           1595      3.75008e+9 
           1605      3.62555e+9 
           1615      3.58295e+9 
           1625      3.50889e+9 
           1635      3.52811e+9 
           1645      3.48103e+9 
           1655      3.34391e+9 
           1665      3.45375e+9 
           1672      3.31884e+9 
           1677      3.38026e+9 
           1685       3.3688e+9 
           1695       3.2699e+9 
           1705      3.15545e+9 
           1715      3.04857e+9 
           1725        3.017e+9 
           1735       3.0484e+9 
           1745      2.97818e+9 
           1755      3.00562e+9 
           1765      2.82073e+9 
           1775      2.86796e+9 
           1785      2.83508e+9 
           1795      2.86614e+9 
           1805      2.82441e+9 
           1815      2.71686e+9 
           1825      2.74067e+9 
           1835      2.67631e+9 
           1845       2.5356e+9 
           1855        2.479e+9 
           1865      2.48238e+9 
           1875      2.54094e+9 
           1885      2.39245e+9 
           1895      2.29204e+9 
           1905      2.38805e+9 
           1915      2.29753e+9 
           1925      2.24963e+9 
           1935      2.28026e+9 
           1945      2.29462e+9 
           1955       2.1752e+9 
           1967      2.24708e+9 
           1976      2.28185e+9 
           1984       2.1806e+9 
           1995      2.11857e+9 
           2005       2.1436e+9 
           2015      2.11977e+9 
           2025      2.15089e+9 
           2035      2.06676e+9 
           2045      2.05263e+9 
           2055      1.97641e+9 
           2065      2.00061e+9 
           2074      2.01901e+9 
           2078      1.96536e+9 
           2085      1.97723e+9 
           2095      1.91291e+9 
           2105      1.92895e+9 
           2115      1.91185e+9 
           2125      1.92393e+9 
           2135      1.88455e+9 
           2145      1.84155e+9 
           2155      1.85159e+9 
           2165      1.81765e+9 
           2175      1.79604e+9 
           2185      1.77466e+9 
           2195      1.77323e+9 
           2205      1.73897e+9 
           2215      1.71095e+9 
           2225      1.67414e+9 
           2235      1.68159e+9 
           2245      1.66343e+9 
           2255      1.62804e+9 
           2265      1.62816e+9 
           2275      1.60857e+9 
           2285      1.60274e+9 
           2295      1.56134e+9 
           2305      1.55279e+9 
           2315      1.52808e+9 
           2325      1.51636e+9 
           2335      1.47369e+9 
           2345      1.43991e+9 
           2355        1.454e+9 
           2365      1.41721e+9 
           2375      1.41612e+9 
           2385      1.38447e+9 
           2395      1.39158e+9 
           2405      1.36727e+9 
           2415      1.35073e+9 
           2425      1.35602e+9 
           2435      1.32419e+9 
           2445      1.31918e+9 
           2455      1.31527e+9 
           2465       1.2875e+9 
           2475      1.27743e+9 
           2485      1.27278e+9 
           2495      1.23803e+9 
           2505      1.24888e+9 
           2513      1.21791e+9 
           2518      1.22758e+9 
           2525      1.20506e+9 
           2535      1.18514e+9 
           2545      1.17038e+9 
           2555      1.18385e+9 
           2565      1.16273e+9 
           2575      1.16582e+9 
           2585      1.15704e+9 
           2595      1.14495e+9 
           2605      1.13529e+9 
           2615      1.12492e+9 
           2625      1.11265e+9 
           2635      1.10069e+9 
           2645      1.10843e+9 
           2655      1.09614e+9 
           2665       1.0752e+9 
           2675      1.07265e+9 
           2685       1.0664e+9 
           2695      1.04704e+9 
           2705      1.04348e+9 
           2715      1.02891e+9 
           2725      1.01178e+9 
           2735      1.01296e+9 
           2745      9.82143e+8 
           2755       9.7726e+8 
           2765      9.72865e+8 
           2775      9.77118e+8 
           2785      9.64625e+8 
           2795      9.29041e+8 
           2805      9.40671e+8 
           2815      9.41892e+8 
           2825      9.24803e+8 
           2835      9.08728e+8 
           2845      9.08774e+8 
           2855      9.03529e+8 
           2865      8.98701e+8 
           2875      8.88221e+8 
           2885      8.81169e+8 
           2895      8.73699e+8 
           2910      8.61823e+8 
           2930      8.41497e+8 
           2950      8.24368e+8 
           2970      8.15395e+8 
           2990       7.9875e+8 
           3010      7.86632e+8 
           3030      7.73615e+8 
           3050      7.59614e+8 
           3070      7.46112e+8 
           3090      7.32381e+8 
           3110       7.1972e+8 
           3130      7.08245e+8 
           3150      6.95787e+8 
           3170      6.83661e+8 
           3190        6.666e+8 
           3210      6.60001e+8 
           3230      6.49037e+8 
           3250      6.38255e+8 
           3270      6.28217e+8 
           3290      6.17226e+8 
           3310      6.07692e+8 
           3330      5.97561e+8 
           3350      5.86822e+8 
           3370       5.7802e+8 
           3390      5.68662e+8 
           3410      5.59517e+8 
           3430      5.49168e+8 
           3450      5.39148e+8 
           3470       5.3148e+8 
           3490      5.23025e+8 
           3510       5.1595e+8 
           3530      5.08155e+8 
           3550      5.00263e+8 
           3570      4.93964e+8 
           3590      4.84325e+8 
           3610       4.7747e+8 
           3630      4.69507e+8 
           3640      4.67898e+8 
           3650       4.6251e+8 
           3670      4.57119e+8 
           3690      4.45869e+8 
           3710      4.33931e+8 
           3730      4.21708e+8 
           3750      4.65765e+8 
           3770      4.75017e+8 
           3790       5.1358e+8 
           3810       5.4464e+8 
           3830       4.6549e+8 
           3850      5.67032e+8 
           3870      5.80052e+8 
           3890      4.37548e+8 
           3910      5.73567e+8 
           3930        5.655e+8 
           3950       5.5648e+8 
           3970      4.08833e+8 
           3990      5.33026e+8 
           4010      5.35243e+8 
           4030      5.03639e+8 
           4050      5.24401e+8 
           4070      5.11823e+8 
           4090      4.61293e+8 
           4110      3.92896e+8 
           4130      4.78529e+8 
           4150      4.77821e+8 
           4170      4.74874e+8 
           4190      4.69428e+8 
           4210      4.62513e+8 
           4230      4.54992e+8 
           4250       4.4757e+8 
           4270       4.3785e+8 
           4290      4.32528e+8 
           4310      4.22784e+8 
           4330      3.72411e+8 
           4350      3.35548e+8 
           4370      4.02041e+8 
           4390      3.89023e+8 
           4410      3.94704e+8 
           4430      3.87328e+8 
           4450      3.83588e+8 
           4470      3.60743e+8 
           4490      3.69458e+8 
           4510        3.668e+8 
           4530      3.60906e+8 
           4550      3.55502e+8 
           4570      3.50377e+8 
           4590      3.45381e+8 
           4610      3.40317e+8 
           4630      3.35204e+8 
           4650      3.29853e+8 
           4670      3.25617e+8 
           4690      3.21202e+8 
           4710      3.11806e+8 
           4730      3.11111e+8 
           4750      3.06359e+8 
           4770      3.03266e+8 
           4790      2.98768e+8 
           4810      2.93228e+8 
           4830      2.87187e+8 
           4850      2.59022e+8 
           4870      2.27672e+8 
           4890      2.74117e+8 
           4910      2.73154e+8 
           4930      2.63797e+8 
           4950      2.67051e+8 
           4970      2.63533e+8 
           4990      2.59836e+8 
           5010      2.52498e+8 
           5030      2.52593e+8 
           5050      2.46431e+8 
           5070      2.46088e+8 
           5090      2.42733e+8 
           5110       2.3935e+8 
           5130      2.36185e+8 
           5150      2.33019e+8 
           5170      2.30078e+8 
           5190      2.27021e+8 
           5210      2.23186e+8 
           5230      2.21138e+8 
           5250      2.18254e+8 
           5270      2.15352e+8 
           5290       2.1265e+8 
           5310      2.09875e+8 
           5330      2.07057e+8 
           5350      2.04182e+8 
           5370      2.01906e+8 
           5390      1.99321e+8 
           5410      1.96731e+8 
           5430      1.93904e+8 
           5450      1.91647e+8 
           5470      1.89203e+8 
           5490      1.87027e+8 
           5510      1.84629e+8 
           5530       1.8231e+8 
           5550      1.80106e+8 
           5570      1.77819e+8 
           5590      1.75669e+8 
           5610      1.73365e+8 
           5630      1.71423e+8 
           5650       1.6876e+8 
           5670      1.66892e+8 
           5690      1.65092e+8 
           5710      1.63187e+8 
           5730      1.61235e+8 
           5750       1.5926e+8 
           5770      1.57389e+8 
           5790      1.55494e+8 
           5810      1.53611e+8 
           5830      1.51794e+8 
           5850      1.49998e+8 
           5870      1.44091e+8 
           5890      1.46176e+8 
           5910      1.44746e+8 
           5930      1.43075e+8 
           5950      1.41242e+8 
           5970      1.39748e+8 
           5990      1.38029e+8 
           6010      1.36538e+8 
           6030       1.3495e+8 
           6050      1.33411e+8 
           6070      1.31868e+8 
           6090      1.30343e+8 
           6110      1.28886e+8 
           6130      1.27415e+8 
           6150       1.2585e+8 
           6170      1.24541e+8 
           6190      1.23148e+8 
           6210       1.2176e+8 
           6230      1.20387e+8 
           6250      1.18981e+8 
           6270      1.17706e+8 
           6290      1.16397e+8 
           6310      1.15055e+8 
           6330       1.1384e+8 
           6350       1.1218e+8 
           6370      1.11096e+8 
           6390      1.10107e+8 
           6410       1.0888e+8 
           6430      1.07757e+8 
           6450      1.06565e+8 
           6470      1.05403e+8 
           6490      1.04271e+8 
           6510       1.0292e+8 
           6530      1.01292e+8 
           6550      9.55291e+7 
           6570      8.37517e+7 
           6590      9.71142e+7 
           6610      9.73983e+7 
           6630      9.67001e+7 
           6650       9.5753e+7 
           6670      9.39179e+7 
           6690      9.29616e+7 
           6710      9.27597e+7 
           6730      9.18016e+7 
           6750      9.08533e+7 
           6770      8.99063e+7 
           6790      8.89362e+7 
           6810       8.8049e+7 
           6830      8.71222e+7 
           6850      8.62449e+7 
           6870      8.53604e+7 
           6890      8.44846e+7 
           6910      8.36254e+7 
           6930      8.27512e+7 
           6950      8.19325e+7 
           6970      8.11062e+7 
           6990      8.02804e+7 
           7010      7.94703e+7 
           7030      7.86681e+7 
           7050      7.78737e+7 
           7070      7.60545e+7 
           7090      7.63455e+7 
           7110      7.55812e+7 
           7130      7.48317e+7 
           7150      7.40821e+7 
           7170      7.33543e+7 
           7190      7.26414e+7 
           7210      7.19288e+7 
           7230      7.10118e+7 
           7250      7.05151e+7 
           7270      6.98404e+7 
           7290      6.87283e+7 
           7310      6.84832e+7 
           7330      6.78274e+7 
           7350      6.71743e+7 
           7370      6.65279e+7 
           7390      6.58889e+7 
           7410      6.52586e+7 
           7430      6.46191e+7 
           7450      6.40187e+7 
           7470      6.34016e+7 
           7490      6.28056e+7 
           7510      6.22017e+7 
           7530      6.16292e+7 
           7550      6.10519e+7 
           7570      6.04793e+7 
           7590      5.99086e+7 
           7610      5.93527e+7 
           7630      5.87993e+7 
           7650      5.82522e+7 
           7670      5.77118e+7 
           7690       5.7177e+7 
           7710      5.66487e+7 
           7730      5.61252e+7 
           7750      5.56108e+7 
           7770      5.48812e+7 
           7790      5.45972e+7 
           7810      5.40796e+7 
           7830       5.3607e+7 
           7850      5.31068e+7 
           7870      5.26237e+7 
           7890      5.20958e+7 
           7910      5.17231e+7 
           7930      5.12607e+7 
           7950      5.07533e+7 
           7970      5.03186e+7 
           7990      4.98204e+7 
           8010      4.94457e+7 
           8030      4.89899e+7 
           8050       4.8552e+7 
           8070      4.81254e+7 
           8090      4.76604e+7 
           8110      4.72521e+7 
           8130      4.68597e+7 
           8150      4.64054e+7 
           8170      4.60537e+7 
           8190      4.56157e+7 
           8210      4.51114e+7 
           8230      4.47857e+7 
           8250      4.44581e+7 
           8270      4.39404e+7 
           8290      4.36815e+7 
           8310      4.33181e+7 
           8330       4.2947e+7 
           8350      4.24432e+7 
           8370      4.21535e+7 
           8390      4.18409e+7 
           8410      4.14451e+7 
           8430       4.1035e+7 
           8450      4.04606e+7 
           8470      4.01453e+7 
           8490      3.99731e+7 
           8510      3.92449e+7 
           8530      3.94479e+7 
           8550      3.79072e+7 
           8570      3.93236e+7 
           8590      3.74079e+7 
