# Kurucz ODFNEW /NOVER (2003)
# teff = 28000 K (value for the effective temperature for the model. Temperatures are given in K)
# logg = 4.5 log(cm/s2) (value for Log(G) for the model.)
# meta = -1.5  (value for the Metallicity for the model.)
# lh = 1.25  (l/Hp where l is the  mixing length of the convective element and Hp is the pressure scale height)
# vtur = 2 km/s (Microturbulence velocity)
# alpha = 0.4  (Alpha)
#
# column 1: WAVELENGTH (ANGSTROM), Wavelength in Angstrom
# column 2: FLUX (ERG/CM2/S/A), Flux in erg/cm2/s/A
          147.2      5.0315e-11 
            151     1.91364e-10 
          155.2     7.77559e-10 
          158.8      2.44047e-9 
            162      6.47089e-9 
            166       2.0771e-8 
          170.3      6.84533e-8 
          173.4      1.55929e-7 
          176.8       3.7193e-7 
          180.2      8.58325e-7 
          181.7      1.22884e-6 
          186.1      3.40657e-6 
            191      1.00255e-5 
          193.9      1.85012e-5 
          198.4      4.61808e-5 
          201.8      8.96613e-5 
            205     0.000164022 
          210.5     0.000443613 
          216.2       0.0011776 
          219.8       0.0021239 
            223      0.00352949 
          226.8      0.00633204 
            230        0.621212 
            234         1.47352 
            240          3.0502 
          246.5         6.47596 
          252.4         12.5368 
          256.8         18.2263 
            260          27.489 
            264         39.7497 
          268.5         61.6837 
          273.5         97.3826 
          278.5         151.037 
            284         244.966 
            290         396.144 
            296         627.811 
            301         896.698 
            308         1386.49 
            318         2962.31 
            328         5449.38 
            338          9987.4 
            348           17306 
            357         29344.3 
            366         46715.7 
            375         69310.2 
            385          108425 
            395          163655 
            405          240243 
            414          337724 
            422          439719 
            430          575159 
            441          817302 
            451      1.11455e+6 
            460      1.43052e+6 
            470      1.89115e+6 
            480       2.4476e+6 
            490      3.14156e+6 
            500      4.00433e+6 
            506      2.26197e+7 
            512       8.1612e+7 
            520      8.91876e+7 
            530      1.04928e+8 
            540       1.0459e+8 
            550      1.31264e+8 
            560      1.43388e+8 
            570      1.60756e+8 
            580      1.56672e+8 
            590      1.87207e+8 
            600      2.03235e+8 
            610      2.23982e+8 
            620      2.39964e+8 
            630      2.60218e+8 
            640      2.68245e+8 
            650      2.94429e+8 
            658      3.12903e+8 
            665      3.28585e+8 
            675      3.40187e+8 
            685      3.55297e+8 
            695       3.9978e+8 
            705      4.10584e+8 
            716       4.4841e+8 
            726      4.67363e+8 
            735      4.93038e+8 
            745      5.26556e+8 
            755      5.52869e+8 
            765      5.80507e+8 
            775       6.1274e+8 
            785      6.46197e+8 
            795      6.68907e+8 
            805      6.99015e+8 
            815      7.22803e+8 
            825      7.60239e+8 
            835      7.51649e+8 
            845      8.10784e+8 
            855      8.38156e+8 
            865      8.74072e+8 
            875        9.104e+8 
            885      9.46555e+8 
            895      9.78196e+8 
            905      9.96716e+8 
            915      1.24737e+9 
            925      6.73259e+9 
            935     1.59677e+10 
            945     3.70475e+10 
            955      4.6652e+10 
            965     6.03309e+10 
            975     2.48803e+10 
            985     6.21925e+10 
            995       5.768e+10 
           1005     6.02193e+10 
           1015     5.65117e+10 
           1025     2.42114e+10 
           1035     5.10148e+10 
           1045     5.98993e+10 
           1055      5.7818e+10 
           1065     5.21637e+10 
           1075     5.37926e+10 
           1085     4.92887e+10 
           1095     5.26405e+10 
           1105      4.9921e+10 
           1115     4.89023e+10 
           1125     4.45303e+10 
           1135     4.72877e+10 
           1145     4.38446e+10 
           1155      4.4464e+10 
           1165     4.38316e+10 
           1175      3.6488e+10 
           1185     4.11599e+10 
           1195     3.87829e+10 
           1205     3.36326e+10 
           1215     1.62671e+10 
           1225     3.41827e+10 
           1235     3.69387e+10 
           1245     3.60439e+10 
           1255     3.55723e+10 
           1265     3.47931e+10 
           1275     3.45693e+10 
           1285      3.3771e+10 
           1295     3.04097e+10 
           1305     3.06887e+10 
           1315     3.15266e+10 
           1325     3.03615e+10 
           1335     2.92742e+10 
           1345     2.89863e+10 
           1355     2.89191e+10 
           1365     2.76397e+10 
           1375      2.7265e+10 
           1385     2.68138e+10 
           1395     2.39373e+10 
           1405     2.40882e+10 
           1415     2.48854e+10 
           1425     2.41738e+10 
           1435     2.39734e+10 
           1442     2.39242e+10 
           1447     2.35936e+10 
           1455     2.31089e+10 
           1465     2.25382e+10 
           1475      2.2102e+10 
           1485     2.16824e+10 
           1495     2.11859e+10 
           1505     2.02933e+10 
           1512     2.00185e+10 
           1517     1.99391e+10 
           1525     1.95928e+10 
           1535     1.84414e+10 
           1545     1.81324e+10 
           1555     1.75603e+10 
           1565     1.77411e+10 
           1575     1.76942e+10 
           1585     1.74117e+10 
           1595     1.71733e+10 
           1605     1.64993e+10 
           1615     1.61122e+10 
           1625     1.60029e+10 
           1635     1.58613e+10 
           1645     1.52653e+10 
           1655     1.53991e+10 
           1665     1.51345e+10 
           1672     1.48545e+10 
           1677     1.50634e+10 
           1685     1.47641e+10 
           1695      1.4399e+10 
           1705     1.40427e+10 
           1715     1.36514e+10 
           1725     1.34024e+10 
           1735     1.33485e+10 
           1745     1.30933e+10 
           1755     1.29286e+10 
           1765     1.25285e+10 
           1775     1.23232e+10 
           1785     1.21796e+10 
           1795      1.2084e+10 
           1805      1.1947e+10 
           1815     1.16042e+10 
           1825      1.1466e+10 
           1835     1.12653e+10 
           1845     1.07141e+10 
           1855     1.05167e+10 
           1865     1.05039e+10 
           1875     1.04699e+10 
           1885      9.94246e+9 
           1895      9.56903e+9 
           1905      9.77611e+9 
           1915      9.42567e+9 
           1925      9.18922e+9 
           1935      9.27218e+9 
           1945       9.2685e+9 
           1955       8.7759e+9 
           1967      8.89836e+9 
           1976      8.96163e+9 
           1984      8.63186e+9 
           1995      8.36675e+9 
           2005      8.42913e+9 
           2015      8.39123e+9 
           2025      8.33437e+9 
           2035      8.06554e+9 
           2045      7.94793e+9 
           2055       7.5324e+9 
           2065      7.43383e+9 
           2074      7.52587e+9 
           2078      7.33491e+9 
           2085      7.35126e+9 
           2095      7.23138e+9 
           2105      7.30499e+9 
           2115      7.25283e+9 
           2125       7.1889e+9 
           2135       7.0675e+9 
           2145      6.92217e+9 
           2155      6.86497e+9 
           2165      6.76835e+9 
           2175      6.66699e+9 
           2185       6.5721e+9 
           2195      6.49945e+9 
           2205       6.4046e+9 
           2215      6.30605e+9 
           2225      6.21548e+9 
           2235      6.11926e+9 
           2245      6.04969e+9 
           2255      5.94518e+9 
           2265      5.88054e+9 
           2275      5.79926e+9 
           2285      5.71693e+9 
           2295      5.54127e+9 
           2305      5.54775e+9 
           2315      5.47497e+9 
           2325       5.4017e+9 
           2335      5.31704e+9 
           2345      5.25802e+9 
           2355      5.19009e+9 
           2365      5.12023e+9 
           2375      5.04615e+9 
           2385      4.96961e+9 
           2395      4.90941e+9 
           2405      4.84724e+9 
           2415      4.77805e+9 
           2425      4.72213e+9 
           2435       4.6502e+9 
           2445      4.59447e+9 
           2455      4.53717e+9 
           2465      4.47917e+9 
           2475      4.41882e+9 
           2485      4.36179e+9 
           2495       4.1365e+9 
           2505      4.24445e+9 
           2513      4.15525e+9 
           2518      4.16431e+9 
           2525      4.14043e+9 
           2535      4.08936e+9 
           2545      4.00348e+9 
           2555      3.97394e+9 
           2565       3.9303e+9 
           2575      3.88654e+9 
           2585       3.8386e+9 
           2595      3.79094e+9 
           2605      3.76523e+9 
           2615      3.71836e+9 
           2625      3.67302e+9 
           2635      3.62485e+9 
           2645      3.57854e+9 
           2655      3.53074e+9 
           2665      3.47702e+9 
           2675      3.43276e+9 
           2685      3.41277e+9 
           2695      3.34107e+9 
           2705       3.3265e+9 
           2715      3.28814e+9 
           2725      3.22271e+9 
           2735      3.20492e+9 
           2745      3.16942e+9 
           2755      3.13345e+9 
           2765      3.07061e+9 
           2775      3.06286e+9 
           2785      3.02526e+9 
           2795      2.95181e+9 
           2805        2.942e+9 
           2815      2.92199e+9 
           2825      2.85725e+9 
           2835      2.82579e+9 
           2845      2.82183e+9 
           2855       2.7874e+9 
           2865      2.75623e+9 
           2875      2.72505e+9 
           2885      2.69488e+9 
           2895      2.66384e+9 
           2910      2.61714e+9 
           2930      2.55903e+9 
           2950      2.48289e+9 
           2970      2.44759e+9 
           2990      2.39305e+9 
           3010      2.33852e+9 
           3030      2.29019e+9 
           3050      2.24175e+9 
           3070      2.19429e+9 
           3090       2.1382e+9 
           3110      2.10128e+9 
           3130      2.05717e+9 
           3150      2.01461e+9 
           3170      1.97222e+9 
           3190      1.91465e+9 
           3210      1.89083e+9 
           3230      1.85142e+9 
           3250      1.81401e+9 
           3270       1.7792e+9 
           3290      1.74069e+9 
           3310      1.70868e+9 
           3330      1.67429e+9 
           3350      1.63824e+9 
           3370      1.60864e+9 
           3390      1.57758e+9 
           3410      1.54692e+9 
           3430      1.50991e+9 
           3450      1.47523e+9 
           3470      1.45093e+9 
           3490      1.42299e+9 
           3510      1.39887e+9 
           3530      1.37539e+9 
           3550      1.34965e+9 
           3570      1.33238e+9 
           3590      1.29726e+9 
           3610      1.27807e+9 
           3630      1.25028e+9 
           3640       1.2489e+9 
           3650      1.22445e+9 
           3670      1.20787e+9 
           3690      1.18513e+9 
           3710      1.14436e+9 
           3730      1.09862e+9 
           3750      1.10995e+9 
           3770      1.09327e+9 
           3790      1.14154e+9 
           3810       1.1852e+9 
           3830      1.03874e+9 
           3850       1.2127e+9 
           3870      1.22475e+9 
           3890      9.78564e+8 
           3910      1.20204e+9 
           3930      1.18717e+9 
           3950      1.16159e+9 
           3970      9.08162e+8 
           3990      1.11343e+9 
           4010      1.11001e+9 
           4030      1.04395e+9 
           4050      1.08378e+9 
           4070      1.05358e+9 
           4090       9.6623e+8 
           4110      8.48171e+8 
           4130      9.89746e+8 
           4150      9.82548e+8 
           4170       9.7555e+8 
           4190      9.60144e+8 
           4210      9.45389e+8 
           4230      9.29122e+8 
           4250      9.11638e+8 
           4270       8.9287e+8 
           4290      8.79119e+8 
           4310      8.58324e+8 
           4330      7.74601e+8 
           4350      7.06971e+8 
           4370      8.14558e+8 
           4390      7.86256e+8 
           4410        7.952e+8 
           4430      7.82161e+8 
           4450      7.71893e+8 
           4470      7.24276e+8 
           4490       7.4613e+8 
           4510      7.36119e+8 
           4530      7.24365e+8 
           4550      7.11896e+8 
           4570      7.00213e+8 
           4590      6.89189e+8 
           4610      6.78808e+8 
           4630      6.68493e+8 
           4650      6.53538e+8 
           4670      6.46864e+8 
           4690      6.36854e+8 
           4710      6.18228e+8 
           4730      6.18399e+8 
           4750      6.08461e+8 
           4770      6.00223e+8 
           4790      5.90985e+8 
           4810      5.80528e+8 
           4830      5.67753e+8 
           4850      5.22224e+8 
           4870       4.6759e+8 
           4890      5.40971e+8 
           4910      5.37245e+8 
           4930      5.17255e+8 
           4950      5.23262e+8 
           4970       5.1639e+8 
           4990      5.08794e+8 
           5010      4.94534e+8 
           5030      4.94049e+8 
           5050       4.8385e+8 
           5070      4.79967e+8 
           5090      4.73018e+8 
           5110       4.6625e+8 
           5130      4.59544e+8 
           5150      4.52999e+8 
           5170      4.46625e+8 
           5190      4.40406e+8 
           5210      4.34117e+8 
           5230      4.28173e+8 
           5250      4.22197e+8 
           5270      4.16326e+8 
           5290      4.10572e+8 
           5310      4.04893e+8 
           5330      3.99327e+8 
           5350       3.9382e+8 
           5370      3.88502e+8 
           5390      3.83173e+8 
           5410      3.77925e+8 
           5430      3.72872e+8 
           5450      3.67832e+8 
           5470      3.62906e+8 
           5490      3.58067e+8 
           5510      3.53313e+8 
           5530      3.48606e+8 
           5550      3.44007e+8 
           5570      3.39452e+8 
           5590       3.3499e+8 
           5610      3.30583e+8 
           5630      3.26289e+8 
           5650      3.21953e+8 
           5670      3.17706e+8 
           5690      3.13486e+8 
           5710       3.0963e+8 
           5730      3.05683e+8 
           5750        3.016e+8 
           5770       2.9794e+8 
           5790      2.94143e+8 
           5810      2.90414e+8 
           5830      2.86718e+8 
           5850      2.83121e+8 
           5870      2.70775e+8 
           5890      2.75466e+8 
           5910      2.72591e+8 
           5930       2.6917e+8 
           5950       2.6582e+8 
           5970      2.62605e+8 
           5990      2.59331e+8 
           6010      2.56169e+8 
           6030      2.53012e+8 
           6050      2.49942e+8 
           6070      2.46907e+8 
           6090      2.43906e+8 
           6110       2.4096e+8 
           6130      2.38057e+8 
           6150      2.35146e+8 
           6170      2.32358e+8 
           6190       2.2959e+8 
           6210      2.26864e+8 
           6230      2.24167e+8 
           6250       2.2151e+8 
           6270      2.18891e+8 
           6290      2.16311e+8 
           6310       2.1376e+8 
           6330      2.11273e+8 
           6350      2.08758e+8 
           6370      2.06363e+8 
           6390      2.03975e+8 
           6410      2.01613e+8 
           6430      1.99295e+8 
           6450      1.97001e+8 
           6470      1.94705e+8 
           6490      1.92479e+8 
           6510      1.90107e+8 
           6530      1.87097e+8 
           6550      1.78326e+8 
           6570      1.58495e+8 
           6590      1.79533e+8 
           6610      1.79319e+8 
           6630      1.77785e+8 
           6650      1.75874e+8 
           6670      1.72043e+8 
           6690      1.70174e+8 
           6710      1.70099e+8 
           6730      1.68174e+8 
           6750      1.66369e+8 
           6770      1.64541e+8 
           6790      1.62674e+8 
           6810      1.60948e+8 
           6830      1.59183e+8 
           6850      1.57468e+8 
           6870      1.55762e+8 
           6890      1.54058e+8 
           6910      1.52386e+8 
           6930      1.50778e+8 
           6950      1.49163e+8 
           6970      1.47564e+8 
           6990      1.45988e+8 
           7010      1.44436e+8 
           7030      1.42906e+8 
           7050      1.41391e+8 
           7070      1.37608e+8 
           7090      1.38429e+8 
           7110      1.36973e+8 
           7130      1.35546e+8 
           7150      1.34126e+8 
           7170      1.32712e+8 
           7190      1.31355e+8 
           7210      1.29997e+8 
           7230      1.28378e+8 
           7250      1.27305e+8 
           7270      1.26014e+8 
           7290      1.23672e+8 
           7310      1.23433e+8 
           7330      1.22192e+8 
           7350       1.2095e+8 
           7370      1.19725e+8 
           7390      1.18512e+8 
           7410      1.17311e+8 
           7430      1.16127e+8 
           7450      1.14982e+8 
           7470      1.13787e+8 
           7490       1.1269e+8 
           7510      1.11529e+8 
           7530      1.10459e+8 
           7550      1.09359e+8 
           7570      1.08282e+8 
           7590      1.07209e+8 
           7610      1.06145e+8 
           7630      1.05111e+8 
           7650      1.04085e+8 
           7670      1.03063e+8 
           7690      1.02063e+8 
           7710      1.01065e+8 
           7730      1.00089e+8 
           7750       9.9121e+7 
           7770      9.81247e+7 
           7790      9.72179e+7 
           7810      9.62266e+7 
           7830      9.53608e+7 
           7850      9.45331e+7 
           7870      9.36153e+7 
           7890      9.26693e+7 
           7910      9.18701e+7 
           7930      9.09999e+7 
           7950      9.01015e+7 
           7970      8.91221e+7 
           7990      8.82516e+7 
           8010      8.74121e+7 
           8030        8.658e+7 
           8050      8.57724e+7 
           8070      8.50412e+7 
           8090      8.41089e+7 
           8110      8.34025e+7 
           8130      8.27134e+7 
           8150      8.18825e+7 
           8170      8.12338e+7 
           8190      8.03714e+7 
           8210      7.94325e+7 
           8230      7.89023e+7 
           8250      7.82213e+7 
           8270      7.71219e+7 
           8290      7.67557e+7 
           8310      7.60975e+7 
           8330      7.53688e+7 
           8350      7.43328e+7 
           8370      7.39081e+7 
           8390      7.33581e+7 
           8410      7.26953e+7 
           8430      7.20009e+7 
           8450      7.08585e+7 
           8470      7.06976e+7 
           8490      6.98997e+7 
           8510      6.93323e+7 
           8530      6.86554e+7 
           8550      6.76647e+7 
           8570      6.79853e+7 
