# Kurucz ODFNEW /NOVER (2003)
# teff = 29000 K (value for the effective temperature for the model. Temperatures are given in K)
# logg = 4.5 log(cm/s2) (value for Log(G) for the model.)
# meta = -1  (value for the Metallicity for the model.)
# lh = 1.25  (l/Hp where l is the  mixing length of the convective element and Hp is the pressure scale height)
# vtur = 2 km/s (Microturbulence velocity)
# alpha = 0  (Alpha)
#
# column 1: WAVELENGTH (ANGSTROM), Wavelength in Angstrom
# column 2: FLUX (ERG/CM2/S/A), Flux in erg/cm2/s/A
          147.2     5.50598e-10 
            151      1.95792e-9 
          155.2      7.41712e-9 
          158.8       2.1995e-8 
            162      5.55763e-8 
            166      1.68445e-7 
          170.3       5.2346e-7 
          173.4        1.145e-6 
          176.8      2.61689e-6 
          180.2      5.79596e-6 
          181.7      8.15263e-6 
          186.1      2.14954e-5 
            191      5.99838e-5 
          193.9     0.000107386 
          198.4     0.000256161 
          201.8     0.000481291 
            205      0.00085447 
          210.5       0.0021994 
          216.2      0.00556134 
          219.8      0.00974106 
            223       0.0157869 
          226.8       0.0275211 
            230         5.85277 
            234         14.6121 
            240           28.29 
          246.5         56.7944 
          252.4         104.339 
          256.8         142.737 
            260         219.345 
            264         306.795 
          268.5         462.246 
          273.5         705.087 
          278.5         1047.54 
            284         1683.27 
            290          2607.5 
            296         3965.51 
            301         5409.29 
            308         8031.47 
            318         16782.3 
            328         29112.6 
            338         51214.8 
            348           84906 
            357          146256 
            366          227538 
            375          321449 
            385          486184 
            395          715357 
            405      1.00659e+6 
            414      1.37338e+6 
            422      1.72858e+6 
            430      2.21372e+6 
            441      3.03602e+6 
            451      3.99528e+6 
            460      4.97635e+6 
            470      6.43237e+6 
            480      8.10263e+6 
            490      1.01547e+7 
            500      1.26554e+7 
            506       6.3136e+7 
            512      2.48246e+8 
            520      2.60757e+8 
            530      2.87999e+8 
            540      2.80583e+8 
            550       3.4552e+8 
            560      3.80742e+8 
            570      4.20606e+8 
            580      4.04055e+8 
            590      4.71761e+8 
            600      4.96153e+8 
            610      5.39996e+8 
            620      5.80941e+8 
            630       6.1299e+8 
            640      6.15874e+8 
            650      6.66512e+8 
            658      6.99827e+8 
            665      7.35467e+8 
            675      7.51367e+8 
            685      7.63366e+8 
            695      8.70021e+8 
            705       8.7553e+8 
            716      9.52964e+8 
            726       9.7764e+8 
            735      1.01326e+9 
            745      1.07943e+9 
            755       1.1189e+9 
            765      1.16638e+9 
            775      1.21695e+9 
            785      1.27839e+9 
            795      1.30986e+9 
            805      1.34879e+9 
            815      1.37562e+9 
            825      1.44448e+9 
            835      1.39529e+9 
            845      1.50132e+9 
            855      1.53737e+9 
            865      1.59558e+9 
            875       1.6569e+9 
            885       1.7174e+9 
            895      1.76413e+9 
            905      1.78074e+9 
            915      2.12046e+9 
            925     1.01894e+10 
            935     2.19813e+10 
            945     4.50839e+10 
            955     5.44756e+10 
            965     6.87011e+10 
            975     2.67603e+10 
            985     6.73529e+10 
            995     6.20522e+10 
           1005     6.54113e+10 
           1015      6.2571e+10 
           1025     3.07931e+10 
           1035     5.64096e+10 
           1045      6.7068e+10 
           1055     6.42829e+10 
           1065     5.71924e+10 
           1075     5.96378e+10 
           1085     5.42137e+10 
           1095     5.83714e+10 
           1105     5.55796e+10 
           1115     5.45568e+10 
           1125     4.89774e+10 
           1135     5.25574e+10 
           1145     4.88044e+10 
           1155     4.93071e+10 
           1165     4.83227e+10 
           1175     3.77377e+10 
           1185     4.49803e+10 
           1195     4.30145e+10 
           1205     3.82249e+10 
           1215     2.06759e+10 
           1225     3.82573e+10 
           1235     4.10809e+10 
           1245     3.99084e+10 
           1255     3.95237e+10 
           1265     3.90449e+10 
           1275     3.88056e+10 
           1285     3.80648e+10 
           1295     3.44533e+10 
           1305     3.48055e+10 
           1315     3.57117e+10 
           1325     3.42326e+10 
           1335     3.29967e+10 
           1345     3.28223e+10 
           1355     3.26105e+10 
           1365     3.12367e+10 
           1375     3.06963e+10 
           1385     3.00739e+10 
           1395     2.65875e+10 
           1405     2.68478e+10 
           1415     2.78263e+10 
           1425     2.66097e+10 
           1435     2.67688e+10 
           1442     2.68194e+10 
           1447     2.63807e+10 
           1455     2.57568e+10 
           1465     2.50044e+10 
           1475     2.45938e+10 
           1485     2.42056e+10 
           1495     2.35997e+10 
           1505     2.25852e+10 
           1512     2.18097e+10 
           1517      2.1861e+10 
           1525     2.15529e+10 
           1535     1.97572e+10 
           1545     1.93113e+10 
           1555     1.86259e+10 
           1565     1.91608e+10 
           1575      1.9383e+10 
           1585     1.91842e+10 
           1595     1.89311e+10 
           1605     1.80992e+10 
           1615     1.75898e+10 
           1625     1.75908e+10 
           1635     1.75947e+10 
           1645     1.69875e+10 
           1655     1.71679e+10 
           1665     1.69256e+10 
           1672     1.64433e+10 
           1677      1.7058e+10 
           1685     1.66058e+10 
           1695     1.61364e+10 
           1705     1.56885e+10 
           1715     1.51871e+10 
           1725     1.48888e+10 
           1735     1.49529e+10 
           1745      1.4662e+10 
           1755      1.4504e+10 
           1765     1.40898e+10 
           1775     1.37796e+10 
           1785     1.37155e+10 
           1795     1.35876e+10 
           1805     1.34884e+10 
           1815     1.29651e+10 
           1825      1.2881e+10 
           1835     1.26582e+10 
           1845     1.18718e+10 
           1855     1.17561e+10 
           1865     1.18015e+10 
           1875     1.17885e+10 
           1885     1.10276e+10 
           1895     1.05349e+10 
           1905     1.08835e+10 
           1915     1.04742e+10 
           1925      1.0108e+10 
           1935     1.03504e+10 
           1945     1.04175e+10 
           1955      9.71683e+9 
           1967      9.96864e+9 
           1976     1.01627e+10 
           1984      9.67412e+9 
           1995      9.39347e+9 
           2005      9.47347e+9 
           2015      9.46039e+9 
           2025      9.45447e+9 
           2035       9.0392e+9 
           2045      8.93065e+9 
           2055      8.36739e+9 
           2065       8.2566e+9 
           2074      8.43287e+9 
           2078      8.14524e+9 
           2085      8.20798e+9 
           2095      8.08457e+9 
           2105      8.25068e+9 
           2115      8.20409e+9 
           2125       8.1696e+9 
           2135      8.01796e+9 
           2145      7.81564e+9 
           2155      7.79754e+9 
           2165      7.68308e+9 
           2175       7.5758e+9 
           2185      7.45974e+9 
           2195      7.40256e+9 
           2205      7.29272e+9 
           2215      7.17404e+9 
           2225      7.06982e+9 
           2235      6.95051e+9 
           2245      6.88709e+9 
           2255      6.75109e+9 
           2265      6.69403e+9 
           2275      6.60285e+9 
           2285      6.51026e+9 
           2295       6.2493e+9 
           2305      6.30517e+9 
           2315      6.22087e+9 
           2325      6.13848e+9 
           2335      6.03668e+9 
           2345      5.98421e+9 
           2355      5.90442e+9 
           2365      5.82557e+9 
           2375      5.73527e+9 
           2385      5.64217e+9 
           2395      5.57709e+9 
           2405      5.50808e+9 
           2415      5.42987e+9 
           2425      5.36744e+9 
           2435      5.27986e+9 
           2445      5.21911e+9 
           2455      5.15736e+9 
           2465      5.08944e+9 
           2475      5.01882e+9 
           2485      4.95197e+9 
           2495      4.63808e+9 
           2505      4.81173e+9 
           2513      4.67454e+9 
           2518       4.7226e+9 
           2525       4.6997e+9 
           2535      4.64118e+9 
           2545      4.54423e+9 
           2555      4.50544e+9 
           2565      4.46082e+9 
           2575      4.40715e+9 
           2585       4.3531e+9 
           2595      4.29886e+9 
           2605      4.26514e+9 
           2615       4.2106e+9 
           2625      4.16005e+9 
           2635      4.10629e+9 
           2645      4.05155e+9 
           2655      3.99976e+9 
           2665       3.9332e+9 
           2675      3.88516e+9 
           2685      3.86176e+9 
           2695      3.77387e+9 
           2705      3.75436e+9 
           2715      3.71311e+9 
           2725      3.64704e+9 
           2735      3.61881e+9 
           2745      3.57959e+9 
           2755      3.54154e+9 
           2765      3.47202e+9 
           2775       3.4625e+9 
           2785      3.41844e+9 
           2795      3.33784e+9 
           2805      3.32505e+9 
           2815      3.30171e+9 
           2825      3.23145e+9 
           2835       3.1832e+9 
           2845       3.1872e+9 
           2855      3.14601e+9 
           2865      3.11156e+9 
           2875      3.07619e+9 
           2885      3.04168e+9 
           2895      3.00547e+9 
           2910      2.95156e+9 
           2930      2.88736e+9 
           2950       2.8005e+9 
           2970      2.75894e+9 
           2990      2.69586e+9 
           3010      2.63126e+9 
           3030      2.57985e+9 
           3050      2.52499e+9 
           3070      2.47165e+9 
           3090      2.40583e+9 
           3110      2.36548e+9 
           3130      2.31447e+9 
           3150      2.26577e+9 
           3170      2.21714e+9 
           3190       2.1544e+9 
           3210      2.12497e+9 
           3230      2.08068e+9 
           3250      2.03871e+9 
           3270      1.99813e+9 
           3290      1.95494e+9 
           3310      1.91846e+9 
           3330      1.87881e+9 
           3350      1.83865e+9 
           3370      1.80448e+9 
           3390      1.76968e+9 
           3410      1.73489e+9 
           3430      1.69368e+9 
           3450      1.65486e+9 
           3470      1.62676e+9 
           3490      1.59506e+9 
           3510      1.56724e+9 
           3530      1.54052e+9 
           3550      1.51116e+9 
           3570      1.49097e+9 
           3590       1.4514e+9 
           3610      1.42914e+9 
           3630      1.39854e+9 
           3640      1.39639e+9 
           3650      1.36878e+9 
           3670      1.34985e+9 
           3690      1.32433e+9 
           3710      1.27943e+9 
           3730      1.23082e+9 
           3750      1.23731e+9 
           3770      1.21544e+9 
           3790      1.26179e+9 
           3810      1.30494e+9 
           3830      1.15179e+9 
           3850      1.32817e+9 
           3870      1.33611e+9 
           3890      1.08517e+9 
           3910      1.31054e+9 
           3930      1.29101e+9 
           3950      1.26498e+9 
           3970      1.00652e+9 
           3990      1.21355e+9 
           4010      1.20785e+9 
           4030       1.1401e+9 
           4050       1.1774e+9 
           4070      1.14341e+9 
           4090       1.0558e+9 
           4110      9.34324e+8 
           4130      1.07661e+9 
           4150      1.06784e+9 
           4170      1.05935e+9 
           4190      1.04229e+9 
           4210      1.02658e+9 
           4230      1.00877e+9 
           4250      9.89122e+8 
           4270      9.66881e+8 
           4290      9.53957e+8 
           4310      9.31293e+8 
           4330      8.47179e+8 
           4350      7.76414e+8 
           4370      8.83801e+8 
           4390      8.55749e+8 
           4410      8.62262e+8 
           4430      8.48965e+8 
           4450      8.37337e+8 
           4470      7.89135e+8 
           4490      8.09609e+8 
           4510      7.98555e+8 
           4530      7.85736e+8 
           4550      7.72075e+8 
           4570      7.59632e+8 
           4590      7.47411e+8 
           4610       7.3564e+8 
           4630      7.24096e+8 
           4650      7.06417e+8 
           4670      7.01122e+8 
           4690      6.89794e+8 
           4710      6.70567e+8 
           4730      6.69976e+8 
           4750      6.59003e+8 
           4770      6.50905e+8 
           4790      6.40802e+8 
           4810      6.29589e+8 
           4830      6.16021e+8 
           4850      5.70335e+8 
           4870      5.13226e+8 
           4890      5.87259e+8 
           4910      5.82625e+8 
           4930      5.61787e+8 
           4950      5.66912e+8 
           4970      5.59659e+8 
           4990      5.51339e+8 
           5010      5.35509e+8 
           5030      5.35279e+8 
           5050      5.24474e+8 
           5070      5.20007e+8 
           5090      5.12424e+8 
           5110      5.05031e+8 
           5130      4.97479e+8 
           5150      4.90384e+8 
           5170      4.83694e+8 
           5190       4.7698e+8 
           5210      4.70188e+8 
           5230      4.63624e+8 
           5250       4.5716e+8 
           5270      4.50712e+8 
           5290      4.44511e+8 
           5310      4.38309e+8 
           5330      4.32294e+8 
           5350      4.26304e+8 
           5370      4.20548e+8 
           5390      4.14748e+8 
           5410      4.08946e+8 
           5430      4.03588e+8 
           5450      3.98082e+8 
           5470      3.92734e+8 
           5490      3.87478e+8 
           5510      3.82325e+8 
           5530      3.77174e+8 
           5550      3.72235e+8 
           5570      3.67259e+8 
           5590       3.6243e+8 
           5610      3.57648e+8 
           5630      3.52984e+8 
           5650      3.48259e+8 
           5670      3.43474e+8 
           5690      3.38644e+8 
           5710      3.34831e+8 
           5730      3.30547e+8 
           5750      3.26075e+8 
           5770      3.22189e+8 
           5790      3.18057e+8 
           5810      3.14007e+8 
           5830      3.09928e+8 
           5850      3.06084e+8 
           5870      2.93265e+8 
           5890      2.97586e+8 
           5910      2.94583e+8 
           5930      2.90832e+8 
           5950      2.87199e+8 
           5970       2.8384e+8 
           5990      2.80205e+8 
           6010       2.7682e+8 
           6030      2.73371e+8 
           6050      2.70053e+8 
           6070      2.66804e+8 
           6090      2.63551e+8 
           6110      2.60356e+8 
           6130      2.57206e+8 
           6150      2.53982e+8 
           6170      2.50982e+8 
           6190      2.48016e+8 
           6210      2.45063e+8 
           6230      2.42143e+8 
           6250      2.39245e+8 
           6270      2.36418e+8 
           6290      2.33632e+8 
           6310      2.30866e+8 
           6330      2.28169e+8 
           6350      2.25444e+8 
           6370      2.22852e+8 
           6390       2.2025e+8 
           6410      2.17695e+8 
           6430      2.15186e+8 
           6450      2.12694e+8 
           6470      2.10149e+8 
           6490      2.07755e+8 
           6510      2.05316e+8 
           6530       2.0209e+8 
           6550      1.93289e+8 
           6570      1.72441e+8 
           6590      1.93838e+8 
           6610      1.93598e+8 
           6630      1.91858e+8 
           6650      1.89777e+8 
           6670      1.85778e+8 
           6690      1.83743e+8 
           6710      1.83528e+8 
           6730      1.81424e+8 
           6750      1.79491e+8 
           6770      1.77511e+8 
           6790      1.75388e+8 
           6810      1.73612e+8 
           6830      1.71709e+8 
           6850      1.69856e+8 
           6870      1.68007e+8 
           6890      1.66152e+8 
           6910      1.64339e+8 
           6930      1.62608e+8 
           6950      1.60854e+8 
           6970      1.59134e+8 
           6990      1.57423e+8 
           7010      1.55744e+8 
           7030      1.54081e+8 
           7050       1.5245e+8 
           7070      1.48499e+8 
           7090      1.49244e+8 
           7110       1.4766e+8 
           7130      1.46114e+8 
           7150      1.44583e+8 
           7170      1.43059e+8 
           7190      1.41587e+8 
           7210      1.40114e+8 
           7230        1.381e+8 
           7250      1.37189e+8 
           7270      1.35808e+8 
           7290      1.33348e+8 
           7310      1.33014e+8 
           7330      1.31665e+8 
           7350      1.30329e+8 
           7370      1.28998e+8 
           7390      1.27687e+8 
           7410      1.26395e+8 
           7430      1.25115e+8 
           7450      1.23867e+8 
           7470      1.22563e+8 
           7490      1.21393e+8 
           7510      1.20139e+8 
           7530      1.18977e+8 
           7550      1.17799e+8 
           7570      1.16625e+8 
           7590      1.15468e+8 
           7610      1.14309e+8 
           7630        1.132e+8 
           7650      1.12087e+8 
           7670      1.10991e+8 
           7690      1.09905e+8 
           7710      1.08828e+8 
           7730      1.07768e+8 
           7750      1.06723e+8 
           7770      1.05656e+8 
           7790      1.04668e+8 
           7810      1.03607e+8 
           7830      1.02661e+8 
           7850      1.01759e+8 
           7870      1.00762e+8 
           7890      9.97437e+7 
           7910      9.88726e+7 
           7930      9.79193e+7 
           7950      9.69921e+7 
           7970      9.59662e+7 
           7990      9.50792e+7 
           8010      9.41176e+7 
           8030      9.32053e+7 
           8050      9.23533e+7 
           8070      9.15317e+7 
           8090      9.05271e+7 
           8110      8.97432e+7 
           8130      8.90343e+7 
           8150      8.81157e+7 
           8170      8.74196e+7 
           8190      8.64652e+7 
           8210      8.54744e+7 
           8230      8.48648e+7 
           8250      8.41494e+7 
           8270      8.29827e+7 
           8290      8.25664e+7 
           8310      8.18584e+7 
           8330      8.10749e+7 
           8350        7.999e+7 
           8370       7.9506e+7 
           8390      7.89026e+7 
           8410      7.81922e+7 
           8430      7.74453e+7 
           8450      7.62507e+7 
           8470      7.60381e+7 
           8490      7.51994e+7 
           8510      7.45759e+7 
           8530      7.38486e+7 
           8550      7.28336e+7 
           8570      7.30634e+7 
           8590      7.07579e+7 
