# Kurucz ODFNEW /NOVER (2003)
# teff = 31000 K (value for the effective temperature for the model. Temperatures are given in K)
# logg = 4.5 log(cm/s2) (value for Log(G) for the model.)
# meta = -0.5  (value for the Metallicity for the model.)
# lh = 1.25  (l/Hp where l is the  mixing length of the convective element and Hp is the pressure scale height)
# vtur = 2 km/s (Microturbulence velocity)
# alpha = 0.4  (Alpha)
#
# column 1: WAVELENGTH (ANGSTROM), Wavelength in Angstrom
# column 2: FLUX (ERG/CM2/S/A), Flux in erg/cm2/s/A
          147.2       3.7981e-8 
            151        1.163e-7 
          155.2      3.77495e-7 
          158.8      9.89067e-7 
            162      2.25372e-6 
            166       6.0511e-6 
          170.3      1.66424e-5 
          173.4      3.35689e-5 
          176.8      7.04642e-5 
          180.2     0.000143965 
          181.7     0.000195742 
          186.1     0.000468926 
            191       0.0011851 
          193.9      0.00200713 
          198.4      0.00441164 
          201.8      0.00781476 
            205       0.0131553 
          210.5       0.0310539 
          216.2       0.0721382 
          219.8        0.120196 
            223        0.186505 
          226.8        0.311245 
            230         89.9237 
            234         203.714 
            240         363.845 
          246.5         676.984 
          252.4         1172.19 
          256.8         1588.92 
            260         2427.68 
            264         3279.63 
          268.5         4911.65 
          273.5         7224.63 
          278.5           10064 
            284         18916.3 
            290           28269 
            296           40531 
            301         53365.3 
            308         95766.9 
            318          195942 
            328          311181 
            338          535066 
            348          846540 
            357      1.97955e+6 
            366      3.50473e+6 
            375      4.59684e+6 
            385       6.8204e+6 
            395      1.09797e+7 
            405      1.42887e+7 
            414      1.92939e+7 
            422      2.25423e+7 
            430        2.762e+7 
            441       3.5631e+7 
            451      4.43442e+7 
            460      5.14976e+7 
            470      6.35375e+7 
            480      7.62665e+7 
            490      9.07697e+7 
            500      1.10225e+8 
            506      3.31107e+8 
            512      1.95677e+9 
            520      1.87445e+9 
            530      1.84596e+9 
            540      1.71841e+9 
            550      2.10657e+9 
            560      2.40513e+9 
            570      2.54075e+9 
            580      2.33339e+9 
            590       2.6265e+9 
            600      2.43974e+9 
            610      2.76457e+9 
            620      3.04343e+9 
            630      3.06955e+9 
            640      2.97741e+9 
            650      3.13653e+9 
            658      3.01713e+9 
            665      3.24794e+9 
            675      3.33151e+9 
            685      3.10914e+9 
            695      3.69995e+9 
            705      3.36212e+9 
            716      3.94156e+9 
            726      3.89526e+9 
            735      3.97591e+9 
            745      4.11567e+9 
            755      4.14596e+9 
            765      4.29873e+9 
            775      4.42027e+9 
            785      4.59295e+9 
            795      4.60641e+9 
            805      4.59586e+9 
            815      4.61717e+9 
            825      4.83514e+9 
            835      4.27301e+9 
            845       4.8245e+9 
            855      4.86057e+9 
            865      5.00366e+9 
            875       5.0972e+9 
            885      5.23758e+9 
            895      5.33142e+9 
            905      5.26761e+9 
            915      5.83976e+9 
            925     2.26115e+10 
            935      4.1059e+10 
            945     6.82692e+10 
            955     7.79172e+10 
            965      9.3844e+10 
            975     3.76696e+10 
            985     8.45658e+10 
            995     7.62458e+10 
           1005     7.97677e+10 
           1015     8.03867e+10 
           1025     4.97848e+10 
           1035     7.41871e+10 
           1045     8.70598e+10 
           1055     8.30411e+10 
           1065     7.12688e+10 
           1075     7.50509e+10 
           1085      6.8928e+10 
           1095     7.43954e+10 
           1105     7.01949e+10 
           1115     6.85051e+10 
           1125     5.64011e+10 
           1135     6.63022e+10 
           1145      6.1106e+10 
           1155     6.04676e+10 
           1165     5.98448e+10 
           1175     4.34543e+10 
           1185     5.51133e+10 
           1195     5.26805e+10 
           1205     4.73317e+10 
           1215     3.19712e+10 
           1225     4.82816e+10 
           1235     5.15142e+10 
           1245     4.98101e+10 
           1255     4.94381e+10 
           1265     4.94788e+10 
           1275     4.96141e+10 
           1285     4.88929e+10 
           1295     4.32615e+10 
           1305     4.41539e+10 
           1315     4.64805e+10 
           1325     4.44082e+10 
           1335     4.31091e+10 
           1345     4.23518e+10 
           1355     4.22317e+10 
           1365     4.00017e+10 
           1375     3.92247e+10 
           1385     3.82106e+10 
           1395      2.9441e+10 
           1405     3.08708e+10 
           1415     3.55162e+10 
           1425     3.30418e+10 
           1435     3.40776e+10 
           1442     3.43273e+10 
           1447     3.38224e+10 
           1455     3.26151e+10 
           1465     3.16623e+10 
           1475     3.13661e+10 
           1485     3.10356e+10 
           1495     3.01195e+10 
           1505      2.8696e+10 
           1512     2.79102e+10 
           1517      2.7972e+10 
           1525     2.74752e+10 
           1535     2.44947e+10 
           1545     2.30691e+10 
           1555     2.24493e+10 
           1565      2.3563e+10 
           1575     2.42701e+10 
           1585     2.40728e+10 
           1595     2.39393e+10 
           1605     2.27703e+10 
           1615     2.19172e+10 
           1625     2.20392e+10 
           1635      2.2172e+10 
           1645     2.16485e+10 
           1655     2.19104e+10 
           1665     2.14591e+10 
           1672     2.05467e+10 
           1677     2.22636e+10 
           1685      2.1494e+10 
           1695     2.07822e+10 
           1705      2.0245e+10 
           1715     1.95843e+10 
           1725     1.89161e+10 
           1735     1.93144e+10 
           1745     1.90207e+10 
           1755     1.87385e+10 
           1765     1.83357e+10 
           1775     1.78104e+10 
           1785     1.77734e+10 
           1795     1.75923e+10 
           1805     1.75297e+10 
           1815     1.68362e+10 
           1825     1.67246e+10 
           1835     1.64991e+10 
           1845     1.53967e+10 
           1855     1.54052e+10 
           1865     1.54581e+10 
           1875     1.52937e+10 
           1885     1.43706e+10 
           1895     1.37735e+10 
           1905     1.42521e+10 
           1915     1.37102e+10 
           1925     1.30903e+10 
           1935     1.35751e+10 
           1945     1.37038e+10 
           1955      1.2663e+10 
           1967     1.30543e+10 
           1976     1.33852e+10 
           1984      1.2708e+10 
           1995     1.23837e+10 
           2005     1.24967e+10 
           2015     1.24722e+10 
           2025     1.24486e+10 
           2035     1.18835e+10 
           2045     1.17558e+10 
           2055     1.04392e+10 
           2065     1.02155e+10 
           2074     1.04581e+10 
           2078     1.01858e+10 
           2085     1.04009e+10 
           2095     1.04881e+10 
           2105     1.08198e+10 
           2115     1.08171e+10 
           2125     1.06855e+10 
           2135     1.05352e+10 
           2145     1.02882e+10 
           2155     1.02894e+10 
           2165     1.00435e+10 
           2175      9.99674e+9 
           2185      9.78472e+9 
           2195      9.78412e+9 
           2205      9.63979e+9 
           2215      9.40168e+9 
           2225       9.3303e+9 
           2235      9.17308e+9 
           2245      9.08182e+9 
           2255      8.84143e+9 
           2265      8.82375e+9 
           2275      8.70413e+9 
           2285      8.52782e+9 
           2295      8.00805e+9 
           2305       8.2188e+9 
           2315      8.15358e+9 
           2325      8.06198e+9 
           2335      7.92467e+9 
           2345      7.86545e+9 
           2355      7.74921e+9 
           2365      7.64407e+9 
           2375      7.50971e+9 
           2385      7.31838e+9 
           2395      7.26725e+9 
           2405      7.21215e+9 
           2415      7.08795e+9 
           2425      7.01552e+9 
           2435      6.87796e+9 
           2445      6.80984e+9 
           2455      6.72385e+9 
           2465      6.64584e+9 
           2475      6.54059e+9 
           2485      6.42277e+9 
           2495       5.3666e+9 
           2505      6.18794e+9 
           2513      5.98933e+9 
           2518      6.05113e+9 
           2525      6.11926e+9 
           2535      6.05466e+9 
           2545      5.89026e+9 
           2555      5.85059e+9 
           2565      5.78388e+9 
           2575      5.73109e+9 
           2585      5.66372e+9 
           2595      5.58541e+9 
           2605      5.54078e+9 
           2615      5.45832e+9 
           2625      5.39658e+9 
           2635      5.32407e+9 
           2645      5.25088e+9 
           2655      5.18013e+9 
           2665       5.0755e+9 
           2675      5.01188e+9 
           2685      4.99134e+9 
           2695       4.8706e+9 
           2705      4.83295e+9 
           2715      4.78122e+9 
           2725      4.70119e+9 
           2735      4.63494e+9 
           2745      4.61423e+9 
           2755      4.56055e+9 
           2765      4.47474e+9 
           2775      4.46745e+9 
           2785      4.39798e+9 
           2795      4.26173e+9 
           2805      4.27204e+9 
           2815      4.25278e+9 
           2825       4.1715e+9 
           2835      4.09596e+9 
           2845      4.10361e+9 
           2855      4.03734e+9 
           2865      3.99185e+9 
           2875      3.94308e+9 
           2885      3.90257e+9 
           2895       3.8526e+9 
           2910      3.76876e+9 
           2930      3.69958e+9 
           2950      3.58686e+9 
           2970      3.52783e+9 
           2990      3.43945e+9 
           3010       3.3403e+9 
           3030      3.27177e+9 
           3050      3.21373e+9 
           3070      3.15497e+9 
           3090      3.04426e+9 
           3110      3.01182e+9 
           3130      2.93415e+9 
           3150       2.8759e+9 
           3170      2.81273e+9 
           3190      2.74052e+9 
           3210      2.69207e+9 
           3230      2.63247e+9 
           3250      2.58612e+9 
           3270      2.52523e+9 
           3290      2.47346e+9 
           3310      2.42472e+9 
           3330      2.36853e+9 
           3350      2.32013e+9 
           3370      2.27274e+9 
           3390      2.23462e+9 
           3410      2.18918e+9 
           3430      2.14179e+9 
           3450      2.09031e+9 
           3470      2.05152e+9 
           3490      2.00986e+9 
           3510      1.97448e+9 
           3530      1.94207e+9 
           3550      1.90196e+9 
           3570      1.87243e+9 
           3590      1.82234e+9 
           3610      1.79549e+9 
           3630      1.75512e+9 
           3640      1.74924e+9 
           3650      1.70543e+9 
           3670      1.68219e+9 
           3690      1.65056e+9 
           3710      1.59154e+9 
           3730      1.54042e+9 
           3750       1.5385e+9 
           3770      1.50197e+9 
           3790      1.55102e+9 
           3810      1.59351e+9 
           3830      1.42159e+9 
           3850      1.60581e+9 
           3870      1.59172e+9 
           3890      1.33841e+9 
           3910      1.57457e+9 
           3930      1.53998e+9 
           3950      1.50542e+9 
           3970      1.23824e+9 
           3990      1.45773e+9 
           4010      1.44548e+9 
           4030      1.37513e+9 
           4050        1.406e+9 
           4070      1.34818e+9 
           4090      1.25664e+9 
           4110      1.13371e+9 
           4130       1.2818e+9 
           4150      1.27173e+9 
           4170      1.26443e+9 
           4190      1.24031e+9 
           4210      1.22366e+9 
           4230      1.20262e+9 
           4250      1.17158e+9 
           4270      1.14383e+9 
           4290      1.12556e+9 
           4310      1.09696e+9 
           4330      1.01506e+9 
           4350       9.3493e+8 
           4370      1.04554e+9 
           4390      1.02079e+9 
           4410      1.01977e+9 
           4430      1.00974e+9 
           4450      9.91529e+8 
           4470      9.43535e+8 
           4490      9.59627e+8 
           4510      9.48116e+8 
           4530      9.34347e+8 
           4550      9.15688e+8 
           4570      9.02044e+8 
           4590      8.85635e+8 
           4610       8.6992e+8 
           4630       8.5583e+8 
           4650      8.24946e+8 
           4670      8.28311e+8 
           4690      8.14496e+8 
           4710      7.90935e+8 
           4730      7.96266e+8 
           4750      7.82245e+8 
           4770      7.74192e+8 
           4790      7.61944e+8 
           4810       7.4761e+8 
           4830      7.30693e+8 
           4850      6.84575e+8 
           4870      6.20144e+8 
           4890      6.98235e+8 
           4910      6.91121e+8 
           4930      6.68242e+8 
           4950      6.69757e+8 
           4970      6.64423e+8 
           4990      6.54311e+8 
           5010      6.34359e+8 
           5030      6.33895e+8 
           5050      6.22133e+8 
           5070      6.16766e+8 
           5090      6.07028e+8 
           5110      5.98188e+8 
           5130      5.89167e+8 
           5150      5.80765e+8 
           5170      5.72193e+8 
           5190      5.64756e+8 
           5210       5.5664e+8 
           5230      5.48975e+8 
           5250      5.41083e+8 
           5270      5.33212e+8 
           5290      5.26092e+8 
           5310      5.18662e+8 
           5330      5.11449e+8 
           5350      5.04276e+8 
           5370       4.9743e+8 
           5390      4.90115e+8 
           5410      4.82623e+8 
           5430      4.77133e+8 
           5450      4.70377e+8 
           5470      4.63985e+8 
           5490      4.57773e+8 
           5510      4.51714e+8 
           5530      4.45484e+8 
           5550      4.39661e+8 
           5570      4.33729e+8 
           5590      4.27786e+8 
           5610      4.22251e+8 
           5630      4.16725e+8 
           5650      4.10959e+8 
           5670      4.05089e+8 
           5690      3.98348e+8 
           5710      3.93563e+8 
           5730      3.88755e+8 
           5750       3.8282e+8 
           5770      3.78926e+8 
           5790      3.73953e+8 
           5810       3.6915e+8 
           5830       3.6415e+8 
           5850      3.59771e+8 
           5870      3.45888e+8 
           5890      3.49656e+8 
           5910      3.46431e+8 
           5930      3.42223e+8 
           5950      3.37905e+8 
           5970      3.34217e+8 
           5990      3.29658e+8 
           6010       3.2583e+8 
           6030      3.21632e+8 
           6050      3.17738e+8 
           6070       3.1393e+8 
           6090      3.10063e+8 
           6110      3.06251e+8 
           6130      3.02541e+8 
           6150      2.98505e+8 
           6170       2.9496e+8 
           6190      2.91572e+8 
           6210      2.88105e+8 
           6230      2.84627e+8 
           6250      2.81082e+8 
           6270      2.77788e+8 
           6290       2.7451e+8 
           6310      2.71145e+8 
           6330      2.68015e+8 
           6350      2.64703e+8 
           6370      2.61716e+8 
           6390      2.58613e+8 
           6410      2.55563e+8 
           6430      2.52627e+8 
           6450      2.49659e+8 
           6470      2.46426e+8 
           6490      2.43639e+8 
           6510      2.40829e+8 
           6530      2.37068e+8 
           6550      2.28027e+8 
           6570      2.04655e+8 
           6590      2.27635e+8 
           6610      2.27139e+8 
           6630      2.24922e+8 
           6650      2.22268e+8 
           6670      2.17821e+8 
           6690      2.15426e+8 
           6710      2.14922e+8 
           6730      2.12249e+8 
           6750      2.10266e+8 
           6770       2.0794e+8 
           6790      2.05246e+8 
           6810      2.03295e+8 
           6830      2.00943e+8 
           6850      1.98856e+8 
           6870      1.96654e+8 
           6890        1.943e+8 
           6910      1.92002e+8 
           6930      1.90307e+8 
           6950      1.88246e+8 
           6970      1.86205e+8 
           6990      1.84193e+8 
           7010      1.82185e+8 
           7030      1.80182e+8 
           7050      1.78274e+8 
           7070      1.73875e+8 
           7090      1.74507e+8 
           7110       1.7258e+8 
           7130      1.70784e+8 
           7150      1.69019e+8 
           7170      1.67198e+8 
           7190      1.65475e+8 
           7210      1.63739e+8 
           7230      1.61112e+8 
           7250      1.60095e+8 
           7270      1.58652e+8 
           7290      1.55862e+8 
           7310      1.55356e+8 
           7330      1.53759e+8 
           7350       1.5217e+8 
           7370      1.50617e+8 
           7390      1.49079e+8 
           7410      1.47548e+8 
           7430      1.46038e+8 
           7450      1.44556e+8 
           7470      1.42723e+8 
           7490      1.41586e+8 
           7510      1.40178e+8 
           7530      1.38756e+8 
           7550      1.37408e+8 
           7570      1.36032e+8 
           7590      1.34642e+8 
           7610      1.33181e+8 
           7630      1.31992e+8 
           7650      1.30672e+8 
           7670      1.29395e+8 
           7690      1.28086e+8 
           7710      1.26846e+8 
           7730      1.25541e+8 
           7750      1.24367e+8 
           7770      1.23104e+8 
           7790      1.21957e+8 
           7810      1.20722e+8 
           7830      1.19602e+8 
           7850      1.18516e+8 
           7870      1.17234e+8 
           7890      1.16041e+8 
           7910      1.15112e+8 
           7930      1.13975e+8 
           7950      1.12889e+8 
           7970      1.11754e+8 
           7990      1.10729e+8 
           8010      1.09666e+8 
           8030      1.08594e+8 
           8050      1.07573e+8 
           8070       1.0656e+8 
           8090       1.0543e+8 
           8110      1.04097e+8 
           8130      1.03603e+8 
           8150      1.02522e+8 
           8170      1.01682e+8 
           8190        1.004e+8 
           8210       9.9341e+7 
           8230      9.85083e+7 
           8250      9.77767e+7 
           8270      9.62522e+7 
           8290      9.59145e+7 
           8310      9.51096e+7 
           8330      9.42029e+7 
           8350       9.2974e+7 
           8370       9.2342e+7 
           8390      9.16561e+7 
           8410      9.07999e+7 
           8430      8.99667e+7 
           8450      8.86444e+7 
           8470      8.83313e+7 
           8490      8.73668e+7 
           8510      8.65873e+7 
           8530      8.57727e+7 
           8550      8.46968e+7 
           8570      8.47585e+7 
