# Kurucz ODFNEW /NOVER (2003)
# teff = 27000 K (value for the effective temperature for the model. Temperatures are given in K)
# logg = 4 log(cm/s2) (value for Log(G) for the model.)
# meta = -2.5  (value for the Metallicity for the model.)
# lh = 1.25  (l/Hp where l is the  mixing length of the convective element and Hp is the pressure scale height)
# vtur = 2 km/s (Microturbulence velocity)
# alpha = 0  (Alpha)
#
# column 1: WAVELENGTH (ANGSTROM), Wavelength in Angstrom
# column 2: FLUX (ERG/CM2/S/A), Flux in erg/cm2/s/A
          147.2     1.71345e-11 
            151     7.21868e-11 
          155.2     3.25131e-10 
          158.8      1.10771e-9 
            162        3.142e-9 
            166      1.09083e-8 
          170.3      3.89004e-8 
          173.4      9.33781e-8 
          176.8      2.35174e-7 
          180.2       5.7144e-7 
          181.7      8.36407e-7 
          186.1      2.46456e-6 
            191      7.72481e-6 
          193.9      1.47617e-5 
          198.4       3.8774e-5 
          201.8      7.80587e-5 
            205     0.000147509 
          210.5     0.000420419 
          216.2      0.00117341 
          219.8      0.00217918 
            223      0.00371199 
          226.8      0.00684523 
            230       0.0994309 
            234        0.229818 
            240        0.504144 
          246.5         1.13653 
          252.4         2.30541 
          256.8         3.48279 
            260         5.33869 
            264         8.11771 
          268.5         12.8379 
          273.5         20.9416 
          278.5         33.5729 
            284         55.2978 
            290         92.9998 
            296         152.612 
            301         224.243 
            308         361.555 
            318         798.693 
            328          1562.5 
            338         2937.52 
            348         5302.03 
            357         8744.21 
            366         14078.6 
            375         21968.3 
            385         35272.4 
            395         54967.1 
            405           83635 
            414          119844 
            422          162209 
            430          216584 
            441          317820 
            451          441757 
            460          584696 
            470          788812 
            480      1.04745e+6 
            490      1.37342e+6 
            500      1.77801e+6 
            506      1.12829e+7 
            512      3.36499e+7 
            520      3.74849e+7 
            530      4.53832e+7 
            540      4.64904e+7 
            550      5.80238e+7 
            560      6.40548e+7 
            570      7.20772e+7 
            580      7.14296e+7 
            590      8.58469e+7 
            600      9.58965e+7 
            610      1.06104e+8 
            620      1.15332e+8 
            630      1.26621e+8 
            640      1.35626e+8 
            650      1.49203e+8 
            658      1.59397e+8 
            665      1.68096e+8 
            675      1.78498e+8 
            685      1.89704e+8 
            695      2.10061e+8 
            705      2.21827e+8 
            716      2.40277e+8 
            726      2.55632e+8 
            735      2.72471e+8 
            745      2.90401e+8 
            755      3.08098e+8 
            765      3.25466e+8 
            775      3.45396e+8 
            785      3.65178e+8 
            795      3.83563e+8 
            805      4.03864e+8 
            815      4.23008e+8 
            825      4.44802e+8 
            835      4.55436e+8 
            845      4.85183e+8 
            855      5.05429e+8 
            865      5.28572e+8 
            875      5.52036e+8 
            885      5.74552e+8 
            895      5.96728e+8 
            905      6.14938e+8 
            915      9.24336e+8 
            925      7.30013e+9 
            935      1.6624e+10 
            945     3.41996e+10 
            955     4.00148e+10 
            965     4.92381e+10 
            975     2.58817e+10 
            985       4.941e+10 
            995     4.66181e+10 
           1005     4.82948e+10 
           1015     4.53439e+10 
           1025      2.3325e+10 
           1035     4.25182e+10 
           1045     4.55687e+10 
           1055     4.45668e+10 
           1065     4.19502e+10 
           1075     4.19785e+10 
           1085     3.91442e+10 
           1095     4.07638e+10 
           1105     3.92457e+10 
           1115     3.84388e+10 
           1125       3.655e+10 
           1135     3.70903e+10 
           1145     3.58676e+10 
           1155     3.55316e+10 
           1165     3.48549e+10 
           1175     3.09815e+10 
           1185      3.3098e+10 
           1195     3.18526e+10 
           1205     2.95956e+10 
           1215     1.53777e+10 
           1225     2.88429e+10 
           1235     2.97412e+10 
           1245     2.89615e+10 
           1255     2.87147e+10 
           1265      2.8093e+10 
           1275     2.75892e+10 
           1285     2.70177e+10 
           1295     2.56653e+10 
           1305     2.54438e+10 
           1315     2.53655e+10 
           1325     2.46536e+10 
           1335     2.38586e+10 
           1345     2.37926e+10 
           1355      2.3377e+10 
           1365     2.28518e+10 
           1375      2.2403e+10 
           1385     2.19687e+10 
           1395     2.10315e+10 
           1405     2.07275e+10 
           1415     2.06369e+10 
           1425     2.02221e+10 
           1435     1.98845e+10 
           1442     1.96448e+10 
           1447     1.94427e+10 
           1455     1.91316e+10 
           1465     1.87538e+10 
           1475      1.8393e+10 
           1485     1.80504e+10 
           1495     1.76951e+10 
           1505     1.73028e+10 
           1512     1.70819e+10 
           1517     1.69319e+10 
           1525     1.66591e+10 
           1535     1.61678e+10 
           1545     1.57903e+10 
           1555     1.54685e+10 
           1565     1.53923e+10 
           1575     1.51738e+10 
           1585     1.49167e+10 
           1595     1.46525e+10 
           1605     1.42565e+10 
           1615     1.39963e+10 
           1625      1.3809e+10 
           1635     1.35441e+10 
           1645     1.30033e+10 
           1655     1.31435e+10 
           1665     1.29253e+10 
           1672     1.27467e+10 
           1677     1.27017e+10 
           1685     1.25092e+10 
           1695     1.22761e+10 
           1705      1.2045e+10 
           1715     1.17903e+10 
           1725     1.16064e+10 
           1735     1.14552e+10 
           1745     1.12512e+10 
           1755     1.10739e+10 
           1765     1.08308e+10 
           1775     1.06822e+10 
           1785     1.05323e+10 
           1795     1.03643e+10 
           1805     1.02087e+10 
           1815     1.00205e+10 
           1825      9.86122e+9 
           1835      9.70436e+9 
           1845      9.47671e+9 
           1855      9.22723e+9 
           1865      9.12649e+9 
           1875       9.0728e+9 
           1885      8.83525e+9 
           1895      8.61625e+9 
           1905      8.61094e+9 
           1915      8.37445e+9 
           1925      8.23765e+9 
           1935      8.17254e+9 
           1945      8.10067e+9 
           1955      7.86198e+9 
           1967      7.82642e+9 
           1976      7.75645e+9 
           1984      7.60664e+9 
           1995      7.40874e+9 
           2005      7.40138e+9 
           2015      7.31306e+9 
           2025       7.2163e+9 
           2035      7.08451e+9 
           2045      6.97774e+9 
           2055      6.68314e+9 
           2065      6.54789e+9 
           2074      6.55459e+9 
           2078      6.45592e+9 
           2085      6.48969e+9 
           2095      6.42908e+9 
           2105      6.39705e+9 
           2115      6.32053e+9 
           2125      6.23699e+9 
           2135      6.14416e+9 
           2145      6.04917e+9 
           2155      5.97231e+9 
           2165      5.88464e+9 
           2175      5.80572e+9 
           2185       5.7194e+9 
           2195      5.64778e+9 
           2205      5.56862e+9 
           2215      5.48444e+9 
           2225       5.4144e+9 
           2235      5.33853e+9 
           2245      5.26738e+9 
           2255      5.18684e+9 
           2265      5.12454e+9 
           2275      5.05506e+9 
           2285      4.98681e+9 
           2295      4.87285e+9 
           2305      4.84648e+9 
           2315      4.78698e+9 
           2325      4.72331e+9 
           2335      4.65945e+9 
           2345      4.59924e+9 
           2355      4.53894e+9 
           2365      4.47915e+9 
           2375       4.4198e+9 
           2385      4.35639e+9 
           2395      4.30518e+9 
           2405      4.24965e+9 
           2415      4.19405e+9 
           2425      4.14089e+9 
           2435        4.087e+9 
           2445      4.03511e+9 
           2455      3.98399e+9 
           2465      3.93332e+9 
           2475      3.88333e+9 
           2485      3.83426e+9 
           2495      3.72843e+9 
           2505       3.7381e+9 
           2513      3.68439e+9 
           2518      3.67708e+9 
           2525      3.64585e+9 
           2535      3.60073e+9 
           2545      3.55277e+9 
           2555      3.51163e+9 
           2565       3.4693e+9 
           2575      3.42706e+9 
           2585      3.38532e+9 
           2595      3.34423e+9 
           2605       3.3236e+9 
           2615      3.28335e+9 
           2625      3.24313e+9 
           2635       3.1993e+9 
           2645      3.16013e+9 
           2655      3.11874e+9 
           2665      3.07729e+9 
           2675      3.03826e+9 
           2685      3.01855e+9 
           2695      2.96341e+9 
           2705      2.94761e+9 
           2715      2.91306e+9 
           2725      2.85884e+9 
           2735      2.84236e+9 
           2745      2.81204e+9 
           2755      2.77975e+9 
           2765      2.72656e+9 
           2775      2.71624e+9 
           2785      2.68492e+9 
           2795      2.64949e+9 
           2805      2.62288e+9 
           2815       2.5942e+9 
           2825      2.54046e+9 
           2835       2.5244e+9 
           2845      2.50724e+9 
           2855      2.47894e+9 
           2865      2.45124e+9 
           2875      2.42392e+9 
           2885      2.39696e+9 
           2895      2.37032e+9 
           2910      2.33104e+9 
           2930      2.28002e+9 
           2950        2.216e+9 
           2970      2.18229e+9 
           2990      2.13528e+9 
           3010      2.08954e+9 
           3030      2.04534e+9 
           3050      2.00216e+9 
           3070      1.96009e+9 
           3090      1.91859e+9 
           3110       1.8793e+9 
           3130      1.84221e+9 
           3150      1.80431e+9 
           3170      1.76681e+9 
           3190      1.71726e+9 
           3210       1.6949e+9 
           3230      1.66112e+9 
           3250      1.62758e+9 
           3270      1.59691e+9 
           3290      1.56315e+9 
           3310      1.53455e+9 
           3330      1.50449e+9 
           3350      1.47254e+9 
           3370      1.44659e+9 
           3390      1.41872e+9 
           3410       1.3915e+9 
           3430      1.35899e+9 
           3450       1.3285e+9 
           3470      1.30725e+9 
           3490      1.28254e+9 
           3510      1.26246e+9 
           3530      1.24106e+9 
           3550      1.21833e+9 
           3570      1.20197e+9 
           3590      1.17291e+9 
           3610      1.15409e+9 
           3630       1.1306e+9 
           3640      1.12775e+9 
           3650      1.11488e+9 
           3670      1.09929e+9 
           3690      1.07495e+9 
           3710      1.03868e+9 
           3730      9.98897e+8 
           3750      1.04201e+9 
           3770      1.03851e+9 
           3790      1.08116e+9 
           3810      1.12097e+9 
           3830      9.87711e+8 
           3850      1.13795e+9 
           3870      1.13782e+9 
           3890      9.36614e+8 
           3910      1.11365e+9 
           3930      1.09514e+9 
           3950      1.07621e+9 
           3970      8.68508e+8 
           3990      1.03385e+9 
           4010      1.02168e+9 
           4030      9.69885e+8 
           4050      9.96665e+8 
           4070        9.755e+8 
           4090      9.12361e+8 
           4110       8.0466e+8 
           4130      9.16352e+8 
           4150      9.05397e+8 
           4170      8.96148e+8 
           4190      8.82957e+8 
           4210      8.67999e+8 
           4230      8.53557e+8 
           4250      8.39181e+8 
           4270      8.24706e+8 
           4290      8.11384e+8 
           4310      7.94685e+8 
           4330      7.32546e+8 
           4350      6.71115e+8 
           4370      7.55041e+8 
           4390      7.29313e+8 
           4410      7.34839e+8 
           4430      7.20425e+8 
           4450      7.11624e+8 
           4470      6.74368e+8 
           4490      6.88817e+8 
           4510      6.78202e+8 
           4530       6.6749e+8 
           4550      6.56777e+8 
           4570      6.46603e+8 
           4590      6.36528e+8 
           4610      6.26656e+8 
           4630      6.16966e+8 
           4650      6.07018e+8 
           4670      5.98064e+8 
           4690      5.87905e+8 
           4710      5.73379e+8 
           4730       5.7115e+8 
           4750      5.62443e+8 
           4770      5.54078e+8 
           4790       5.4575e+8 
           4810      5.37475e+8 
           4830      5.27188e+8 
           4850      4.93428e+8 
           4870      4.43747e+8 
           4890      5.02876e+8 
           4910      4.97975e+8 
           4930      4.81248e+8 
           4950      4.84486e+8 
           4970      4.77499e+8 
           4990      4.70577e+8 
           5010      4.58662e+8 
           5030      4.57137e+8 
           5050       4.4819e+8 
           5070      4.44163e+8 
           5090      4.37858e+8 
           5110      4.31653e+8 
           5130       4.2556e+8 
           5150      4.19576e+8 
           5170      4.13701e+8 
           5190      4.07917e+8 
           5210      4.02251e+8 
           5230      3.96674e+8 
           5250      3.91197e+8 
           5270      3.85806e+8 
           5290      3.80511e+8 
           5310      3.75312e+8 
           5330      3.70206e+8 
           5350       3.6518e+8 
           5370      3.60244e+8 
           5390      3.55384e+8 
           5410      3.50547e+8 
           5430      3.45913e+8 
           5450      3.41298e+8 
           5470      3.36755e+8 
           5490      3.32293e+8 
           5510        3.279e+8 
           5530      3.23586e+8 
           5550      3.19338e+8 
           5570      3.15167e+8 
           5590      3.11059e+8 
           5610      3.07013e+8 
           5630      3.03041e+8 
           5650      2.99129e+8 
           5670      2.95277e+8 
           5690      2.91471e+8 
           5710      2.87769e+8 
           5730        2.841e+8 
           5750      2.80486e+8 
           5770      2.76938e+8 
           5790      2.73444e+8 
           5810      2.70013e+8 
           5830      2.66623e+8 
           5850      2.63284e+8 
           5870      2.52823e+8 
           5890      2.56549e+8 
           5910      2.53597e+8 
           5930      2.50464e+8 
           5950      2.47379e+8 
           5970       2.4435e+8 
           5990      2.41356e+8 
           6010      2.38417e+8 
           6030      2.35512e+8 
           6050      2.32661e+8 
           6070      2.29852e+8 
           6090      2.27085e+8 
           6110       2.2436e+8 
           6130      2.21675e+8 
           6150       2.1903e+8 
           6170      2.16425e+8 
           6190      2.13859e+8 
           6210      2.11331e+8 
           6230      2.08831e+8 
           6250      2.06378e+8 
           6270      2.03961e+8 
           6290      2.01581e+8 
           6310      1.99226e+8 
           6330      1.96916e+8 
           6350      1.94631e+8 
           6370      1.92381e+8 
           6390      1.90163e+8 
           6410      1.87979e+8 
           6430      1.85828e+8 
           6450      1.83708e+8 
           6470      1.81611e+8 
           6490      1.79554e+8 
           6510      1.77519e+8 
           6530      1.74985e+8 
           6550      1.68509e+8 
           6570      1.50902e+8 
           6590      1.68464e+8 
           6610      1.67671e+8 
           6630      1.65915e+8 
           6650      1.64177e+8 
           6670      1.60857e+8 
           6690      1.59114e+8 
           6710      1.58803e+8 
           6730      1.57053e+8 
           6750      1.55339e+8 
           6770      1.53641e+8 
           6790      1.51969e+8 
           6810      1.50323e+8 
           6830      1.48693e+8 
           6850      1.47087e+8 
           6870      1.45505e+8 
           6890       1.4394e+8 
           6910      1.42405e+8 
           6930      1.40879e+8 
           6950      1.39383e+8 
           6970      1.37902e+8 
           6990      1.36427e+8 
           7010      1.34998e+8 
           7030      1.33576e+8 
           7050      1.32175e+8 
           7070      1.28722e+8 
           7090      1.29421e+8 
           7110      1.28068e+8 
           7130      1.26735e+8 
           7150      1.25423e+8 
           7170      1.24101e+8 
           7190      1.22843e+8 
           7210      1.21576e+8 
           7230      1.20292e+8 
           7250      1.19098e+8 
           7270      1.17881e+8 
           7290      1.15732e+8 
           7310      1.15481e+8 
           7330      1.14325e+8 
           7350      1.13167e+8 
           7370      1.12027e+8 
           7390      1.10904e+8 
           7410      1.09791e+8 
           7430      1.08689e+8 
           7450      1.07618e+8 
           7470      1.06549e+8 
           7490      1.05491e+8 
           7510      1.04409e+8 
           7530       1.0341e+8 
           7550      1.02393e+8 
           7570      1.01386e+8 
           7590      1.00388e+8 
           7610      9.94059e+7 
           7630      9.84389e+7 
           7650      9.74807e+7 
           7670      9.65311e+7 
           7690      9.55965e+7 
           7710      9.46702e+7 
           7730      9.37585e+7 
           7750       9.2855e+7 
           7770      9.19657e+7 
           7790      9.10844e+7 
           7810      9.01614e+7 
           7830      8.93573e+7 
           7850      8.85969e+7 
           7870      8.77579e+7 
           7890      8.68839e+7 
           7910      8.61079e+7 
           7930      8.52967e+7 
           7950       8.4427e+7 
           7970      8.34819e+7 
           7990      8.27281e+7 
           8010      8.19338e+7 
           8030       8.1164e+7 
           8050      8.04705e+7 
           8070      7.97713e+7 
           8090      7.88766e+7 
           8110      7.82647e+7 
           8130      7.76122e+7 
           8150       7.6778e+7 
           8170      7.62163e+7 
           8190      7.54177e+7 
           8210      7.46147e+7 
           8230       7.4158e+7 
           8250       7.3511e+7 
           8270      7.24729e+7 
           8290      7.21126e+7 
           8310      7.14877e+7 
           8330      7.08137e+7 
           8350      6.98318e+7 
           8370      6.94286e+7 
           8390      6.89053e+7 
           8410      6.82797e+7 
           8430      6.75956e+7 
           8450      6.65585e+7 
           8470      6.62918e+7 
           8490      6.56819e+7 
           8510      6.49158e+7 
           8530      6.46065e+7 
           8550      6.30884e+7 
           8570      6.42203e+7 
           8590      6.15781e+7 
