# Kurucz ODFNEW /NOVER (2003)
# teff = 21000 K (value for the effective temperature for the model. Temperatures are given in K)
# logg = 5 log(cm/s2) (value for Log(G) for the model.)
# meta = 0.2  (value for the Metallicity for the model.)
# lh = 1.25  (l/Hp where l is the  mixing length of the convective element and Hp is the pressure scale height)
# vtur = 2 km/s (Microturbulence velocity)
# alpha = 0.4  (Alpha)
#
# column 1: WAVELENGTH (ANGSTROM), Wavelength in Angstrom
# column 2: FLUX (ERG/CM2/S/A), Flux in erg/cm2/s/A
          147.2     1.33358e-17 
            151     6.97646e-17 
          155.2      3.9556e-16 
          158.8     1.62584e-15 
            162      5.4237e-15 
            166     2.29174e-14 
          170.3     9.96819e-14 
          173.4     2.76825e-13 
          176.8     8.11761e-13 
          180.2     2.28692e-12 
          181.7     3.56488e-12 
          186.1     1.26029e-11 
            191     4.81556e-11 
          193.9     1.02887e-10 
          198.4     3.20228e-10 
          201.8     7.31733e-10 
            205      1.55559e-9 
          210.5      5.38182e-9 
          216.2       1.8256e-8 
          219.8      3.82538e-8 
            223      7.23088e-8 
          226.8      1.50668e-7 
            230      8.13849e-7 
            234       1.9682e-6 
            240      5.59934e-6 
          246.5       1.6233e-5 
          252.4        4.087e-5 
          256.8      7.75667e-5 
            260     0.000126082 
            264     0.000221705 
          268.5     0.000409383 
          273.5     0.000787532 
          278.5      0.00149133 
            284      0.00296569 
            290      0.00598288 
            296       0.0117096 
            301       0.0201078 
            308       0.0416784 
            318        0.112973 
            328        0.278545 
            338        0.672378 
            348         1.51542 
            357         3.34108 
            366         6.53728 
            375         11.9578 
            385         22.9576 
            395         42.4284 
            405         75.8098 
            414         125.691 
            422         190.032 
            430         285.817 
            441         488.769 
            451         779.663 
            460         1153.85 
            470         1763.58 
            480         2634.33 
            490         3882.15 
            500         5629.54 
            506           46134 
            512          265678 
            520          331059 
            530          453953 
            540          520690 
            550          758017 
            560          918098 
            570      1.18074e+6 
            580      1.25158e+6 
            590      1.71222e+6 
            600      2.07651e+6 
            610      2.57231e+6 
            620      2.94288e+6 
            630      3.41951e+6 
            640      3.63034e+6 
            650      3.54375e+6 
            658      4.79174e+6 
            665      5.43714e+6 
            675      6.12276e+6 
            685      6.83031e+6 
            695      8.31492e+6 
            705      9.12594e+6 
            716      1.05107e+7 
            726      1.15383e+7 
            735      1.26424e+7 
            745      1.44359e+7 
            755      1.60731e+7 
            765      1.78173e+7 
            775      1.97822e+7 
            785      2.17867e+7 
            795      2.33378e+7 
            805      2.53451e+7 
            815      2.73558e+7 
            825      3.01544e+7 
            835      3.06084e+7 
            845      3.40506e+7 
            855      3.66544e+7 
            865      3.97557e+7 
            875      4.29849e+7 
            885      4.70772e+7 
            895      5.03654e+7 
            905       5.1356e+7 
            915      7.18608e+7 
            925      2.64539e+8 
            935      6.29243e+8 
            945      1.98071e+9 
            955      4.35334e+9 
            965      6.31911e+9 
            975      1.19071e+9 
            985      8.90157e+9 
            995      8.35481e+9 
           1005      1.0434e+10 
           1015      8.57183e+9 
           1025      1.50054e+9 
           1035      5.61142e+9 
           1045     1.33957e+10 
           1055     1.31416e+10 
           1065      9.69803e+9 
           1075     1.24061e+10 
           1085     1.12165e+10 
           1095      1.2856e+10 
           1105     1.05087e+10 
           1115      9.33926e+9 
           1125      8.84386e+9 
           1135     1.19559e+10 
           1145      9.52179e+9 
           1155     1.08049e+10 
           1165     1.12592e+10 
           1175      7.94976e+9 
           1185     1.12166e+10 
           1195       6.8124e+9 
           1205      3.31786e+9 
           1215      1.55645e+9 
           1225      4.41494e+9 
           1235      9.66928e+9 
           1245     1.05091e+10 
           1255     1.02218e+10 
           1265      9.41738e+9 
           1275     1.01432e+10 
           1285     1.07384e+10 
           1295      5.90156e+9 
           1305      5.10646e+9 
           1315      9.92049e+9 
           1325       9.3254e+9 
           1335      8.54911e+9 
           1345      9.20319e+9 
           1355      9.11115e+9 
           1365      7.85233e+9 
           1375      7.94636e+9 
           1385      8.10816e+9 
           1395      6.43161e+9 
           1405      6.90547e+9 
           1415      7.19676e+9 
           1425      7.47754e+9 
           1435      7.44906e+9 
           1442      7.95287e+9 
           1447      7.83863e+9 
           1455      7.62561e+9 
           1465      7.08409e+9 
           1475       6.9707e+9 
           1485      6.72065e+9 
           1495      6.83297e+9 
           1505      6.05388e+9 
           1512      5.59835e+9 
           1517      5.93229e+9 
           1525       6.0659e+9 
           1535      5.34422e+9 
           1545      5.48564e+9 
           1555      5.19579e+9 
           1565      5.31049e+9 
           1575      5.67215e+9 
           1585      5.64504e+9 
           1595      5.71412e+9 
           1605      5.66039e+9 
           1615      5.63948e+9 
           1625      5.42077e+9 
           1635      5.67682e+9 
           1645      5.64671e+9 
           1655       5.3058e+9 
           1665      5.67005e+9 
           1672      5.45099e+9 
           1677      5.60741e+9 
           1685      5.64956e+9 
           1695      5.34497e+9 
           1705      5.05839e+9 
           1715      4.75673e+9 
           1725      4.69338e+9 
           1735      4.91201e+9 
           1745      4.74898e+9 
           1755      4.85537e+9 
           1765       4.5457e+9 
           1775      4.49821e+9 
           1785      4.50187e+9 
           1795      4.73843e+9 
           1805      4.72192e+9 
           1815      4.26851e+9 
           1825      4.44672e+9 
           1835      4.20707e+9 
           1845      3.86908e+9 
           1855      3.78993e+9 
           1865      3.83572e+9 
           1875      4.12786e+9 
           1885      3.72316e+9 
           1895      3.49545e+9 
           1905      3.76467e+9 
           1915      3.53479e+9 
           1925      3.42395e+9 
           1935      3.56392e+9 
           1945      3.58593e+9 
           1955      3.32618e+9 
           1967      3.60295e+9 
           1976      3.74619e+9 
           1984      3.45054e+9 
           1995      3.37729e+9 
           2005      3.47573e+9 
           2015      3.28581e+9 
           2025       3.5386e+9 
           2035      3.25511e+9 
           2045      3.29839e+9 
           2055      3.15619e+9 
           2065      3.22412e+9 
           2074      3.29473e+9 
           2078      3.09177e+9 
           2085      3.21109e+9 
           2095       3.0224e+9 
           2105      3.09824e+9 
           2115      3.08813e+9 
           2125      3.13222e+9 
           2135      3.01947e+9 
           2145      2.93161e+9 
           2155      3.02793e+9 
           2165      2.97447e+9 
           2175      2.93101e+9 
           2185      2.84964e+9 
           2195      2.88246e+9 
           2205      2.82321e+9 
           2215      2.76583e+9 
           2225      2.65945e+9 
           2235      2.70637e+9 
           2245      2.68613e+9 
           2255      2.57819e+9 
           2265      2.63728e+9 
           2275      2.61735e+9 
           2285       2.6191e+9 
           2295      2.49304e+9 
           2305      2.48989e+9 
           2315      2.41824e+9 
           2325      2.38675e+9 
           2335      2.27638e+9 
           2345      2.25913e+9 
           2355      2.26431e+9 
           2365      2.20101e+9 
           2375      2.20943e+9 
           2385      2.15743e+9 
           2395      2.20356e+9 
           2405      2.11831e+9 
           2415      2.12438e+9 
           2425      2.13669e+9 
           2435      2.05265e+9 
           2445      2.07799e+9 
           2455      2.06472e+9 
           2465      2.02748e+9 
           2475      1.99114e+9 
           2485      2.01249e+9 
           2495      1.91662e+9 
           2505      1.96877e+9 
           2513       1.8756e+9 
           2518      1.93845e+9 
           2525      1.87436e+9 
           2535      1.85573e+9 
           2545      1.78813e+9 
           2555      1.83759e+9 
           2565      1.81384e+9 
           2575       1.8404e+9 
           2585      1.83521e+9 
           2595      1.82081e+9 
           2605      1.78915e+9 
           2615      1.77472e+9 
           2625      1.75784e+9 
           2635      1.74816e+9 
           2645      1.76033e+9 
           2655      1.74586e+9 
           2665      1.67597e+9 
           2675      1.69742e+9 
           2685      1.68339e+9 
           2695      1.63959e+9 
           2705      1.63388e+9 
           2715      1.60975e+9 
           2725      1.58213e+9 
           2735      1.59853e+9 
           2745      1.52561e+9 
           2755      1.52379e+9 
           2765      1.51831e+9 
           2775      1.53791e+9 
           2785       1.5163e+9 
           2795      1.42382e+9 
           2805      1.46669e+9 
           2815      1.48111e+9 
           2825      1.45162e+9 
           2835      1.39335e+9 
           2845      1.40303e+9 
           2855      1.40135e+9 
           2865      1.40912e+9 
           2875      1.38593e+9 
           2885      1.37485e+9 
           2895      1.36294e+9 
           2910       1.3418e+9 
           2930      1.31166e+9 
           2950      1.27709e+9 
           2970      1.26627e+9 
           2990      1.23489e+9 
           3010      1.21496e+9 
           3030      1.20082e+9 
           3050      1.17508e+9 
           3070      1.15358e+9 
           3090       1.1241e+9 
           3110      1.10552e+9 
           3130      1.08867e+9 
           3150      1.06783e+9 
           3170      1.04476e+9 
           3190      1.01252e+9 
           3210       1.0058e+9 
           3230      9.88685e+8 
           3250      9.72916e+8 
           3270      9.56154e+8 
           3290      9.38056e+8 
           3310      9.23281e+8 
           3330      9.05361e+8 
           3350      8.86963e+8 
           3370      8.72552e+8 
           3390      8.58189e+8 
           3410      8.43746e+8 
           3430       8.2561e+8 
           3450      8.08469e+8 
           3470      7.95797e+8 
           3490      7.82032e+8 
           3510      7.69598e+8 
           3530      7.57456e+8 
           3550      7.45238e+8 
           3570      7.36941e+8 
           3590      7.16622e+8 
           3610      7.07201e+8 
           3630      6.95055e+8 
           3640      6.95108e+8 
           3650      6.87487e+8 
           3670      6.79427e+8 
           3690        6.689e+8 
           3710      6.45751e+8 
           3730      6.18563e+8 
           3750      6.21413e+8 
           3770      6.09986e+8 
           3790      6.51928e+8 
           3810      6.89507e+8 
           3830      5.88893e+8 
           3850      7.18791e+8 
           3870      7.47855e+8 
           3890       5.4846e+8 
           3910      7.48575e+8 
           3930      7.39902e+8 
           3950      7.25064e+8 
           3970      5.12261e+8 
           3990      6.87551e+8 
           4010      7.09011e+8 
           4030      6.51469e+8 
           4050       6.9767e+8 
           4070      6.65927e+8 
           4090      5.83175e+8 
           4110       4.9649e+8 
           4130      6.21694e+8 
           4150      6.27879e+8 
           4170      6.28521e+8 
           4190      6.23244e+8 
           4210      6.17825e+8 
           4230      6.05722e+8 
           4250      5.91442e+8 
           4270      5.70604e+8 
           4290      5.69246e+8 
           4310      5.50469e+8 
           4330      4.67775e+8 
           4350      4.21316e+8 
           4370      5.19142e+8 
           4390      5.04395e+8 
           4410       5.1802e+8 
           4430      5.09686e+8 
           4450      5.06047e+8 
           4470      4.64442e+8 
           4490      4.83654e+8 
           4510       4.8619e+8 
           4530      4.75866e+8 
           4550      4.69599e+8 
           4570      4.62864e+8 
           4590      4.55657e+8 
           4610      4.47298e+8 
           4630      4.39031e+8 
           4650      4.30802e+8 
           4670      4.27517e+8 
           4690       4.2357e+8 
           4710      4.03882e+8 
           4730       4.0667e+8 
           4750      4.00481e+8 
           4770      3.99729e+8 
           4790      3.91719e+8 
           4810      3.81368e+8 
           4830      3.70272e+8 
           4850      3.24238e+8 
           4870      2.84474e+8 
           4890      3.52938e+8 
           4910      3.54772e+8 
           4930      3.39097e+8 
           4950      3.48278e+8 
           4970      3.45541e+8 
           4990      3.39887e+8 
           5010      3.24526e+8 
           5030      3.28681e+8 
           5050      3.17411e+8 
           5070      3.21405e+8 
           5090      3.16281e+8 
           5110      3.10838e+8 
           5130       3.0527e+8 
           5150      3.00972e+8 
           5170      2.99282e+8 
           5190      2.94826e+8 
           5210      2.87084e+8 
           5230      2.87468e+8 
           5250      2.83697e+8 
           5270      2.79038e+8 
           5290      2.76569e+8 
           5310      2.72565e+8 
           5330      2.67925e+8 
           5350      2.63569e+8 
           5370      2.62041e+8 
           5390      2.58543e+8 
           5410      2.54499e+8 
           5430      2.50379e+8 
           5450      2.47466e+8 
           5470      2.43532e+8 
           5490      2.42011e+8 
           5510      2.38644e+8 
           5530      2.35394e+8 
           5550      2.32709e+8 
           5570      2.29426e+8 
           5590      2.26968e+8 
           5610      2.23521e+8 
           5630      2.21555e+8 
           5650      2.15788e+8 
           5670      2.13261e+8 
           5690      2.11834e+8 
           5710      2.10098e+8 
           5730      2.07808e+8 
           5750      2.04929e+8 
           5770      2.02821e+8 
           5790      2.00287e+8 
           5810      1.97493e+8 
           5830      1.95088e+8 
           5850      1.92798e+8 
           5870      1.82554e+8 
           5890      1.86073e+8 
           5910      1.85527e+8 
           5930      1.83582e+8 
           5950      1.80317e+8 
           5970      1.79301e+8 
           5990      1.76563e+8 
           6010      1.75233e+8 
           6030      1.72985e+8 
           6050      1.71019e+8 
           6070      1.68964e+8 
           6090      1.66759e+8 
           6110      1.65063e+8 
           6130      1.63196e+8 
           6150      1.59835e+8 
           6170      1.59098e+8 
           6190      1.57531e+8 
           6210      1.55668e+8 
           6230      1.53864e+8 
           6250      1.51386e+8 
           6270      1.50134e+8 
           6290      1.48458e+8 
           6310      1.46477e+8 
           6330      1.45177e+8 
           6350       1.4218e+8 
           6370      1.41224e+8 
           6390      1.40111e+8 
           6410      1.38468e+8 
           6430      1.37334e+8 
           6450      1.35524e+8 
           6470      1.33796e+8 
           6490      1.32257e+8 
           6510      1.30299e+8 
           6530      1.27603e+8 
           6550      1.17657e+8 
           6570      1.02245e+8 
           6590      1.21022e+8 
           6610      1.23084e+8 
           6630      1.22429e+8 
           6650       1.2125e+8 
           6670      1.18297e+8 
           6690      1.17246e+8 
           6710      1.17569e+8 
           6730      1.16289e+8 
           6750      1.15195e+8 
           6770      1.13998e+8 
           6790       1.1211e+8 
           6810      1.11428e+8 
           6830       1.1013e+8 
           6850      1.09199e+8 
           6870      1.08045e+8 
           6890      1.06887e+8 
           6910      1.05757e+8 
           6930      1.04473e+8 
           6950      1.03615e+8 
           6970      1.02548e+8 
           6990       1.0143e+8 
           7010        1.003e+8 
           7030      9.92956e+7 
           7050        9.821e+7 
           7070      9.54845e+7 
           7090       9.6363e+7 
           7110      9.52404e+7 
           7130      9.43067e+7 
           7150      9.32935e+7 
           7170      9.24513e+7 
           7190       9.1566e+7 
           7210      9.06529e+7 
           7230      8.85809e+7 
           7250      8.86662e+7 
           7270      8.79439e+7 
           7290      8.63136e+7 
           7310      8.61803e+7 
           7330      8.53391e+7 
           7350      8.45196e+7 
           7370       8.3687e+7 
           7390      8.28552e+7 
           7410      8.20449e+7 
           7430      8.10238e+7 
           7450      8.03653e+7 
           7470       7.9409e+7 
           7490      7.87437e+7 
           7510      7.80577e+7 
           7530      7.72914e+7 
           7550      7.65983e+7 
           7570      7.58785e+7 
           7590      7.50933e+7 
           7610      7.44194e+7 
           7630      7.37127e+7 
           7650      7.30123e+7 
           7670      7.23247e+7 
           7690      7.16305e+7 
           7710      7.09614e+7 
           7730      7.02606e+7 
           7750      6.96224e+7 
           7770      6.81662e+7 
           7790      6.83195e+7 
           7810      6.76612e+7 
           7830      6.70579e+7 
           7850      6.60931e+7 
           7870      6.55873e+7 
           7890      6.47348e+7 
           7910      6.45764e+7 
           7930      6.40354e+7 
           7950      6.30818e+7 
           7970      6.28012e+7 
           7990      6.17908e+7 
           8010      6.17058e+7 
           8030      6.11067e+7 
           8050       6.0472e+7 
           8070      5.99876e+7 
           8090      5.93575e+7 
           8110      5.88188e+7 
           8130      5.83303e+7 
           8150      5.78231e+7 
           8170      5.73598e+7 
           8190      5.67205e+7 
           8210        5.607e+7 
           8230      5.54163e+7 
           8250      5.53234e+7 
           8270      5.45973e+7 
           8290      5.43495e+7 
           8310      5.38553e+7 
           8330      5.34243e+7 
           8350      5.27516e+7 
           8370      5.23664e+7 
           8390      5.20657e+7 
           8410      5.16133e+7 
           8430      5.11131e+7 
           8450      5.00526e+7 
           8470      5.02503e+7 
           8490      4.96375e+7 
           8510       4.9264e+7 
           8530      4.88272e+7 
           8550      4.81141e+7 
           8570      4.82391e+7 
