# Kurucz ODFNEW /NOVER (2003)
# teff = 25000 K (value for the effective temperature for the model. Temperatures are given in K)
# logg = 3 log(cm/s2) (value for Log(G) for the model.)
# meta = -1  (value for the Metallicity for the model.)
# lh = 1.25  (l/Hp where l is the  mixing length of the convective element and Hp is the pressure scale height)
# vtur = 2 km/s (Microturbulence velocity)
# alpha = 0  (Alpha)
#
# column 1: WAVELENGTH (ANGSTROM), Wavelength in Angstrom
# column 2: FLUX (ERG/CM2/S/A), Flux in erg/cm2/s/A
          147.2     1.86158e-13 
            151     8.23382e-13 
          155.2     3.90899e-12 
          158.8     1.39038e-11 
            162     4.09545e-11 
            166     1.48882e-10 
          170.3     5.56129e-10 
          173.4      1.37974e-9 
          176.8      3.60034e-9 
          180.2      9.05254e-9 
          181.7      1.34432e-8 
          186.1        4.132e-8 
            191      1.35528e-7 
          193.9      2.65844e-7 
          198.4      7.26784e-7 
          201.8      1.50689e-6 
            205       2.9258e-6 
          210.5      8.72229e-6 
          216.2      2.54855e-5 
          219.8      4.87084e-5 
            223      8.50821e-5 
          226.8     0.000161675 
            230       0.0675699 
            234        0.165894 
            240        0.355067 
          246.5        0.805139 
          252.4         1.63286 
          256.8         2.30541 
            260         3.95722 
            264         5.93505 
          268.5         9.53369 
          273.5         15.5578 
          278.5         24.6334 
            284          43.802 
            290         72.8642 
            296         118.356 
            301         166.412 
            308          271.36 
            318         656.196 
            328         1245.21 
            338         2417.39 
            348         4372.84 
            357         9920.96 
            366         16931.1 
            375         25181.5 
            385         40670.8 
            395         64890.9 
            405         96039.9 
            414          137687 
            422          179245 
            430          240544 
            441          347497 
            451          474799 
            460          612951 
            470          828395 
            480      1.08426e+6 
            490      1.41725e+6 
            500      1.83196e+6 
            506       1.4014e+7 
            512      5.41273e+7 
            520      5.67992e+7 
            530      6.25124e+7 
            540      6.17883e+7 
            550      8.15155e+7 
            560       9.4449e+7 
            570      1.06843e+8 
            580      1.01721e+8 
            590       1.2488e+8 
            600      1.34032e+8 
            610      1.52069e+8 
            620       1.6946e+8 
            630      1.81664e+8 
            640      1.85008e+8 
            650      1.88151e+8 
            658      2.17233e+8 
            665      2.34271e+8 
            675      2.40784e+8 
            685      2.45006e+8 
            695      2.91923e+8 
            705      2.92909e+8 
            716      3.29944e+8 
            726      3.41116e+8 
            735      3.55094e+8 
            745      3.89215e+8 
            755         4.08e+8 
            765      4.32712e+8 
            775      4.58624e+8 
            785      4.88567e+8 
            795      5.06764e+8 
            805       5.2557e+8 
            815      5.37242e+8 
            825      5.75701e+8 
            835      5.41894e+8 
            845       6.0359e+8 
            855      6.22793e+8 
            865      6.54245e+8 
            875      6.89467e+8 
            885      7.27509e+8 
            895      7.55317e+8 
            905      7.67235e+8 
            915      1.64884e+9 
            925     1.29144e+10 
            935     1.92975e+10 
            945     2.40168e+10 
            955     2.50473e+10 
            965     2.65322e+10 
            975     1.22769e+10 
            985     2.33743e+10 
            995     2.26412e+10 
           1005     2.41161e+10 
           1015      2.4191e+10 
           1025     1.99003e+10 
           1035     2.20476e+10 
           1045     2.61114e+10 
           1055     2.49177e+10 
           1065     2.23183e+10 
           1075     2.38007e+10 
           1085     2.22007e+10 
           1095      2.3873e+10 
           1105     2.28128e+10 
           1115     2.25963e+10 
           1125     2.01068e+10 
           1135     2.24363e+10 
           1145     2.10898e+10 
           1155     2.14754e+10 
           1165     2.13121e+10 
           1175     1.59268e+10 
           1185     2.01767e+10 
           1195     1.95643e+10 
           1205     1.72688e+10 
           1215     1.48793e+10 
           1225     1.88487e+10 
           1235     1.93865e+10 
           1245      1.8791e+10 
           1255     1.87635e+10 
           1265     1.86716e+10 
           1275     1.87305e+10 
           1285     1.84741e+10 
           1295      1.6524e+10 
           1305     1.70074e+10 
           1315     1.77449e+10 
           1325     1.71206e+10 
           1335     1.65977e+10 
           1345     1.66498e+10 
           1355     1.66237e+10 
           1365     1.60632e+10 
           1375     1.57791e+10 
           1385     1.55776e+10 
           1395     1.30893e+10 
           1405     1.35751e+10 
           1415     1.46545e+10 
           1425     1.40911e+10 
           1435     1.42988e+10 
           1442     1.43998e+10 
           1447     1.41922e+10 
           1455     1.38849e+10 
           1465     1.35168e+10 
           1475     1.34269e+10 
           1485     1.32881e+10 
           1495     1.29927e+10 
           1505      1.2541e+10 
           1512      1.2019e+10 
           1517      1.2156e+10 
           1525     1.20361e+10 
           1535      1.0978e+10 
           1545     1.07328e+10 
           1555     1.03765e+10 
           1565     1.08546e+10 
           1575     1.11461e+10 
           1585     1.10609e+10 
           1595     1.09655e+10 
           1605     1.04685e+10 
           1615     1.02419e+10 
           1625     1.02605e+10 
           1635     1.04036e+10 
           1645     1.01637e+10 
           1655     1.02131e+10 
           1665     1.00876e+10 
           1672      9.81435e+9 
           1677     1.03374e+10 
           1685     1.00405e+10 
           1695      9.74387e+9 
           1705      9.51418e+9 
           1715      9.19067e+9 
           1725      9.07696e+9 
           1735      9.16998e+9 
           1745      9.01607e+9 
           1755      8.97526e+9 
           1765      8.79887e+9 
           1775      8.55377e+9 
           1785       8.5749e+9 
           1795      8.53422e+9 
           1805      8.53023e+9 
           1815      8.13252e+9 
           1825      8.16037e+9 
           1835      8.05333e+9 
           1845      7.51981e+9 
           1855      7.51373e+9 
           1865      7.58847e+9 
           1875      7.61823e+9 
           1885      7.07312e+9 
           1895      6.71929e+9 
           1905      7.03573e+9 
           1915      6.78698e+9 
           1925      6.53935e+9 
           1935      6.77982e+9 
           1945      6.85239e+9 
           1955      6.33753e+9 
           1967      6.60201e+9 
           1976      6.79412e+9 
           1984       6.4348e+9 
           1995      6.27222e+9 
           2005      6.35385e+9 
           2015      6.37129e+9 
           2025      6.41849e+9 
           2035      6.07874e+9 
           2045      6.04448e+9 
           2055      5.65341e+9 
           2065      5.61336e+9 
           2074      5.86787e+9 
           2078      5.62527e+9 
           2085      5.77917e+9 
           2095      5.59434e+9 
           2105      5.69291e+9 
           2115      5.67323e+9 
           2125      5.69204e+9 
           2135       5.5981e+9 
           2145      5.42132e+9 
           2155      5.47504e+9 
           2165      5.41156e+9 
           2175      5.33929e+9 
           2185      5.26749e+9 
           2195      5.24791e+9 
           2205      5.18144e+9 
           2215      5.11656e+9 
           2225      5.03239e+9 
           2235      4.95119e+9 
           2245      4.93102e+9 
           2255      4.84375e+9 
           2265      4.81186e+9 
           2275      4.75794e+9 
           2285      4.70397e+9 
           2295      4.47231e+9 
           2305      4.57398e+9 
           2315      4.50489e+9 
           2325      4.45214e+9 
           2335      4.37975e+9 
           2345      4.36433e+9 
           2355      4.31294e+9 
           2365      4.26375e+9 
           2375      4.20174e+9 
           2385      4.14373e+9 
           2395      4.09659e+9 
           2405      4.05419e+9 
           2415       3.9984e+9 
           2425      3.96402e+9 
           2435      3.90039e+9 
           2445      3.86521e+9 
           2455      3.82854e+9 
           2465      3.78154e+9 
           2475      3.73179e+9 
           2485      3.68016e+9 
           2495      3.28924e+9 
           2505      3.58081e+9 
           2513      3.49415e+9 
           2518       3.5286e+9 
           2525      3.51863e+9 
           2535      3.48073e+9 
           2545       3.4037e+9 
           2555      3.38397e+9 
           2565      3.35632e+9 
           2575      3.32201e+9 
           2585       3.2826e+9 
           2595      3.24627e+9 
           2605      3.22129e+9 
           2615      3.18166e+9 
           2625      3.14636e+9 
           2635      3.10831e+9 
           2645      3.07187e+9 
           2655      3.03857e+9 
           2665      2.99247e+9 
           2675      2.96066e+9 
           2685      2.94299e+9 
           2695       2.8828e+9 
           2705       2.8657e+9 
           2715      2.83768e+9 
           2725      2.79685e+9 
           2735      2.77114e+9 
           2745      2.74569e+9 
           2755       2.7186e+9 
           2765       2.6731e+9 
           2775      2.66297e+9 
           2785      2.63028e+9 
           2795      2.57103e+9 
           2805      2.56408e+9 
           2815      2.54856e+9 
           2825      2.50699e+9 
           2835      2.46951e+9 
           2845      2.46675e+9 
           2855      2.43554e+9 
           2865      2.41214e+9 
           2875      2.38705e+9 
           2885      2.36288e+9 
           2895      2.33571e+9 
           2910      2.29612e+9 
           2930      2.25079e+9 
           2950      2.19159e+9 
           2970      2.15675e+9 
           2990      2.11118e+9 
           3010      2.06068e+9 
           3030       2.0256e+9 
           3050      1.98613e+9 
           3070      1.94734e+9 
           3090      1.89499e+9 
           3110      1.86836e+9 
           3130       1.8301e+9 
           3150      1.79349e+9 
           3170      1.75721e+9 
           3190      1.71422e+9 
           3210       1.6885e+9 
           3230      1.65542e+9 
           3250      1.62483e+9 
           3270      1.59311e+9 
           3290       1.5612e+9 
           3310      1.53338e+9 
           3330      1.50302e+9 
           3350      1.47315e+9 
           3370      1.44689e+9 
           3390      1.42082e+9 
           3410      1.39448e+9 
           3430       1.3636e+9 
           3450      1.33458e+9 
           3470      1.31254e+9 
           3490      1.28879e+9 
           3510      1.26974e+9 
           3530      1.24777e+9 
           3550      1.22496e+9 
           3570      1.20655e+9 
           3590       1.1787e+9 
           3610      1.15848e+9 
           3630       1.1374e+9 
           3640       1.1329e+9 
           3650      1.10863e+9 
           3670      1.09277e+9 
           3690       1.0604e+9 
           3710      1.04448e+9 
           3730       1.0309e+9 
           3750       1.0852e+9 
           3770      1.07292e+9 
           3790      1.07683e+9 
           3810      1.09691e+9 
           3830      1.01088e+9 
           3850      1.08303e+9 
           3870      1.06054e+9 
           3890      9.68979e+8 
           3910      1.03536e+9 
           3930      1.00968e+9 
           3950      9.99187e+8 
           3970      8.99079e+8 
           3990      9.66499e+8 
           4010      9.48307e+8 
           4030      9.20245e+8 
           4050      9.21331e+8 
           4070      8.99471e+8 
           4090      8.74864e+8 
           4110      8.10815e+8 
           4130       8.5451e+8 
           4150       8.4264e+8 
           4170      8.33255e+8 
           4190      8.20277e+8 
           4210       8.0808e+8 
           4230      7.95383e+8 
           4250      7.80886e+8 
           4270      7.65344e+8 
           4290      7.56136e+8 
           4310      7.42909e+8 
           4330      7.17717e+8 
           4350      6.70876e+8 
           4370      7.08721e+8 
           4390      6.93384e+8 
           4410      6.86896e+8 
           4430      6.77425e+8 
           4450       6.6804e+8 
           4470      6.46803e+8 
           4490      6.47743e+8 
           4510      6.38492e+8 
           4530      6.28883e+8 
           4550       6.1838e+8 
           4570      6.08921e+8 
           4590      5.99853e+8 
           4610      5.91185e+8 
           4630      5.82346e+8 
           4650      5.67538e+8 
           4670      5.64483e+8 
           4690      5.55774e+8 
           4710      5.43168e+8 
           4730       5.4111e+8 
           4750      5.32639e+8 
           4770       5.2641e+8 
           4790      5.18723e+8 
           4810       5.1095e+8 
           4830       5.0311e+8 
           4850      4.89616e+8 
           4870      4.53739e+8 
           4890      4.82379e+8 
           4910      4.75629e+8 
           4930      4.63563e+8 
           4950        4.617e+8 
           4970      4.56055e+8 
           4990      4.49622e+8 
           5010       4.3873e+8 
           5030      4.37125e+8 
           5050       4.2937e+8 
           5070      4.25198e+8 
           5090      4.19289e+8 
           5110      4.13547e+8 
           5130      4.07637e+8 
           5150      4.02105e+8 
           5170      3.96815e+8 
           5190      3.91539e+8 
           5210      3.86249e+8 
           5230      3.81055e+8 
           5250      3.75957e+8 
           5270      3.70871e+8 
           5290      3.65999e+8 
           5310      3.61109e+8 
           5330      3.56388e+8 
           5350      3.51689e+8 
           5370      3.47088e+8 
           5390      3.42468e+8 
           5410       3.3783e+8 
           5430      3.33672e+8 
           5450        3.293e+8 
           5470      3.25045e+8 
           5490      3.20856e+8 
           5510      3.16782e+8 
           5530      3.12671e+8 
           5550      3.08734e+8 
           5570      3.04772e+8 
           5590      3.00908e+8 
           5610      2.97114e+8 
           5630      2.93379e+8 
           5650      2.89618e+8 
           5670      2.85785e+8 
           5690       2.8172e+8 
           5710      2.78779e+8 
           5730      2.75345e+8 
           5750      2.71712e+8 
           5770      2.68678e+8 
           5790      2.65342e+8 
           5810        2.621e+8 
           5830      2.58809e+8 
           5850      2.55721e+8 
           5870      2.47783e+8 
           5890      2.49274e+8 
           5910      2.46468e+8 
           5930      2.43426e+8 
           5950      2.40505e+8 
           5970      2.37797e+8 
           5990      2.34846e+8 
           6010      2.32107e+8 
           6030      2.29306e+8 
           6050      2.26629e+8 
           6070      2.23993e+8 
           6090      2.21356e+8 
           6110      2.18749e+8 
           6130      2.16201e+8 
           6150      2.13592e+8 
           6170      2.11131e+8 
           6190      2.08717e+8 
           6210      2.06319e+8 
           6230      2.03939e+8 
           6250      2.01575e+8 
           6270      1.99266e+8 
           6290      1.96991e+8 
           6310      1.94732e+8 
           6330      1.92526e+8 
           6350      1.90315e+8 
           6370      1.88184e+8 
           6390      1.86048e+8 
           6410      1.83954e+8 
           6430        1.819e+8 
           6450      1.79859e+8 
           6470      1.77786e+8 
           6490      1.75816e+8 
           6510      1.73919e+8 
           6530      1.71945e+8 
           6550      1.68702e+8 
           6570        1.553e+8 
           6590       1.6581e+8 
           6610      1.64506e+8 
           6630      1.62744e+8 
           6650         1.61e+8 
           6670        1.583e+8 
           6690      1.56605e+8 
           6710      1.55841e+8 
           6730      1.54092e+8 
           6750      1.52511e+8 
           6770       1.5088e+8 
           6790      1.49142e+8 
           6810      1.47658e+8 
           6830      1.46076e+8 
           6850       1.4455e+8 
           6870      1.43015e+8 
           6890      1.41464e+8 
           6910      1.39967e+8 
           6930      1.38541e+8 
           6950      1.37097e+8 
           6970       1.3566e+8 
           6990      1.34238e+8 
           7010      1.32852e+8 
           7030      1.31464e+8 
           7050      1.30113e+8 
           7070      1.27139e+8 
           7090      1.27442e+8 
           7110      1.26123e+8 
           7130      1.24831e+8 
           7150      1.23566e+8 
           7170      1.22284e+8 
           7190      1.21065e+8 
           7210      1.19837e+8 
           7230      1.18151e+8 
           7250      1.17378e+8 
           7270      1.16249e+8 
           7290      1.14336e+8 
           7310      1.13915e+8 
           7330       1.1279e+8 
           7350      1.11668e+8 
           7370      1.10556e+8 
           7390      1.09462e+8 
           7410      1.08378e+8 
           7430      1.07311e+8 
           7450       1.0626e+8 
           7470      1.05158e+8 
           7490      1.04181e+8 
           7510       1.0314e+8 
           7530      1.02167e+8 
           7550      1.01171e+8 
           7570       1.0019e+8 
           7590      9.92176e+7 
           7610      9.82479e+7 
           7630      9.73194e+7 
           7650      9.63799e+7 
           7670      9.54617e+7 
           7690      9.45389e+7 
           7710      9.36372e+7 
           7730      9.27497e+7 
           7750       9.1864e+7 
           7770       9.0986e+7 
           7790       9.0147e+7 
           7810      8.92473e+7 
           7830       8.8454e+7 
           7850       8.7686e+7 
           7870      8.68455e+7 
           7890      8.59943e+7 
           7910      8.52469e+7 
           7930        8.444e+7 
           7950      8.36223e+7 
           7970       8.2782e+7 
           7990      8.20554e+7 
           8010      8.12527e+7 
           8030      8.05271e+7 
           8050      7.98136e+7 
           8070      7.91119e+7 
           8090      7.82722e+7 
           8110      7.75258e+7 
           8130      7.69852e+7 
           8150      7.61598e+7 
           8170      7.56067e+7 
           8190      7.48504e+7 
           8210      7.39273e+7 
           8230      7.34015e+7 
           8250      7.27915e+7 
           8270      7.18174e+7 
           8290       7.1411e+7 
           8310      7.07949e+7 
           8330      7.01513e+7 
           8350      6.92915e+7 
           8370      6.87349e+7 
           8390      6.81989e+7 
           8410        6.755e+7 
           8430      6.69224e+7 
           8450      6.61047e+7 
           8470      6.53938e+7 
           8490      6.54467e+7 
           8510       6.3969e+7 
           8530      6.45496e+7 
           8550      6.21453e+7 
           8570      6.41177e+7 
           8590       6.1619e+7 
