# Kurucz ODFNEW /NOVER (2003)
# teff = 6250 K (value for the effective temperature for the model. Temperatures are given in K)
# logg = 2 log(cm/s2) (value for Log(G) for the model.)
# meta = -4  (value for the Metallicity for the model.)
# lh = 1.25  (l/Hp where l is the  mixing length of the convective element and Hp is the pressure scale height)
# vtur = 2 km/s (Microturbulence velocity)
# alpha = 0.4  (Alpha)
#
# column 1: WAVELENGTH (ANGSTROM), Wavelength in Angstrom
# column 2: FLUX (ERG/CM2/S/A), Flux in erg/cm2/s/A
          147.2     1.73866e-35 
            151     1.65225e-35 
          155.2     1.56403e-35 
          158.8     1.49392e-35 
            162     1.43549e-35 
            166     1.36714e-35 
          170.3     1.29897e-35 
          173.4     1.25294e-35 
          176.8     1.20522e-35 
          180.2     1.16017e-35 
          181.7     1.14109e-35 
          186.1     1.08777e-35 
            191     1.03267e-35 
          193.9     1.00201e-35 
          198.4     9.57076e-36 
          201.8     9.25097e-36 
            205     8.96441e-36 
          210.5     8.50208e-36 
          216.2     8.05969e-36 
          219.8     7.79784e-36 
            223     7.57565e-36 
          226.8     7.32392e-36 
            230     7.12154e-36 
            234     6.88015e-36 
            240     6.54044e-36 
          246.5     6.20006e-36 
          252.4     5.91358e-36 
          256.8     5.71267e-36 
            260     5.57292e-36 
            264     5.40532e-36 
          268.5     5.22566e-36 
          273.5     5.03634e-36 
          278.5     4.85712e-36 
            284     4.67082e-36 
            290     4.47954e-36 
            296     4.29978e-36 
            301     4.15812e-36 
            308     3.97126e-36 
            318     3.72542e-36 
            328     3.50172e-36 
            338     3.29759e-36 
            348     3.11079e-36 
            357     7.48174e-24 
            366     9.87412e-23 
            375     6.87985e-22 
            385     5.16276e-21 
            395     3.48129e-20 
            405     2.12886e-19 
            414     1.00537e-18 
            422     3.77229e-18 
            430     1.34512e-17 
            441     7.14597e-17 
            451     3.03086e-16 
            460     1.05224e-15 
            470     3.95796e-15 
            480     1.40575e-14 
            490     4.73101e-14 
            500      1.5137e-13 
            506     2.67514e-13 
            512     5.64482e-13 
            520     1.32467e-12 
            530     3.76729e-12 
            540     1.01243e-11 
            550     2.62029e-11 
            560     6.54459e-11 
            570     1.58043e-10 
            580     3.63526e-10 
            590     8.38924e-10 
            600      1.84985e-9 
            610      3.96928e-9 
            620      8.29873e-9 
            630      1.69277e-8 
            640      3.37245e-8 
            650     3.64184e-11 
            658     5.83997e-11 
            665     8.73704e-11 
            675     1.52858e-10 
            685     2.62589e-10 
            695     4.43324e-10 
            705     7.36086e-10 
            716      1.26241e-9 
            726      2.02876e-9 
            735      3.07165e-9 
            745      4.80678e-9 
            755       7.4219e-9 
            765       1.1313e-8 
            775      1.70324e-8 
            785      2.53411e-8 
            795      3.72757e-8 
            805      5.42353e-8 
            815      7.80825e-8 
            825      1.11299e-7 
            835      1.57138e-7 
            845      2.19778e-7 
            855      3.04615e-7 
            865      4.18542e-7 
            875      5.70242e-7 
            885      7.70751e-7 
            895      1.03369e-6 
            905      1.37587e-6 
            915        0.014715 
            925       0.0659918 
            935       0.0949596 
            945        0.150042 
            955         0.22991 
            965        0.230445 
            975        0.166476 
            985        0.552577 
            995        0.671665 
           1005        0.698984 
           1015        0.496589 
           1025        0.840862 
           1035         1.05705 
           1045         2.02025 
           1055         2.86731 
           1065         3.91336 
           1075         4.85311 
           1085         5.96668 
           1095         6.85985 
           1105         7.95343 
           1115         6.60172 
           1125         5.50468 
           1135          4.8124 
           1145          4.4063 
           1155         4.13915 
           1165         4.01621 
           1175         3.98388 
           1185         26.8819 
           1195         14.9077 
           1205          13.548 
           1215          12.052 
           1225         18.1114 
           1235         27.3749 
           1245         8.97185 
           1255         11.9451 
           1265         14.7968 
           1275         18.4063 
           1285         23.5612 
           1295         30.3109 
           1305         37.9887 
           1315         50.4848 
           1325         64.2937 
           1335         83.5718 
           1345         110.791 
           1355         143.621 
           1365         187.464 
           1375         244.973 
           1385         324.405 
           1395         436.118 
           1405         609.324 
           1415         661.686 
           1425         776.065 
           1435         884.403 
           1442         965.429 
           1447         1054.43 
           1455         1147.24 
           1465         1325.96 
           1475         1490.94 
           1485         1680.18 
           1495         1896.44 
           1505         2118.14 
           1512         2295.99 
           1517         2450.48 
           1525         2660.05 
           1535         2958.71 
           1545          3317.3 
           1555          3670.5 
           1565          3986.6 
           1575          4482.1 
           1585         4930.78 
           1595         5427.87 
           1605         5931.68 
           1615         6479.39 
           1625          7087.4 
           1635         7845.12 
           1645         9042.12 
           1655         10874.3 
           1665         20212.9 
           1672         31553.8 
           1677         49798.3 
           1685         88275.6 
           1695          157339 
           1705          241561 
           1715          341900 
           1725          425178 
           1735          513377 
           1745          560586 
           1755          633451 
           1765          651181 
           1775          717677 
           1785          767239 
           1795          842069 
           1805          858099 
           1815          910299 
           1825          929793 
           1835      1.00272e+6 
           1845          996245 
           1855      1.08062e+6 
           1865      1.15069e+6 
           1875      1.19225e+6 
           1885      1.24674e+6 
           1895      1.29919e+6 
           1905      1.30687e+6 
           1915      1.39927e+6 
           1925      1.47566e+6 
           1935      1.48902e+6 
           1945      1.58259e+6 
           1955      1.63022e+6 
           1967      1.70814e+6 
           1976      1.71153e+6 
           1984      1.74762e+6 
           1995      1.83356e+6 
           2005      1.85533e+6 
           2015      1.90136e+6 
           2025       1.9146e+6 
           2035      2.04165e+6 
           2045      2.09704e+6 
           2055      2.10487e+6 
           2065      2.16325e+6 
           2074       2.2765e+6 
           2078      2.29253e+6 
           2085      2.30706e+6 
           2095      2.35143e+6 
           2105      2.39682e+6 
           2115      2.46786e+6 
           2125       2.5005e+6 
           2135      2.51573e+6 
           2145      2.61318e+6 
           2155      2.65323e+6 
           2165      2.65217e+6 
           2175       2.7285e+6 
           2185      2.80143e+6 
           2195      2.89771e+6 
           2205      2.89969e+6 
           2215      2.84976e+6 
           2225      2.96795e+6 
           2235      3.11023e+6 
           2245      3.11294e+6 
           2255      3.07479e+6 
           2265      3.06349e+6 
           2275      3.22631e+6 
           2285       3.2876e+6 
           2295       3.2804e+6 
           2305      3.37367e+6 
           2315      3.40019e+6 
           2325      3.44586e+6 
           2335      3.46187e+6 
           2345      3.37226e+6 
           2355      3.59399e+6 
           2365      3.49321e+6 
           2375      3.63403e+6 
           2385      3.44474e+6 
           2395      3.68682e+6 
           2405      3.72416e+6 
           2415      3.77425e+6 
           2425      3.96671e+6 
           2435      3.93203e+6 
           2445      4.01904e+6 
           2455      4.05881e+6 
           2465      4.03308e+6 
           2475      4.04827e+6 
           2485      4.07561e+6 
           2495      4.09075e+6 
           2505      4.26414e+6 
           2513      4.13335e+6 
           2518      4.13953e+6 
           2525      4.09534e+6 
           2535      4.15127e+6 
           2545       4.2583e+6 
           2555      4.45096e+6 
           2565      4.45687e+6 
           2575      4.56038e+6 
           2585      4.61746e+6 
           2595      4.61618e+6 
           2605      4.58935e+6 
           2615      4.61118e+6 
           2625      4.66982e+6 
           2635      4.75571e+6 
           2645      4.99461e+6 
           2655      5.01894e+6 
           2665      4.94661e+6 
           2675      5.02194e+6 
           2685      5.12621e+6 
           2695      5.11454e+6 
           2705      5.17956e+6 
           2715       5.0873e+6 
           2725      5.12968e+6 
           2735      5.19549e+6 
           2745      5.00271e+6 
           2755       5.0831e+6 
           2765      5.24646e+6 
           2775      5.39756e+6 
           2785      5.39335e+6 
           2795      4.82065e+6 
           2805      5.12854e+6 
           2815      5.60609e+6 
           2825      5.63209e+6 
           2835      5.58493e+6 
           2845      5.62672e+6 
           2855      5.52313e+6 
           2865      5.61361e+6 
           2875       5.6986e+6 
           2885      5.72841e+6 
           2895      5.83814e+6 
           2910      5.91024e+6 
           2930      5.89873e+6 
           2950      5.91988e+6 
           2970      6.00656e+6 
           2990      6.06258e+6 
           3010       6.1407e+6 
           3030      6.19573e+6 
           3050      6.26458e+6 
           3070      6.26597e+6 
           3090      6.37056e+6 
           3110      6.42015e+6 
           3130      6.47257e+6 
           3150      6.51099e+6 
           3170      6.56031e+6 
           3190      6.55272e+6 
           3210      6.63182e+6 
           3230      6.59653e+6 
           3250      6.69428e+6 
           3270      6.80113e+6 
           3290      6.86348e+6 
           3310      6.90424e+6 
           3330      6.88033e+6 
           3350      6.87361e+6 
           3370      6.93458e+6 
           3390      6.96281e+6 
           3410      7.07026e+6 
           3430      7.10364e+6 
           3450      7.10381e+6 
           3470      7.13918e+6 
           3490      7.18718e+6 
           3510      7.23027e+6 
           3530      7.26648e+6 
           3550      7.30142e+6 
           3570      7.28783e+6 
           3590      7.32027e+6 
           3610      7.34836e+6 
           3630      7.38169e+6 
           3640      7.39635e+6 
           3650      7.43816e+6 
           3670      7.38612e+6 
           3690       7.5824e+6 
           3710      9.16937e+6 
           3730      1.04959e+7 
           3750      1.28499e+7 
           3770       1.3181e+7 
           3790      1.43114e+7 
           3810      1.55751e+7 
           3830      1.36285e+7 
           3850      1.62449e+7 
           3870      1.67946e+7 
           3890      1.31976e+7 
           3910      1.67287e+7 
           3930      1.65874e+7 
           3950      1.67219e+7 
           3970      1.29405e+7 
           3990      1.64984e+7 
           4010      1.67925e+7 
           4030      1.67538e+7 
           4050      1.66822e+7 
           4070      1.64825e+7 
           4090      1.54582e+7 
           4110      1.33799e+7 
           4130      1.62884e+7 
           4150      1.63399e+7 
           4170      1.63096e+7 
           4190      1.62399e+7 
           4210      1.61567e+7 
           4230      1.60685e+7 
           4250      1.60136e+7 
           4270      1.59338e+7 
           4290      1.58336e+7 
           4310      1.56534e+7 
           4330      1.44064e+7 
           4350      1.30472e+7 
           4370      1.54453e+7 
           4390      1.54536e+7 
           4410      1.54234e+7 
           4430      1.53728e+7 
           4450      1.52929e+7 
           4470      1.52233e+7 
           4490      1.51549e+7 
           4510      1.50798e+7 
           4530      1.50035e+7 
           4550      1.49236e+7 
           4570      1.48607e+7 
           4590      1.47916e+7 
           4610      1.47236e+7 
           4630      1.46501e+7 
           4650      1.45794e+7 
           4670       1.4508e+7 
           4690      1.44373e+7 
           4710      1.43644e+7 
           4730       1.4295e+7 
           4750      1.42251e+7 
           4770      1.41535e+7 
           4790      1.40821e+7 
           4810      1.39794e+7 
           4830      1.38377e+7 
           4850       1.2965e+7 
           4870      1.14798e+7 
           4890      1.35787e+7 
           4910       1.3621e+7 
           4930      1.35826e+7 
           4950      1.35223e+7 
           4970      1.34559e+7 
           4990      1.33862e+7 
           5010      1.33141e+7 
           5030       1.3251e+7 
           5050      1.31822e+7 
           5070      1.31157e+7 
           5090      1.30484e+7 
           5110      1.29812e+7 
           5130      1.29137e+7 
           5150      1.28465e+7 
           5170      1.27465e+7 
           5190      1.26978e+7 
           5210      1.26461e+7 
           5230      1.25785e+7 
           5250      1.25194e+7 
           5270      1.24479e+7 
           5290      1.23889e+7 
           5310      1.23237e+7 
           5330      1.22562e+7 
           5350      1.21958e+7 
           5370      1.21308e+7 
           5390      1.20676e+7 
           5410      1.20037e+7 
           5430      1.19405e+7 
           5450      1.18778e+7 
           5470      1.18168e+7 
           5490      1.17552e+7 
           5510      1.16933e+7 
           5530      1.16312e+7 
           5550      1.15711e+7 
           5570      1.15098e+7 
           5590      1.14488e+7 
           5610      1.13891e+7 
           5630        1.133e+7 
           5650      1.12703e+7 
           5670      1.12111e+7 
           5690      1.11522e+7 
           5710      1.10934e+7 
           5730       1.1035e+7 
           5750      1.09769e+7 
           5770      1.09189e+7 
           5790      1.08611e+7 
           5810      1.08035e+7 
           5830      1.07462e+7 
           5850       1.0689e+7 
           5870      1.06324e+7 
           5890      1.05706e+7 
           5910      1.05198e+7 
           5930      1.04639e+7 
           5950      1.04084e+7 
           5970      1.03531e+7 
           5990      1.02982e+7 
           6010      1.02436e+7 
           6030      1.01893e+7 
           6050      1.01353e+7 
           6070      1.00816e+7 
           6090      1.00282e+7 
           6110      9.97495e+6 
           6130      9.92159e+6 
           6150      9.86912e+6 
           6170      9.81643e+6 
           6190      9.76519e+6 
           6210      9.71353e+6 
           6230      9.66203e+6 
           6250      9.61081e+6 
           6270      9.56004e+6 
           6290      9.50943e+6 
           6310      9.45909e+6 
           6330      9.40862e+6 
           6350      9.35879e+6 
           6370       9.3094e+6 
           6390      9.26044e+6 
           6410      9.21191e+6 
           6430       9.1629e+6 
           6450      9.11341e+6 
           6470      9.06525e+6 
           6490      9.01662e+6 
           6510      8.95508e+6 
           6530      8.87027e+6 
           6550      8.52632e+6 
           6570      7.40814e+6 
           6590      8.67912e+6 
           6610      8.70773e+6 
           6630       8.6887e+6 
           6650      8.64333e+6 
           6670       8.5975e+6 
           6690      8.55207e+6 
           6710      8.50702e+6 
           6730      8.46235e+6 
           6750      8.41724e+6 
           6770      8.37334e+6 
           6790      8.32898e+6 
           6810      8.28501e+6 
           6830       8.2414e+6 
           6850      8.19817e+6 
           6870      8.15529e+6 
           6890      8.11198e+6 
           6910      8.06983e+6 
           6930      8.02724e+6 
           6950        7.985e+6 
           6970      7.94312e+6 
           6990      7.90159e+6 
           7010      7.85963e+6 
           7030      7.81878e+6 
           7050      7.77752e+6 
           7070      7.73659e+6 
           7090      7.69675e+6 
           7110      7.65649e+6 
           7130      7.61582e+6 
           7150      7.57622e+6 
           7170      7.53622e+6 
           7190      7.49726e+6 
           7210       7.4579e+6 
           7230      7.41886e+6 
           7250      7.38013e+6 
           7270      7.34172e+6 
           7290      7.30291e+6 
           7310      7.26512e+6 
           7330      7.22693e+6 
           7350      7.18975e+6 
           7370      7.15216e+6 
           7390      7.11488e+6 
           7410      7.07721e+6 
           7430      7.04053e+6 
           7450      7.00414e+6 
           7470      6.96736e+6 
           7490      6.93154e+6 
           7510      6.89534e+6 
           7530      6.85942e+6 
           7550      6.82379e+6 
           7570      6.78844e+6 
           7590      6.75336e+6 
           7610      6.71856e+6 
           7630      6.68339e+6 
           7650      6.64913e+6 
           7670       6.6145e+6 
           7690      6.58078e+6 
           7710      6.54668e+6 
           7730      6.51285e+6 
           7750      6.47928e+6 
           7770      6.44534e+6 
           7790      6.41291e+6 
           7810      6.37949e+6 
           7830      6.34694e+6 
           7850      6.31403e+6 
           7870      6.28198e+6 
           7890      6.24956e+6 
           7910       6.2174e+6 
           7930      6.18548e+6 
           7950       6.1538e+6 
           7970      6.12236e+6 
           7990      6.09116e+6 
           8010      6.06019e+6 
           8030      6.02887e+6 
           8050      5.99837e+6 
           8070      5.96752e+6 
           8090      5.93747e+6 
           8110      5.90708e+6 
           8130      5.87691e+6 
           8150      5.84697e+6 
           8170      5.81725e+6 
           8190      5.78775e+6 
           8210       5.7607e+6 
           8230      5.73274e+6 
           8250      5.70442e+6 
           8270      5.67632e+6 
           8290      5.64732e+6 
           8310      5.61635e+6 
           8330      5.58452e+6 
           8350       5.5578e+6 
           8370       5.5103e+6 
           8390      5.48674e+6 
           8410      5.44895e+6 
           8430       5.4507e+6 
           8450      5.41965e+6 
           8470      5.32109e+6 
           8490      5.42985e+6 
           8510      5.21605e+6 
           8530      5.40493e+6 
           8550      5.10711e+6 
           8570      5.38281e+6 
           8590      5.25158e+6 
