# Kurucz ODFNEW /NOVER (2003)
# teff = 22000 K (value for the effective temperature for the model. Temperatures are given in K)
# logg = 4 log(cm/s2) (value for Log(G) for the model.)
# meta = 0.5  (value for the Metallicity for the model.)
# lh = 1.25  (l/Hp where l is the  mixing length of the convective element and Hp is the pressure scale height)
# vtur = 2 km/s (Microturbulence velocity)
# alpha = 0  (Alpha)
#
# column 1: WAVELENGTH (ANGSTROM), Wavelength in Angstrom
# column 2: FLUX (ERG/CM2/S/A), Flux in erg/cm2/s/A
          147.2     1.83515e-17 
            151     9.13611e-17 
          155.2     4.93406e-16 
          158.8     1.95734e-15 
            162     6.35045e-15 
            166      2.6029e-14 
          170.3     1.10131e-13 
          173.4     3.00694e-13 
          176.8     8.67406e-13 
          180.2     2.40978e-12 
          181.7      3.7365e-12 
          186.1      1.3063e-11 
            191     4.95218e-11 
          193.9     1.05592e-10 
          198.4       3.282e-10 
          201.8      7.4931e-10 
            205      1.59208e-9 
          210.5      5.53171e-9 
          216.2      1.88814e-8 
          219.8      3.97503e-8 
            223        7.558e-8 
          226.8      1.58526e-7 
            230      3.65143e-6 
            234      8.89878e-6 
            240      2.40571e-5 
          246.5      6.67312e-5 
          252.4     0.000162896 
          256.8     0.000298356 
            260     0.000496335 
            264     0.000849555 
          268.5      0.00152898 
          273.5      0.00285777 
          278.5      0.00528455 
            284       0.0105112 
            290       0.0205405 
            296       0.0391912 
            301       0.0655319 
            308        0.135376 
            318        0.356988 
            328        0.843075 
            338         1.99039 
            348         4.34391 
            357         12.2638 
            366          23.746 
            375         41.0471 
            385         75.4552 
            395         138.378 
            405         236.454 
            414         380.695 
            422         566.308 
            430         849.037 
            441         1405.95 
            451         2145.16 
            460         3083.63 
            470         4644.23 
            480         6778.35 
            490         9844.23 
            500         13945.9 
            506         69720.5 
            512      1.14819e+6 
            520      1.37951e+6 
            530      1.76308e+6 
            540      2.00121e+6 
            550      3.05219e+6 
            560      3.65449e+6 
            570      4.66395e+6 
            580       4.5903e+6 
            590      6.34044e+6 
            600      7.55227e+6 
            610      9.28692e+6 
            620      1.02532e+7 
            630       1.1113e+7 
            640       1.0155e+7 
            650      6.73262e+6 
            658       1.1911e+7 
            665      1.57107e+7 
            675      1.78217e+7 
            685       1.8878e+7 
            695      2.50625e+7 
            705      2.63243e+7 
            716       3.0152e+7 
            726      3.20796e+7 
            735      3.39571e+7 
            745      3.95209e+7 
            755       4.3283e+7 
            765      4.76267e+7 
            775      5.20117e+7 
            785      5.64099e+7 
            795        5.936e+7 
            805       6.2687e+7 
            815      6.61379e+7 
            825      7.31457e+7 
            835      6.65629e+7 
            845      7.77755e+7 
            855      8.08523e+7 
            865      8.78805e+7 
            875      9.50404e+7 
            885      1.04853e+8 
            895      1.11261e+8 
            905      1.08043e+8 
            915      1.74608e+8 
            925      1.24041e+9 
            935      3.08615e+9 
            945      6.56031e+9 
            955      9.69102e+9 
            965     1.04383e+10 
            975      1.41779e+9 
            985      7.64894e+9 
            995      9.15011e+9 
           1005     1.26056e+10 
           1015     1.28715e+10 
           1025      6.06245e+9 
           1035      8.58102e+9 
           1045     1.71025e+10 
           1055      1.5761e+10 
           1065     1.12565e+10 
           1075     1.44452e+10 
           1085     1.22687e+10 
           1095     1.49184e+10 
           1105     1.26225e+10 
           1115     1.11877e+10 
           1125      8.95757e+9 
           1135     1.36707e+10 
           1145     1.18715e+10 
           1155     1.26623e+10 
           1165     1.25521e+10 
           1175      6.65008e+9 
           1185     1.23134e+10 
           1195      9.88238e+9 
           1205      4.57698e+9 
           1215      4.85693e+9 
           1225      9.82051e+9 
           1235     1.28617e+10 
           1245      1.2506e+10 
           1255     1.22329e+10 
           1265     1.22104e+10 
           1275     1.27357e+10 
           1285     1.29836e+10 
           1295      6.94839e+9 
           1305      7.37742e+9 
           1315     1.23352e+10 
           1325     1.12249e+10 
           1335     1.02488e+10 
           1345       1.154e+10 
           1355     1.11218e+10 
           1365      9.47311e+9 
           1375      9.32904e+9 
           1385      9.10663e+9 
           1395      6.35805e+9 
           1405      7.04002e+9 
           1415      7.67523e+9 
           1425      7.94617e+9 
           1435      8.24817e+9 
           1442      8.58825e+9 
           1447      8.41367e+9 
           1455      8.11089e+9 
           1465      7.20801e+9 
           1475      7.55459e+9 
           1485      7.46121e+9 
           1495      7.30628e+9 
           1505      6.39169e+9 
           1512      5.55732e+9 
           1517       5.8601e+9 
           1525       6.1963e+9 
           1535      5.10519e+9 
           1545      4.98928e+9 
           1555      4.91769e+9 
           1565      5.31372e+9 
           1575      5.71892e+9 
           1585      5.89577e+9 
           1595      5.76299e+9 
           1605      6.02644e+9 
           1615       5.9935e+9 
           1625      5.73107e+9 
           1635      6.28647e+9 
           1645      6.26025e+9 
           1655      6.02803e+9 
           1665      6.43609e+9 
           1672      6.08018e+9 
           1677      6.54886e+9 
           1685      6.54229e+9 
           1695      6.04309e+9 
           1705      5.85785e+9 
           1715      5.41637e+9 
           1725      5.36705e+9 
           1735      5.76466e+9 
           1745      5.51641e+9 
           1755      5.66068e+9 
           1765      5.44846e+9 
           1775      5.11593e+9 
           1785      5.30505e+9 
           1795      5.65055e+9 
           1805      5.76618e+9 
           1815      4.84683e+9 
           1825       5.2083e+9 
           1835      4.94045e+9 
           1845      4.42488e+9 
           1855      4.33362e+9 
           1865      4.44237e+9 
           1875      4.97837e+9 
           1885      4.27322e+9 
           1895      3.94089e+9 
           1905      4.46269e+9 
           1915      3.98701e+9 
           1925      3.81627e+9 
           1935      4.15987e+9 
           1945      4.22197e+9 
           1955      3.75347e+9 
           1967      4.25581e+9 
           1976      4.42534e+9 
           1984      4.06307e+9 
           1995      3.96709e+9 
           2005      4.26208e+9 
           2015      4.08738e+9 
           2025      4.32566e+9 
           2035      3.84687e+9 
           2045      4.02176e+9 
           2055      3.85452e+9 
           2065      3.81524e+9 
           2074      4.11335e+9 
           2078      3.56368e+9 
           2085      3.89128e+9 
           2095      3.62556e+9 
           2105       3.7756e+9 
           2115      3.81823e+9 
           2125      3.84444e+9 
           2135      3.74198e+9 
           2145      3.55038e+9 
           2155      3.75008e+9 
           2165      3.75088e+9 
           2175      3.71543e+9 
           2185      3.51524e+9 
           2195      3.63396e+9 
           2205      3.61083e+9 
           2215       3.5049e+9 
           2225      3.38633e+9 
           2235      3.40685e+9 
           2245      3.43682e+9 
           2255      3.26142e+9 
           2265      3.38006e+9 
           2275      3.33651e+9 
           2285      3.36646e+9 
           2295      3.03728e+9 
           2305      3.21158e+9 
           2315      3.06678e+9 
           2325      3.02192e+9 
           2335      2.87289e+9 
           2345      2.90311e+9 
           2355      2.91988e+9 
           2365      2.86634e+9 
           2375      2.83604e+9 
           2385      2.79158e+9 
           2395      2.82506e+9 
           2405        2.706e+9 
           2415      2.74423e+9 
           2425      2.75163e+9 
           2435      2.62976e+9 
           2445      2.68858e+9 
           2455      2.69754e+9 
           2465      2.62771e+9 
           2475      2.57281e+9 
           2485      2.57185e+9 
           2495      2.29202e+9 
           2505         2.51e+9 
           2513      2.35433e+9 
           2518       2.4914e+9 
           2525       2.4077e+9 
           2535      2.38171e+9 
           2545      2.27305e+9 
           2555      2.35865e+9 
           2565      2.32403e+9 
           2575      2.36817e+9 
           2585      2.34036e+9 
           2595      2.32073e+9 
           2605      2.29401e+9 
           2615      2.26521e+9 
           2625      2.25137e+9 
           2635      2.24408e+9 
           2645      2.23775e+9 
           2655      2.24268e+9 
           2665      2.11677e+9 
           2675      2.16062e+9 
           2685      2.14247e+9 
           2695      2.05865e+9 
           2705      2.01164e+9 
           2715      2.01453e+9 
           2725      2.01697e+9 
           2735      2.02209e+9 
           2745      1.93194e+9 
           2755      1.93347e+9 
           2765       1.9273e+9 
           2775      1.96211e+9 
           2785      1.92881e+9 
           2795      1.84468e+9 
           2805      1.87775e+9 
           2815       1.8864e+9 
           2825      1.86297e+9 
           2835       1.7591e+9 
           2845      1.78185e+9 
           2855      1.76315e+9 
           2865      1.78744e+9 
           2875      1.76336e+9 
           2885      1.74337e+9 
           2895      1.71427e+9 
           2910      1.69188e+9 
           2930      1.66799e+9 
           2950       1.6148e+9 
           2970      1.59769e+9 
           2990      1.56265e+9 
           3010      1.50994e+9 
           3030      1.51625e+9 
           3050      1.48748e+9 
           3070      1.46468e+9 
           3090      1.40925e+9 
           3110      1.40143e+9 
           3130      1.37146e+9 
           3150      1.35068e+9 
           3170      1.31052e+9 
           3190      1.28378e+9 
           3210      1.27101e+9 
           3230      1.24413e+9 
           3250      1.22658e+9 
           3270      1.20052e+9 
           3290      1.17727e+9 
           3310      1.15786e+9 
           3330      1.13298e+9 
           3350      1.11335e+9 
           3370      1.09172e+9 
           3390      1.07612e+9 
           3410      1.05728e+9 
           3430      1.03231e+9 
           3450      1.01063e+9 
           3470      9.94035e+8 
           3490      9.74571e+8 
           3510      9.59062e+8 
           3530      9.48074e+8 
           3550      9.31473e+8 
           3570      9.19381e+8 
           3590      8.89084e+8 
           3610      8.74548e+8 
           3630      8.65538e+8 
           3640       8.6585e+8 
           3650      8.52289e+8 
           3670      8.43948e+8 
           3690      8.25252e+8 
           3710       7.9325e+8 
           3730      7.63673e+8 
           3750      8.14137e+8 
           3770      8.13607e+8 
           3790      8.57156e+8 
           3810      8.94428e+8 
           3830      7.76552e+8 
           3850      9.05599e+8 
           3870      8.99835e+8 
           3890       7.3523e+8 
           3910       9.0345e+8 
           3930        8.683e+8 
           3950       8.6419e+8 
           3970      6.82903e+8 
           3990      8.31568e+8 
           4010      8.30486e+8 
           4030      7.79397e+8 
           4050      8.02334e+8 
           4070      7.61878e+8 
           4090      7.15822e+8 
           4110      6.34027e+8 
           4130      7.27511e+8 
           4150      7.23775e+8 
           4170      7.22201e+8 
           4190      7.17619e+8 
           4210      7.12113e+8 
           4230      6.95142e+8 
           4250      6.75495e+8 
           4270      6.53045e+8 
           4290      6.50143e+8 
           4310      6.28285e+8 
           4330      5.75355e+8 
           4350      5.27491e+8 
           4370      5.94994e+8 
           4390      5.93182e+8 
           4410      5.92114e+8 
           4430      5.85109e+8 
           4450      5.79633e+8 
           4470      5.50551e+8 
           4490      5.59803e+8 
           4510      5.58646e+8 
           4530      5.47225e+8 
           4550      5.41588e+8 
           4570      5.32565e+8 
           4590      5.23946e+8 
           4610      5.09766e+8 
           4630      5.01523e+8 
           4650      4.89291e+8 
           4670      4.89531e+8 
           4690      4.86649e+8 
           4710      4.64677e+8 
           4730       4.6542e+8 
           4750      4.59021e+8 
           4770      4.61455e+8 
           4790      4.51748e+8 
           4810      4.40232e+8 
           4830      4.33574e+8 
           4850      4.04413e+8 
           4870      3.58909e+8 
           4890       4.1632e+8 
           4910      4.12357e+8 
           4930      3.96912e+8 
           4950      4.00276e+8 
           4970        3.979e+8 
           4990      3.90496e+8 
           5010      3.69899e+8 
           5030       3.7749e+8 
           5050      3.66662e+8 
           5070      3.68787e+8 
           5090      3.62652e+8 
           5110      3.55534e+8 
           5130      3.45009e+8 
           5150      3.42647e+8 
           5170      3.42932e+8 
           5190       3.3856e+8 
           5210      3.30345e+8 
           5230      3.28801e+8 
           5250      3.24893e+8 
           5270      3.19095e+8 
           5290      3.16673e+8 
           5310       3.1166e+8 
           5330      3.07111e+8 
           5350      3.01936e+8 
           5370      3.00057e+8 
           5390      2.95812e+8 
           5410      2.92097e+8 
           5430        2.871e+8 
           5450      2.83475e+8 
           5470      2.79403e+8 
           5490      2.76484e+8 
           5510      2.73649e+8 
           5530      2.69185e+8 
           5550      2.66894e+8 
           5570      2.62989e+8 
           5590      2.60267e+8 
           5610      2.56307e+8 
           5630      2.53872e+8 
           5650      2.47062e+8 
           5670      2.43142e+8 
           5690      2.40528e+8 
           5710      2.39609e+8 
           5730      2.37148e+8 
           5750       2.3353e+8 
           5770       2.3197e+8 
           5790      2.28797e+8 
           5810      2.25963e+8 
           5830      2.22542e+8 
           5850      2.20242e+8 
           5870      2.10893e+8 
           5890      2.11733e+8 
           5910      2.11165e+8 
           5930      2.08394e+8 
           5950      2.05037e+8 
           5970      2.04945e+8 
           5990      2.01027e+8 
           6010      1.99848e+8 
           6030      1.96846e+8 
           6050      1.94723e+8 
           6070      1.92839e+8 
           6090      1.90386e+8 
           6110      1.88263e+8 
           6130      1.86325e+8 
           6150      1.82097e+8 
           6170      1.81077e+8 
           6190      1.79574e+8 
           6210      1.77677e+8 
           6230      1.75665e+8 
           6250      1.72546e+8 
           6270      1.71121e+8 
           6290      1.69377e+8 
           6310       1.6716e+8 
           6330      1.65702e+8 
           6350      1.62557e+8 
           6370       1.6139e+8 
           6390      1.59763e+8 
           6410      1.58025e+8 
           6430      1.56633e+8 
           6450      1.54604e+8 
           6470      1.52191e+8 
           6490        1.507e+8 
           6510      1.49171e+8 
           6530      1.46854e+8 
           6550      1.40479e+8 
           6570      1.22851e+8 
           6590      1.39855e+8 
           6610      1.40821e+8 
           6630      1.39741e+8 
           6650      1.38246e+8 
           6670      1.35385e+8 
           6690       1.3403e+8 
           6710      1.33935e+8 
           6730      1.32101e+8 
           6750      1.31145e+8 
           6770      1.29747e+8 
           6790      1.26451e+8 
           6810      1.26505e+8 
           6830      1.25248e+8 
           6850      1.24189e+8 
           6870      1.22868e+8 
           6890      1.21442e+8 
           6910      1.20077e+8 
           6930      1.18844e+8 
           6950      1.17778e+8 
           6970      1.16568e+8 
           6990      1.15285e+8 
           7010      1.14046e+8 
           7030      1.12864e+8 
           7050      1.11543e+8 
           7070      1.08395e+8 
           7090      1.09074e+8 
           7110      1.06501e+8 
           7130      1.05563e+8 
           7150      1.05629e+8 
           7170      1.04909e+8 
           7190      1.03969e+8 
           7210        1.029e+8 
           7230      9.96941e+7 
           7250      1.00578e+8 
           7270      9.97761e+7 
           7290      9.79109e+7 
           7310      9.77495e+7 
           7330        9.674e+7 
           7350      9.58656e+7 
           7370      9.49091e+7 
           7390      9.39614e+7 
           7410      9.30295e+7 
           7430      9.19357e+7 
           7450      9.11305e+7 
           7470      8.97655e+7 
           7490      8.92733e+7 
           7510      8.83843e+7 
           7530      8.74503e+7 
           7550      8.67761e+7 
           7570      8.59566e+7 
           7590      8.50596e+7 
           7610      8.42162e+7 
           7630      8.34388e+7 
           7650      8.26619e+7 
           7670      8.18664e+7 
           7690      8.10716e+7 
           7710       8.0284e+7 
           7730      7.94782e+7 
           7750      7.87862e+7 
           7770      7.72205e+7 
           7790      7.72963e+7 
           7810       7.6518e+7 
           7830      7.58511e+7 
           7850      7.49393e+7 
           7870      7.42366e+7 
           7890      7.32434e+7 
           7910      7.29096e+7 
           7930      7.22368e+7 
           7950      7.12658e+7 
           7970      7.08196e+7 
           7990      6.98459e+7 
           8010      6.95269e+7 
           8030      6.88772e+7 
           8050      6.82505e+7 
           8070      6.76812e+7 
           8090      6.69614e+7 
           8110      6.62076e+7 
           8130      6.58652e+7 
           8150      6.52134e+7 
           8170       6.4759e+7 
           8190      6.38983e+7 
           8210      6.32017e+7 
           8230      6.24833e+7 
           8250      6.23911e+7 
           8270      6.12414e+7 
           8290      6.11984e+7 
           8310      6.06805e+7 
           8330      6.01886e+7 
           8350      5.93117e+7 
           8370       5.8921e+7 
           8390      5.85923e+7 
           8410      5.80263e+7 
           8430      5.74491e+7 
           8450      5.61856e+7 
           8470      5.63407e+7 
           8490      5.57776e+7 
           8510      5.50632e+7 
           8530      5.49813e+7 
           8550      5.33845e+7 
           8570      5.47719e+7 
           8590      5.21788e+7 
