# Kurucz ODFNEW /NOVER (2003)
# teff = 34000 K (value for the effective temperature for the model. Temperatures are given in K)
# logg = 4 log(cm/s2) (value for Log(G) for the model.)
# meta = 0.5  (value for the Metallicity for the model.)
# lh = 1.25  (l/Hp where l is the  mixing length of the convective element and Hp is the pressure scale height)
# vtur = 2 km/s (Microturbulence velocity)
# alpha = 0.4  (Alpha)
#
# column 1: WAVELENGTH (ANGSTROM), Wavelength in Angstrom
# column 2: FLUX (ERG/CM2/S/A), Flux in erg/cm2/s/A
          147.2      7.82187e-6 
            151      2.08877e-5 
          155.2      5.77864e-5 
          158.8     0.000132631 
            162     0.000267991 
            166     0.000630608 
          170.3      0.00149278 
          173.4      0.00274294 
          176.8      0.00531428 
          180.2      0.00978611 
          181.7       0.0131613 
          186.1       0.0277969 
            191       0.0616764 
          193.9       0.0965952 
          198.4        0.192899 
          201.8        0.313293 
            205        0.487996 
          210.5         1.01574 
          216.2         2.05425 
          219.8         3.22628 
            223         4.69819 
          226.8         8.26944 
            230         2634.97 
            234         5432.36 
            240          8224.6 
          246.5         13135.4 
          252.4         22399.5 
          256.8         32506.8 
            260         54896.1 
            264          104301 
          268.5          168648 
          273.5          223241 
          278.5          253178 
            284          563207 
            290          799509 
            296          997506 
            301       2.0675e+6 
            308      4.82031e+6 
            318      1.03876e+7 
            328      1.47619e+7 
            338      2.82682e+7 
            348      4.32214e+7 
            357      9.01024e+7 
            366      2.29276e+8 
            375      2.49677e+8 
            385      3.82664e+8 
            395      1.12742e+9 
            405      1.81579e+9 
            414       2.5598e+9 
            422      2.84085e+9 
            430      2.71596e+9 
            441      3.30683e+9 
            451      3.37684e+9 
            460      2.74891e+9 
            470      3.36925e+9 
            480      4.06734e+9 
            490       2.8414e+9 
            500      4.38784e+9 
            506      3.35448e+9 
            512      1.9365e+10 
            520     1.82207e+10 
            530     1.70138e+10 
            540     1.58896e+10 
            550     1.37902e+10 
            560     2.13556e+10 
            570     3.09083e+10 
            580     2.89289e+10 
            590      2.8989e+10 
            600     1.45271e+10 
            610     2.05839e+10 
            620     3.14947e+10 
            630     2.99817e+10 
            640     3.27385e+10 
            650     2.79841e+10 
            658     1.49103e+10 
            665     2.65544e+10 
            675     3.58171e+10 
            685      2.2658e+10 
            695     3.38618e+10 
            705     1.85899e+10 
            716     3.83486e+10 
            726     3.80192e+10 
            735      3.7879e+10 
            745     2.93164e+10 
            755     3.02011e+10 
            765     3.03418e+10 
            775     3.45007e+10 
            785     2.97086e+10 
            795     3.48765e+10 
            805     3.14557e+10 
            815     3.10634e+10 
            825     3.48044e+10 
            835     2.20869e+10 
            845     3.21465e+10 
            855       3.063e+10 
            865     3.30068e+10 
            875     3.31074e+10 
            885      3.3235e+10 
            895     3.29085e+10 
            905     3.13352e+10 
            915     3.04061e+10 
            925     6.12145e+10 
            935     8.81596e+10 
            945     9.68543e+10 
            955     1.05527e+11 
            965     1.12316e+11 
            975     5.49861e+10 
            985     8.76295e+10 
            995     7.80762e+10 
           1005     7.91149e+10 
           1015     8.61535e+10 
           1025     7.89083e+10 
           1035     8.65522e+10 
           1045     9.74989e+10 
           1055     9.19835e+10 
           1065     7.95226e+10 
           1075     8.20304e+10 
           1085     7.62083e+10 
           1095     8.01107e+10 
           1105     7.67142e+10 
           1115     7.48504e+10 
           1125      5.7687e+10 
           1135      7.1376e+10 
           1145     7.10772e+10 
           1155     6.40908e+10 
           1165     6.35004e+10 
           1175     4.25839e+10 
           1185     5.77854e+10 
           1195     5.48095e+10 
           1205     5.34236e+10 
           1215     4.70381e+10 
           1225     5.17586e+10 
           1235     5.47869e+10 
           1245     5.24253e+10 
           1255     5.25428e+10 
           1265      5.4079e+10 
           1275     5.67194e+10 
           1285     5.66112e+10 
           1295     5.35411e+10 
           1305     5.26617e+10 
           1315     5.55958e+10 
           1325     5.40473e+10 
           1335     5.20971e+10 
           1345      5.1873e+10 
           1355     5.03181e+10 
           1365     4.84088e+10 
           1375     4.61989e+10 
           1385     4.47957e+10 
           1395     3.30515e+10 
           1405     3.42068e+10 
           1415     4.40735e+10 
           1425     3.91177e+10 
           1435     4.22388e+10 
           1442     4.07681e+10 
           1447     4.07765e+10 
           1455     3.85676e+10 
           1465     3.76865e+10 
           1475     3.85141e+10 
           1485     3.85557e+10 
           1495     3.72056e+10 
           1505     3.62505e+10 
           1512     3.59271e+10 
           1517     3.62031e+10 
           1525     3.45866e+10 
           1535     3.00124e+10 
           1545     2.30186e+10 
           1555     2.37705e+10 
           1565     2.83698e+10 
           1575     3.00153e+10 
           1585     2.98882e+10 
           1595     3.01321e+10 
           1605     2.83246e+10 
           1615     2.69783e+10 
           1625     2.77087e+10 
           1635     2.80586e+10 
           1645     2.81445e+10 
           1655     2.77999e+10 
           1665     2.70932e+10 
           1672     2.47794e+10 
           1677     2.98107e+10 
           1685     2.82863e+10 
           1695     2.73726e+10 
           1705     2.70642e+10 
           1715     2.53251e+10 
           1725     2.45234e+10 
           1735     2.54793e+10 
           1745     2.53712e+10 
           1755     2.49275e+10 
           1765     2.45141e+10 
           1775     2.35248e+10 
           1785     2.40222e+10 
           1795     2.32747e+10 
           1805     2.31297e+10 
           1815     2.26194e+10 
           1825     2.21098e+10 
           1835     2.21279e+10 
           1845     2.14028e+10 
           1855     2.17431e+10 
           1865     2.16903e+10 
           1875     2.08949e+10 
           1885     2.01192e+10 
           1895     2.00344e+10 
           1905     2.03271e+10 
           1915     1.98215e+10 
           1925     1.85385e+10 
           1935     1.96795e+10 
           1945     1.97256e+10 
           1955      1.7899e+10 
           1967     1.87192e+10 
           1976     1.89099e+10 
           1984     1.85347e+10 
           1995     1.80441e+10 
           2005     1.83828e+10 
           2015     1.82388e+10 
           2025     1.81253e+10 
           2035     1.74682e+10 
           2045      1.7141e+10 
           2055     1.33304e+10 
           2065     1.28624e+10 
           2074     1.35681e+10 
           2078     1.36311e+10 
           2085     1.49254e+10 
           2095      1.5591e+10 
           2105     1.56362e+10 
           2115     1.58954e+10 
           2125     1.54592e+10 
           2135     1.54561e+10 
           2145     1.51723e+10 
           2155     1.51032e+10 
           2165     1.42985e+10 
           2175     1.47056e+10 
           2185     1.42573e+10 
           2195      1.4564e+10 
           2205     1.43012e+10 
           2215     1.37101e+10 
           2225     1.38535e+10 
           2235     1.36491e+10 
           2245     1.34082e+10 
           2255     1.30125e+10 
           2265     1.30535e+10 
           2275     1.29929e+10 
           2285     1.24443e+10 
           2295     1.12346e+10 
           2305     1.20052e+10 
           2315     1.18574e+10 
           2325     1.19445e+10 
           2335     1.17768e+10 
           2345     1.15464e+10 
           2355     1.12455e+10 
           2365     1.10071e+10 
           2375     1.07096e+10 
           2385     1.02265e+10 
           2395     1.03475e+10 
           2405     1.03691e+10 
           2415     1.02227e+10 
           2425     1.02001e+10 
           2435     1.00332e+10 
           2445      9.90974e+9 
           2455      9.74229e+9 
           2465      9.62311e+9 
           2475      9.48769e+9 
           2485      8.84169e+9 
           2495      5.66683e+9 
           2505      8.16254e+9 
           2513      8.45128e+9 
           2518      8.56629e+9 
           2525       8.8474e+9 
           2535      8.84105e+9 
           2545       8.6612e+9 
           2555      8.59064e+9 
           2565      8.45222e+9 
           2575      8.38954e+9 
           2585      8.29205e+9 
           2595      8.05652e+9 
           2605      8.09638e+9 
           2615      7.87095e+9 
           2625       7.8685e+9 
           2635      7.81703e+9 
           2645      7.64926e+9 
           2655      7.60244e+9 
           2665      7.43728e+9 
           2675      7.18961e+9 
           2685      7.26732e+9 
           2695      7.14347e+9 
           2705      7.12164e+9 
           2715      7.00079e+9 
           2725      6.92515e+9 
           2735      6.74466e+9 
           2745      6.81361e+9 
           2755      6.68879e+9 
           2765      6.61093e+9 
           2775      6.56728e+9 
           2785      6.39586e+9 
           2795      6.19104e+9 
           2805      6.27817e+9 
           2815      6.23364e+9 
           2825      6.16032e+9 
           2835      6.05975e+9 
           2845      6.04143e+9 
           2855      5.94048e+9 
           2865      5.82198e+9 
           2875      5.75101e+9 
           2885      5.71393e+9 
           2895       5.6471e+9 
           2910      5.48849e+9 
           2930      5.43796e+9 
           2950      5.30343e+9 
           2970      5.16178e+9 
           2990      4.98255e+9 
           3010      4.81884e+9 
           3030      4.67378e+9 
           3050      4.65197e+9 
           3070      4.55118e+9 
           3090      4.44432e+9 
           3110      4.40487e+9 
           3130      4.27377e+9 
           3150      4.22347e+9 
           3170      4.11486e+9 
           3190      4.04751e+9 
           3210      3.89815e+9 
           3230      3.84605e+9 
           3250      3.79422e+9 
           3270      3.65459e+9 
           3290      3.61133e+9 
           3310       3.5214e+9 
           3330      3.43575e+9 
           3350      3.33019e+9 
           3370      3.27937e+9 
           3390      3.24449e+9 
           3410      3.17256e+9 
           3430      3.13942e+9 
           3450      3.03314e+9 
           3470      2.99872e+9 
           3490       2.9457e+9 
           3510      2.88829e+9 
           3530      2.83171e+9 
           3550      2.77245e+9 
           3570      2.71723e+9 
           3590      2.66328e+9 
           3610       2.6043e+9 
           3630      2.55493e+9 
           3640      2.50469e+9 
           3650      2.31823e+9 
           3670      2.28092e+9 
           3690      2.23817e+9 
           3710      2.16905e+9 
           3730      2.16424e+9 
           3750      2.19204e+9 
           3770      2.17197e+9 
           3790      2.22328e+9 
           3810      2.24204e+9 
           3830      2.08883e+9 
           3850      2.20527e+9 
           3870      2.11231e+9 
           3890      1.96669e+9 
           3910      2.12168e+9 
           3930      2.04528e+9 
           3950      1.98992e+9 
           3970      1.79998e+9 
           3990      1.96404e+9 
           4010       1.9229e+9 
           4030      1.86253e+9 
           4050      1.85885e+9 
           4070      1.77913e+9 
           4090      1.69847e+9 
           4110      1.60301e+9 
           4130      1.69985e+9 
           4150      1.67911e+9 
           4170      1.67366e+9 
           4190      1.63954e+9 
           4210      1.60056e+9 
           4230      1.59009e+9 
           4250      1.54454e+9 
           4270      1.51536e+9 
           4290      1.47985e+9 
           4310      1.44256e+9 
           4330      1.39026e+9 
           4350      1.31079e+9 
           4370      1.38473e+9 
           4390      1.35698e+9 
           4410      1.33001e+9 
           4430      1.32513e+9 
           4450      1.29847e+9 
           4470      1.27339e+9 
           4490      1.26583e+9 
           4510       1.2282e+9 
           4530      1.21875e+9 
           4550      1.18839e+9 
           4570      1.18683e+9 
           4590      1.16071e+9 
           4610      1.14259e+9 
           4630       1.1181e+9 
           4650      1.05427e+9 
           4670        1.084e+9 
           4690      1.05887e+9 
           4710      1.05247e+9 
           4730      1.06122e+9 
           4750      1.04307e+9 
           4770      1.03067e+9 
           4790      1.01436e+9 
           4810      9.95945e+8 
           4830      9.78977e+8 
           4850      9.47009e+8 
           4870      8.72595e+8 
           4890       9.3243e+8 
           4910      9.18473e+8 
           4930      9.00047e+8 
           4950      8.88837e+8 
           4970      8.84763e+8 
           4990      8.72027e+8 
           5010      8.43195e+8 
           5030      8.38201e+8 
           5050      8.27985e+8 
           5070      8.21187e+8 
           5090      8.08712e+8 
           5110       7.9645e+8 
           5130      7.84096e+8 
           5150      7.73117e+8 
           5170      7.60579e+8 
           5190      7.50911e+8 
           5210      7.40701e+8 
           5230      7.31039e+8 
           5250      7.17006e+8 
           5270      7.05687e+8 
           5290      7.00509e+8 
           5310      6.89938e+8 
           5330        6.805e+8 
           5350      6.71631e+8 
           5370      6.61908e+8 
           5390      6.51844e+8 
           5410      6.34741e+8 
           5430      6.35274e+8 
           5450      6.26346e+8 
           5470      6.17291e+8 
           5490       6.0904e+8 
           5510      5.99762e+8 
           5530      5.92549e+8 
           5550      5.85131e+8 
           5570      5.76334e+8 
           5590      5.66009e+8 
           5610       5.6198e+8 
           5630      5.54405e+8 
           5650       5.4684e+8 
           5670      5.38841e+8 
           5690      5.21946e+8 
           5710      5.00456e+8 
           5730      4.94455e+8 
           5750      4.87136e+8 
           5770      4.82396e+8 
           5790      4.76259e+8 
           5810      4.68388e+8 
           5830      4.64515e+8 
           5850      4.62071e+8 
           5870      4.50826e+8 
           5890      4.53318e+8 
           5910      4.49921e+8 
           5930      4.46441e+8 
           5950      4.43584e+8 
           5970      4.41156e+8 
           5990      4.36671e+8 
           6010      4.32466e+8 
           6030      4.26473e+8 
           6050      4.21383e+8 
           6070       4.1631e+8 
           6090      4.11823e+8 
           6110      4.05882e+8 
           6130      4.01093e+8 
           6150      3.95649e+8 
           6170      3.90209e+8 
           6190      3.87298e+8 
           6210      3.82941e+8 
           6230       3.7674e+8 
           6250      3.72655e+8 
           6270       3.6893e+8 
           6290      3.64455e+8 
           6310      3.57956e+8 
           6330      3.55933e+8 
           6350      3.51069e+8 
           6370      3.47615e+8 
           6390      3.43486e+8 
           6410      3.37844e+8 
           6430      3.35536e+8 
           6450      3.30986e+8 
           6470      3.26531e+8 
           6490      3.22589e+8 
           6510      3.17499e+8 
           6530      3.13393e+8 
           6550      3.08277e+8 
           6570      2.81799e+8 
           6590      3.03999e+8 
           6610      3.01473e+8 
           6630      2.98465e+8 
           6650      2.94705e+8 
           6670      2.88359e+8 
           6690       2.8391e+8 
           6710      2.83827e+8 
           6730      2.80113e+8 
           6750      2.77819e+8 
           6770      2.75333e+8 
           6790      2.72161e+8 
           6810      2.69476e+8 
           6830      2.66366e+8 
           6850      2.63319e+8 
           6870      2.60104e+8 
           6890      2.54954e+8 
           6910      2.53512e+8 
           6930      2.52184e+8 
           6950      2.49315e+8 
           6970      2.46684e+8 
           6990      2.43879e+8 
           7010      2.40665e+8 
           7030      2.37712e+8 
           7050      2.35327e+8 
           7070      2.30515e+8 
           7090         2.31e+8 
           7110      2.28011e+8 
           7130      2.25733e+8 
           7150      2.23735e+8 
           7170      2.20026e+8 
           7190       2.1833e+8 
           7210      2.16678e+8 
           7230      2.13326e+8 
           7250      2.11707e+8 
           7270      2.09888e+8 
           7290      2.06547e+8 
           7310       2.0508e+8 
           7330      2.03317e+8 
           7350      2.01187e+8 
           7370      1.98932e+8 
           7390       1.9707e+8 
           7410      1.94855e+8 
           7430      1.93029e+8 
           7450      1.90644e+8 
           7470       1.8849e+8 
           7490      1.86014e+8 
           7510      1.84971e+8 
           7530      1.83093e+8 
           7550      1.81358e+8 
           7570      1.79434e+8 
           7590      1.75867e+8 
           7610      1.75282e+8 
           7630      1.73905e+8 
           7650      1.72147e+8 
           7670        1.707e+8 
           7690      1.68151e+8 
           7710      1.66912e+8 
           7730      1.64624e+8 
           7750      1.63713e+8 
           7770      1.62453e+8 
           7790       1.6072e+8 
           7810      1.59274e+8 
           7830      1.57687e+8 
           7850      1.55515e+8 
           7870      1.54008e+8 
           7890      1.52738e+8 
           7910      1.51587e+8 
           7930      1.50153e+8 
           7950      1.48838e+8 
           7970      1.47007e+8 
           7990      1.45853e+8 
           8010      1.44485e+8 
           8030      1.42925e+8 
           8050      1.41803e+8 
           8070      1.40447e+8 
           8090      1.39051e+8 
           8110      1.37112e+8 
           8130      1.36495e+8 
           8150      1.35083e+8 
           8170      1.33757e+8 
           8190      1.31885e+8 
           8210       1.2789e+8 
           8230      1.26079e+8 
           8250      1.25574e+8 
           8270      1.23954e+8 
           8290       1.2334e+8 
           8310      1.22419e+8 
           8330      1.20784e+8 
           8350      1.19477e+8 
           8370      1.18783e+8 
           8390      1.18105e+8 
           8410      1.16958e+8 
           8430      1.16096e+8 
           8450      1.14856e+8 
           8470      1.14104e+8 
           8490      1.13175e+8 
           8510      1.11458e+8 
           8530      1.11433e+8 
           8550       1.0982e+8 
           8570      1.09959e+8 
