# Kurucz ODFNEW /NOVER (2003)
# teff = 25000 K (value for the effective temperature for the model. Temperatures are given in K)
# logg = 4 log(cm/s2) (value for Log(G) for the model.)
# meta = 0.5  (value for the Metallicity for the model.)
# lh = 1.25  (l/Hp where l is the  mixing length of the convective element and Hp is the pressure scale height)
# vtur = 2 km/s (Microturbulence velocity)
# alpha = 0.4  (Alpha)
#
# column 1: WAVELENGTH (ANGSTROM), Wavelength in Angstrom
# column 2: FLUX (ERG/CM2/S/A), Flux in erg/cm2/s/A
          147.2     2.52592e-14 
            151     1.06063e-13 
          155.2     4.78454e-13 
          158.8     1.63719e-12 
            162     4.67869e-12 
            166     1.64563e-11 
          170.3     5.92462e-11 
          173.4     1.45429e-10 
          176.8     3.73195e-10 
          180.2     9.25684e-10 
          181.7      1.36566e-9 
          186.1      4.14897e-9 
            191      1.35507e-8 
          193.9      2.65654e-8 
          198.4      7.26774e-8 
          201.8      1.51105e-7 
            205       2.9466e-7 
          210.5      8.89148e-7 
          216.2      2.63955e-6 
          219.8      5.10657e-6 
            223       9.0279e-6 
          226.8       1.7521e-5 
            230     0.000263176 
            234     0.000600087 
            240      0.00146342 
          246.5      0.00366789 
          252.4      0.00820628 
          256.8        0.014144 
            260       0.0226333 
            264       0.0359276 
          268.5       0.0619868 
          273.5        0.109651 
          278.5        0.190331 
            284        0.374086 
            290        0.682503 
            296         1.22548 
            301         1.95057 
            308         3.95009 
            318         9.62053 
            328         20.7708 
            338         45.9716 
            348         93.7157 
            357          698.13 
            366         1711.34 
            375         2608.67 
            385         4546.17 
            395         11028.4 
            405         16748.4 
            414           26431 
            422         38569.1 
            430         55804.4 
            441         84209.7 
            451          114289 
            460          149271 
            470          213452 
            480          290772 
            490          396139 
            500          517445 
            506      2.02905e+6 
            512      2.46177e+7 
            520       2.6307e+7 
            530      2.98205e+7 
            540      2.98024e+7 
            550      4.93086e+7 
            560      6.00028e+7 
            570      7.06394e+7 
            580      6.48962e+7 
            590      8.95363e+7 
            600      9.43561e+7 
            610      1.14284e+8 
            620      1.21957e+8 
            630      1.23308e+8 
            640       1.0109e+8 
            650      6.36356e+7 
            658      1.08582e+8 
            665       1.4817e+8 
            675      1.60606e+8 
            685      1.58239e+8 
            695      2.32406e+8 
            705      2.23434e+8 
            716      2.63638e+8 
            726      2.59949e+8 
            735      2.82834e+8 
            745      3.26695e+8 
            755      3.44038e+8 
            765      3.70682e+8 
            775      3.95687e+8 
            785      4.23085e+8 
            795      4.27082e+8 
            805       4.4039e+8 
            815      4.49563e+8 
            825      4.95066e+8 
            835      3.69762e+8 
            845      4.93071e+8 
            855      4.95019e+8 
            865      5.29327e+8 
            875      5.59515e+8 
            885      6.10723e+8 
            895      6.37598e+8 
            905      6.09602e+8 
            915        8.581e+8 
            925      5.74764e+9 
            935     1.22453e+10 
            945     2.09608e+10 
            955     2.59829e+10 
            965     2.73664e+10 
            975      4.09335e+9 
            985     1.82947e+10 
            995     2.02059e+10 
           1005      2.5887e+10 
           1015     2.77381e+10 
           1025     1.66806e+10 
           1035     2.15341e+10 
           1045     3.49985e+10 
           1055     3.14906e+10 
           1065      2.1844e+10 
           1075     2.72178e+10 
           1085     2.49602e+10 
           1095      2.8552e+10 
           1105     2.38942e+10 
           1115     2.07782e+10 
           1125      1.4297e+10 
           1135     2.46004e+10 
           1145     2.20255e+10 
           1155     2.26437e+10 
           1165     2.26244e+10 
           1175     1.09977e+10 
           1185     2.10299e+10 
           1195     1.82697e+10 
           1205       8.3852e+9 
           1215     1.12065e+10 
           1225     1.81212e+10 
           1235     2.19217e+10 
           1245     2.09103e+10 
           1255     2.05696e+10 
           1265     2.13107e+10 
           1275      2.2142e+10 
           1285     2.21713e+10 
           1295     1.14808e+10 
           1305     1.31641e+10 
           1315     2.15649e+10 
           1325     1.98166e+10 
           1335     1.93002e+10 
           1345     1.94512e+10 
           1355     1.93235e+10 
           1365     1.67179e+10 
           1375     1.58668e+10 
           1385     1.42484e+10 
           1395      7.39975e+9 
           1405       9.2517e+9 
           1415     1.27069e+10 
           1425     1.30705e+10 
           1435     1.39477e+10 
           1442     1.44826e+10 
           1447     1.42566e+10 
           1455     1.35557e+10 
           1465     1.20602e+10 
           1475     1.27691e+10 
           1485     1.25379e+10 
           1495     1.21944e+10 
           1505     1.05307e+10 
           1512      9.42868e+9 
           1517      9.84907e+9 
           1525     1.03031e+10 
           1535      8.30053e+9 
           1545      7.74836e+9 
           1555      7.70792e+9 
           1565      8.58184e+9 
           1575      9.31335e+9 
           1585      9.48322e+9 
           1595      9.31567e+9 
           1605      9.75187e+9 
           1615      9.51853e+9 
           1625      9.22897e+9 
           1635     1.00954e+10 
           1645     1.02178e+10 
           1655      9.93255e+9 
           1665     1.02549e+10 
           1672      9.56073e+9 
           1677     1.09772e+10 
           1685     1.05654e+10 
           1695      9.80026e+9 
           1705      9.59842e+9 
           1715      8.89185e+9 
           1725      8.70233e+9 
           1735      9.26748e+9 
           1745       9.0616e+9 
           1755      9.07311e+9 
           1765      9.04944e+9 
           1775      8.19864e+9 
           1785      8.46978e+9 
           1795       8.9203e+9 
           1805      9.07139e+9 
           1815      7.77206e+9 
           1825      8.23661e+9 
           1835       7.9081e+9 
           1845      7.10092e+9 
           1855      7.28612e+9 
           1865      7.35972e+9 
           1875      7.80672e+9 
           1885      6.81951e+9 
           1895      6.34477e+9 
           1905      7.07839e+9 
           1915      6.43102e+9 
           1925      6.04109e+9 
           1935      6.61159e+9 
           1945      6.70809e+9 
           1955      5.91497e+9 
           1967      6.67786e+9 
           1976      6.98863e+9 
           1984      6.43059e+9 
           1995      6.33488e+9 
           2005      6.72917e+9 
           2015      6.56892e+9 
           2025      6.75152e+9 
           2035       6.0923e+9 
           2045      6.32176e+9 
           2055      5.93807e+9 
           2065      5.87054e+9 
           2074      6.19411e+9 
           2078      5.50932e+9 
           2085      6.00613e+9 
           2095      5.65469e+9 
           2105      5.91133e+9 
           2115       6.0048e+9 
           2125      6.00264e+9 
           2135      5.90067e+9 
           2145      5.55699e+9 
           2155       5.8757e+9 
           2165      5.86471e+9 
           2175      5.80222e+9 
           2185      5.51984e+9 
           2195      5.65631e+9 
           2205       5.6857e+9 
           2215      5.55063e+9 
           2225      5.37194e+9 
           2235      5.30821e+9 
           2245      5.38571e+9 
           2255      5.14387e+9 
           2265      5.28221e+9 
           2275      5.18091e+9 
           2285      5.16258e+9 
           2295        4.459e+9 
           2305      4.95901e+9 
           2315      4.78382e+9 
           2325      4.75049e+9 
           2335      4.55815e+9 
           2345      4.64487e+9 
           2355      4.61549e+9 
           2365      4.58301e+9 
           2375       4.4733e+9 
           2385      4.44461e+9 
           2395      4.39621e+9 
           2405      4.30052e+9 
           2415      4.27079e+9 
           2425      4.26972e+9 
           2435      4.11724e+9 
           2445      4.15321e+9 
           2455      4.16651e+9 
           2465      4.07344e+9 
           2475      3.98653e+9 
           2485      3.81139e+9 
           2495      2.82573e+9 
           2505      3.60806e+9 
           2513      3.57105e+9 
           2518      3.73335e+9 
           2525      3.71073e+9 
           2535      3.69078e+9 
           2545      3.46209e+9 
           2555      3.59427e+9 
           2565      3.51322e+9 
           2575      3.58399e+9 
           2585      3.52198e+9 
           2595      3.49808e+9 
           2605      3.46883e+9 
           2615      3.40257e+9 
           2625      3.38873e+9 
           2635      3.35898e+9 
           2645      3.32039e+9 
           2655      3.31188e+9 
           2665      3.10699e+9 
           2675      3.16278e+9 
           2685      3.15844e+9 
           2695      3.01663e+9 
           2705      2.91023e+9 
           2715      2.94505e+9 
           2725      2.97122e+9 
           2735      2.94737e+9 
           2745      2.86408e+9 
           2755      2.85683e+9 
           2765      2.83231e+9 
           2775      2.88052e+9 
           2785      2.81825e+9 
           2795      2.68156e+9 
           2805      2.73449e+9 
           2815      2.75403e+9 
           2825      2.72588e+9 
           2835      2.59063e+9 
           2845      2.63128e+9 
           2855      2.57239e+9 
           2865      2.59224e+9 
           2875      2.55683e+9 
           2885      2.52501e+9 
           2895      2.47227e+9 
           2910      2.40925e+9 
           2930      2.41044e+9 
           2950      2.33535e+9 
           2970      2.30132e+9 
           2990      2.24181e+9 
           3010      2.12434e+9 
           3030      2.13672e+9 
           3050      2.11616e+9 
           3070      2.10091e+9 
           3090      1.98412e+9 
           3110      2.00324e+9 
           3130      1.94023e+9 
           3150      1.91989e+9 
           3170      1.85866e+9 
           3190      1.83247e+9 
           3210      1.80806e+9 
           3230      1.75576e+9 
           3250      1.73864e+9 
           3270      1.69341e+9 
           3290      1.66078e+9 
           3310      1.62945e+9 
           3330      1.59006e+9 
           3350      1.56717e+9 
           3370      1.52886e+9 
           3390      1.51474e+9 
           3410      1.48611e+9 
           3430      1.45755e+9 
           3450      1.42282e+9 
           3470      1.39617e+9 
           3490      1.36556e+9 
           3510      1.34297e+9 
           3530      1.33122e+9 
           3550      1.30367e+9 
           3570      1.28293e+9 
           3590       1.2405e+9 
           3610       1.2224e+9 
           3630      1.20533e+9 
           3640      1.20489e+9 
           3650        1.185e+9 
           3670      1.17352e+9 
           3690      1.14922e+9 
           3710      1.09939e+9 
           3730      1.05895e+9 
           3750       1.1017e+9 
           3770      1.08532e+9 
           3790      1.13335e+9 
           3810      1.17152e+9 
           3830      1.03117e+9 
           3850      1.16436e+9 
           3870      1.13913e+9 
           3890       9.7595e+8 
           3910      1.15736e+9 
           3930       1.1089e+9 
           3950      1.09227e+9 
           3970      9.05629e+8 
           3990      1.06335e+9 
           4010      1.06013e+9 
           4030      1.00262e+9 
           4050      1.01488e+9 
           4070      9.50869e+8 
           4090      8.97227e+8 
           4110      8.14295e+8 
           4130      9.18583e+8 
           4150      9.13032e+8 
           4170      9.17315e+8 
           4190      9.08987e+8 
           4210       9.0409e+8 
           4230      8.78844e+8 
           4250      8.45438e+8 
           4270      8.19809e+8 
           4290      8.04588e+8 
           4310       7.7408e+8 
           4330      7.25051e+8 
           4350      6.73225e+8 
           4370      7.39871e+8 
           4390      7.50366e+8 
           4410      7.38694e+8 
           4430        7.368e+8 
           4450      7.22982e+8 
           4470      6.97389e+8 
           4490      7.04084e+8 
           4510      7.01854e+8 
           4530      6.91228e+8 
           4550        6.838e+8 
           4570      6.70829e+8 
           4590       6.5863e+8 
           4610      6.37576e+8 
           4630      6.30023e+8 
           4650      6.05241e+8 
           4670      6.11625e+8 
           4690      6.08988e+8 
           4710      5.78881e+8 
           4730      5.89218e+8 
           4750      5.79074e+8 
           4770      5.83931e+8 
           4790      5.71692e+8 
           4810      5.55957e+8 
           4830       5.4592e+8 
           4850      5.16362e+8 
           4870      4.64079e+8 
           4890      5.25075e+8 
           4910      5.19337e+8 
           4930      5.02189e+8 
           4950      5.01107e+8 
           4970      5.02374e+8 
           4990      4.92878e+8 
           5010      4.66497e+8 
           5030      4.75541e+8 
           5050      4.63568e+8 
           5070      4.65619e+8 
           5090       4.5586e+8 
           5110      4.47177e+8 
           5130      4.35752e+8 
           5150      4.33212e+8 
           5170      4.30755e+8 
           5190      4.25791e+8 
           5210      4.16394e+8 
           5230      4.13863e+8 
           5250      4.08761e+8 
           5270      4.00496e+8 
           5290      3.97797e+8 
           5310      3.91358e+8 
           5330      3.86146e+8 
           5350       3.7979e+8 
           5370      3.76678e+8 
           5390      3.70802e+8 
           5410      3.66457e+8 
           5430      3.60414e+8 
           5450      3.55136e+8 
           5470      3.50227e+8 
           5490      3.46492e+8 
           5510      3.43386e+8 
           5530      3.36977e+8 
           5550      3.34504e+8 
           5570      3.29556e+8 
           5590      3.26032e+8 
           5610      3.20863e+8 
           5630      3.17839e+8 
           5650      3.09857e+8 
           5670      3.04335e+8 
           5690      2.99861e+8 
           5710      2.98734e+8 
           5730      2.96435e+8 
           5750      2.90912e+8 
           5770      2.90042e+8 
           5790      2.85771e+8 
           5810      2.82156e+8 
           5830      2.77563e+8 
           5850      2.74821e+8 
           5870      2.64314e+8 
           5890       2.6465e+8 
           5910      2.62808e+8 
           5930      2.59378e+8 
           5950      2.55392e+8 
           5970      2.55787e+8 
           5990      2.50008e+8 
           6010      2.49014e+8 
           6030      2.44827e+8 
           6050      2.42243e+8 
           6070      2.40148e+8 
           6090      2.37233e+8 
           6110      2.34451e+8 
           6130      2.32072e+8 
           6150      2.26551e+8 
           6170      2.24807e+8 
           6190      2.23386e+8 
           6210      2.21198e+8 
           6230      2.18867e+8 
           6250      2.14884e+8 
           6270      2.12873e+8 
           6290      2.10874e+8 
           6310      2.07713e+8 
           6330      2.06168e+8 
           6350      2.02237e+8 
           6370      2.01024e+8 
           6390      1.98753e+8 
           6410      1.96543e+8 
           6430       1.9483e+8 
           6450       1.9232e+8 
           6470      1.88685e+8 
           6490      1.86969e+8 
           6510      1.85049e+8 
           6530      1.81849e+8 
           6550      1.76148e+8 
           6570      1.55684e+8 
           6590      1.74571e+8 
           6610      1.74853e+8 
           6630      1.73414e+8 
           6650      1.71171e+8 
           6670      1.68029e+8 
           6690      1.66386e+8 
           6710      1.66057e+8 
           6730      1.63416e+8 
           6750      1.62697e+8 
           6770      1.60924e+8 
           6790      1.56889e+8 
           6810      1.56846e+8 
           6830      1.54846e+8 
           6850      1.53863e+8 
           6870      1.52122e+8 
           6890      1.50114e+8 
           6910      1.47968e+8 
           6930      1.47295e+8 
           6950      1.45926e+8 
           6970      1.44408e+8 
           6990      1.42711e+8 
           7010      1.41116e+8 
           7030       1.3959e+8 
           7050      1.38208e+8 
           7070       1.3436e+8 
           7090      1.34997e+8 
           7110      1.31704e+8 
           7130      1.30559e+8 
           7150      1.30655e+8 
           7170      1.29773e+8 
           7190      1.28593e+8 
           7210       1.2725e+8 
           7230      1.23398e+8 
           7250      1.24065e+8 
           7270       1.2332e+8 
           7290      1.21028e+8 
           7310      1.20768e+8 
           7330      1.19444e+8 
           7350      1.18355e+8 
           7370      1.17228e+8 
           7390      1.16043e+8 
           7410      1.14875e+8 
           7430      1.13473e+8 
           7450      1.12444e+8 
           7470      1.09986e+8 
           7490      1.09977e+8 
           7510      1.09078e+8 
           7530      1.07735e+8 
           7550      1.07033e+8 
           7570      1.06014e+8 
           7590      1.04848e+8 
           7610      1.03511e+8 
           7630      1.02826e+8 
           7650      1.01807e+8 
           7670      1.00899e+8 
           7690      9.98838e+7 
           7710      9.88847e+7 
           7730      9.77494e+7 
           7750      9.70511e+7 
           7770      9.50421e+7 
           7790      9.52003e+7 
           7810       9.4244e+7 
           7830      9.34006e+7 
           7850      9.22833e+7 
           7870      9.11823e+7 
           7890      8.99218e+7 
           7910      8.96302e+7 
           7930      8.87294e+7 
           7950        8.761e+7 
           7970      8.70344e+7 
           7990      8.58793e+7 
           8010      8.54745e+7 
           8030      8.46753e+7 
           8050      8.39295e+7 
           8070      8.32537e+7 
           8090      8.23706e+7 
           8110       8.0825e+7 
           8130      8.09351e+7 
           8150      8.01924e+7 
           8170      7.95914e+7 
           8190      7.79675e+7 
           8210      7.73981e+7 
           8230      7.63104e+7 
           8250      7.65387e+7 
           8270       7.4533e+7 
           8290      7.49686e+7 
           8310      7.44336e+7 
           8330      7.38866e+7 
           8350      7.27928e+7 
           8370      7.22034e+7 
           8390      7.18542e+7 
           8410      7.10761e+7 
           8430      7.05166e+7 
           8450      6.89802e+7 
           8470      6.91747e+7 
           8490      6.84206e+7 
           8510      6.75792e+7 
           8530      6.74025e+7 
           8550      6.57528e+7 
           8570       6.6903e+7 
