# Kurucz ODFNEW /NOVER (2003)
# teff = 22000 K (value for the effective temperature for the model. Temperatures are given in K)
# logg = 3 log(cm/s2) (value for Log(G) for the model.)
# meta = -2.5  (value for the Metallicity for the model.)
# lh = 1.25  (l/Hp where l is the  mixing length of the convective element and Hp is the pressure scale height)
# vtur = 2 km/s (Microturbulence velocity)
# alpha = 0  (Alpha)
#
# column 1: WAVELENGTH (ANGSTROM), Wavelength in Angstrom
# column 2: FLUX (ERG/CM2/S/A), Flux in erg/cm2/s/A
          147.2     8.70563e-17 
            151     5.12214e-16 
          155.2     3.27196e-15 
          158.8     1.47913e-14 
            162     5.33413e-14 
            166     2.46632e-13 
          170.3      1.1769e-12 
          173.4     3.45386e-12 
          176.8      1.0752e-11 
          180.2      3.2009e-11 
          181.7     5.11003e-11 
          186.1     1.92579e-10 
            191     7.82735e-10 
          193.9      1.73338e-9 
          198.4       5.6722e-9 
          201.8      1.33908e-8 
            205      2.92437e-8 
          210.5      1.05638e-7 
          216.2       3.7189e-7 
          219.8      7.94756e-7 
            223      1.52763e-6 
          226.8      3.23615e-6 
            230      1.05755e-5 
            234      2.39739e-5 
            240      6.64509e-5 
          246.5     0.000189647 
          252.4      0.00047055 
          256.8     0.000872897 
            260      0.00141056 
            264      0.00244829 
          268.5       0.0044567 
          273.5      0.00846306 
          278.5       0.0157089 
            284       0.0301996 
            290       0.0597884 
            296        0.114881 
            301        0.193606 
            308        0.384902 
            318         1.01197 
            328         2.45576 
            338         5.63722 
            348         12.2973 
            357         23.8327 
            366         44.6374 
            375         80.8378 
            385          151.07 
            395          272.65 
            405         476.766 
            414         768.906 
            422         1153.54 
            430         1701.52 
            441         2834.37 
            451         4398.86 
            460         6415.08 
            470         9574.96 
            480         14024.2 
            490           20189 
            500         28586.2 
            506          189765 
            512          531213 
            520          659499 
            530          926722 
            540      1.00491e+6 
            550      1.43419e+6 
            560      1.72447e+6 
            570       2.0963e+6 
            580      2.10214e+6 
            590      2.77401e+6 
            600      3.47732e+6 
            610      4.10839e+6 
            620      4.76008e+6 
            630      5.53381e+6 
            640      6.27398e+6 
            650      7.24774e+6 
            658      8.12307e+6 
            665      8.87334e+6 
            675       9.8824e+6 
            685      1.10845e+7 
            695      1.27613e+7 
            705      1.41748e+7 
            716      1.59942e+7 
            726      1.77059e+7 
            735      1.95281e+7 
            745      2.16566e+7 
            755      2.38565e+7 
            765       2.6144e+7 
            775      2.86945e+7 
            785      3.13439e+7 
            795      3.40426e+7 
            805      3.69686e+7 
            815      3.99119e+7 
            825      4.32592e+7 
            835      4.59959e+7 
            845      4.99534e+7 
            855      5.34309e+7 
            865      5.74692e+7 
            875      6.16545e+7 
            885      6.58534e+7 
            895      7.01137e+7 
            905      7.38349e+7 
            915      1.73816e+8 
            925      3.03466e+9 
            935      6.76473e+9 
            945     1.20061e+10 
            955     1.33397e+10 
            965     1.53766e+10 
            975      8.51245e+9 
            985     1.50936e+10 
            995     1.44824e+10 
           1005     1.49819e+10 
           1015     1.43689e+10 
           1025      8.69082e+9 
           1035      1.3501e+10 
           1045     1.49502e+10 
           1055     1.45977e+10 
           1065     1.36423e+10 
           1075     1.40501e+10 
           1085     1.32861e+10 
           1095     1.38909e+10 
           1105     1.34333e+10 
           1115     1.33201e+10 
           1125     1.26798e+10 
           1135     1.30119e+10 
           1145     1.25962e+10 
           1155     1.27487e+10 
           1165     1.26057e+10 
           1175     1.12378e+10 
           1185     1.21814e+10 
           1195     1.16402e+10 
           1205     1.07216e+10 
           1215      6.03032e+9 
           1225     1.09804e+10 
           1235     1.12955e+10 
           1245     1.11022e+10 
           1255     1.10022e+10 
           1265      1.0776e+10 
           1275     1.07553e+10 
           1285     1.05853e+10 
           1295      9.94533e+9 
           1305     1.00187e+10 
           1315     1.01198e+10 
           1325      9.84641e+9 
           1335      9.52718e+9 
           1345      9.63614e+9 
           1355      9.55353e+9 
           1365      9.37342e+9 
           1375      9.22423e+9 
           1385       9.1082e+9 
           1395      8.73533e+9 
           1405      8.68719e+9 
           1415      8.68525e+9 
           1425      8.57009e+9 
           1435      8.47247e+9 
           1442      8.40364e+9 
           1447      8.33432e+9 
           1455      8.23172e+9 
           1465      8.09918e+9 
           1475      7.98368e+9 
           1485      7.86558e+9 
           1495      7.74705e+9 
           1505      7.59338e+9 
           1512      7.50544e+9 
           1517      7.47029e+9 
           1525      7.37657e+9 
           1535      7.15094e+9 
           1545      7.08124e+9 
           1555      6.93608e+9 
           1565      6.94432e+9 
           1575      6.87692e+9 
           1585      6.78232e+9 
           1595      6.69369e+9 
           1605      6.51505e+9 
           1615      6.42118e+9 
           1625      6.38377e+9 
           1635      6.31296e+9 
           1645      6.14122e+9 
           1655      6.14233e+9 
           1665        6.067e+9 
           1672      5.98127e+9 
           1677      5.98932e+9 
           1685      5.91388e+9 
           1695      5.81034e+9 
           1705      5.71556e+9 
           1715      5.60594e+9 
           1725      5.54771e+9 
           1735      5.48507e+9 
           1745      5.40197e+9 
           1755      5.35123e+9 
           1765      5.21107e+9 
           1775      5.17105e+9 
           1785      5.12805e+9 
           1795      5.06628e+9 
           1805      5.01146e+9 
           1815      4.92013e+9 
           1825      4.86139e+9 
           1835      4.79747e+9 
           1845      4.66592e+9 
           1855      4.54929e+9 
           1865       4.5301e+9 
           1875      4.52895e+9 
           1885      4.37882e+9 
           1895      4.26779e+9 
           1905      4.31331e+9 
           1915      4.18979e+9 
           1925      4.12838e+9 
           1935      4.12687e+9 
           1945      4.10854e+9 
           1955      3.96391e+9 
           1967      3.98901e+9 
           1976      3.97727e+9 
           1984      3.88649e+9 
           1995      3.78242e+9 
           2005      3.80747e+9 
           2015      3.78499e+9 
           2025      3.75092e+9 
           2035      3.67576e+9 
           2045      3.62863e+9 
           2055      3.53569e+9 
           2065      3.49057e+9 
           2074      3.51771e+9 
           2078      3.44529e+9 
           2085      3.45001e+9 
           2095      3.37887e+9 
           2105      3.37312e+9 
           2115      3.34399e+9 
           2125      3.31493e+9 
           2135      3.27081e+9 
           2145      3.22024e+9 
           2155      3.19123e+9 
           2165      3.15434e+9 
           2175       3.1133e+9 
           2185      3.07761e+9 
           2195       3.0433e+9 
           2205      3.00599e+9 
           2215      2.97008e+9 
           2225      2.93256e+9 
           2235      2.89635e+9 
           2245      2.86545e+9 
           2255      2.82861e+9 
           2265      2.79781e+9 
           2275      2.76475e+9 
           2285      2.73303e+9 
           2295      2.67729e+9 
           2305      2.66829e+9 
           2315      2.63545e+9 
           2325       2.6053e+9 
           2335      2.57281e+9 
           2345      2.54447e+9 
           2355      2.51693e+9 
           2365      2.48714e+9 
           2375      2.45822e+9 
           2385      2.42904e+9 
           2395      2.40177e+9 
           2405      2.37467e+9 
           2415      2.34639e+9 
           2425      2.32202e+9 
           2435      2.29473e+9 
           2445      2.26938e+9 
           2455      2.24449e+9 
           2465      2.21894e+9 
           2475      2.19403e+9 
           2485      2.16921e+9 
           2495      2.11766e+9 
           2505      2.12096e+9 
           2513      2.09585e+9 
           2518      2.09015e+9 
           2525      2.07438e+9 
           2535      2.05125e+9 
           2545      2.02492e+9 
           2555      2.00656e+9 
           2565      1.98459e+9 
           2575      1.96381e+9 
           2585      1.94239e+9 
           2595      1.92135e+9 
           2605      1.91428e+9 
           2615      1.89345e+9 
           2625      1.87101e+9 
           2635      1.84598e+9 
           2645      1.82861e+9 
           2655      1.80759e+9 
           2665      1.78684e+9 
           2675      1.76687e+9 
           2685      1.75728e+9 
           2695      1.72762e+9 
           2705      1.72022e+9 
           2715       1.7021e+9 
           2725      1.67279e+9 
           2735      1.66627e+9 
           2745      1.64805e+9 
           2755      1.63125e+9 
           2765      1.60277e+9 
           2775      1.59838e+9 
           2785      1.58172e+9 
           2795      1.55837e+9 
           2805      1.54732e+9 
           2815      1.53355e+9 
           2825      1.50538e+9 
           2835      1.49647e+9 
           2845      1.48704e+9 
           2855      1.47193e+9 
           2865      1.45712e+9 
           2875      1.44236e+9 
           2885      1.42789e+9 
           2895      1.41351e+9 
           2910      1.39225e+9 
           2930      1.36462e+9 
           2950      1.32995e+9 
           2970       1.3115e+9 
           2990      1.28575e+9 
           3010       1.2607e+9 
           3030      1.23656e+9 
           3050      1.21278e+9 
           3070      1.18956e+9 
           3090      1.16652e+9 
           3110      1.14478e+9 
           3130      1.12443e+9 
           3150      1.10295e+9 
           3170      1.08199e+9 
           3190      1.05428e+9 
           3210      1.04225e+9 
           3230      1.02295e+9 
           3250      1.00405e+9 
           3270      9.86806e+8 
           3290       9.6757e+8 
           3310      9.51443e+8 
           3330      9.34341e+8 
           3350      9.16001e+8 
           3370      9.01312e+8 
           3390      8.85333e+8 
           3410      8.69729e+8 
           3430      8.50394e+8 
           3450      8.32619e+8 
           3470      8.20733e+8 
           3490      8.07333e+8 
           3510      7.97639e+8 
           3530      7.84333e+8 
           3550      7.71126e+8 
           3570      7.60884e+8 
           3590      7.44625e+8 
           3610      7.32639e+8 
           3630      7.19614e+8 
           3640      7.17457e+8 
           3650      7.09968e+8 
           3670      7.00097e+8 
           3690      6.75983e+8 
           3710      6.74818e+8 
           3730       6.7632e+8 
           3750      7.42154e+8 
           3770      7.41483e+8 
           3790      7.55185e+8 
           3810      7.79588e+8 
           3830      7.00456e+8 
           3850      7.81976e+8 
           3870      7.69034e+8 
           3890      6.72218e+8 
           3910      7.53479e+8 
           3930      7.37487e+8 
           3950      7.29072e+8 
           3970      6.24293e+8 
           3990      7.03973e+8 
           4010      6.91111e+8 
           4030      6.65225e+8 
           4050      6.73186e+8 
           4070      6.61788e+8 
           4090      6.36752e+8 
           4110       5.7196e+8 
           4130      6.25206e+8 
           4150      6.16045e+8 
           4170       6.0924e+8 
           4190      6.01056e+8 
           4210      5.91596e+8 
           4230      5.82267e+8 
           4250      5.73088e+8 
           4270      5.63682e+8 
           4290      5.55327e+8 
           4310      5.46372e+8 
           4330      5.19576e+8 
           4350      4.79211e+8 
           4370      5.21194e+8 
           4390      5.06272e+8 
           4410      5.05952e+8 
           4430      4.96537e+8 
           4450      4.90828e+8 
           4470      4.71305e+8 
           4490      4.76142e+8 
           4510      4.69076e+8 
           4530      4.62079e+8 
           4550      4.55151e+8 
           4570      4.48416e+8 
           4590      4.41834e+8 
           4610       4.3535e+8 
           4630      4.28978e+8 
           4650      4.22491e+8 
           4670      4.16548e+8 
           4690      4.10348e+8 
           4710      4.00502e+8 
           4730      3.98739e+8 
           4750      3.92934e+8 
           4770      3.87477e+8 
           4790      3.81966e+8 
           4810      3.76516e+8 
           4830       3.7095e+8 
           4850      3.56093e+8 
           4870       3.2355e+8 
           4890       3.5516e+8 
           4910      3.50819e+8 
           4930      3.40833e+8 
           4950      3.41159e+8 
           4970      3.36467e+8 
           4990      3.31838e+8 
           5010      3.24166e+8 
           5030      3.22814e+8 
           5050      3.16806e+8 
           5070      3.14091e+8 
           5090      3.09839e+8 
           5110      3.05673e+8 
           5130      3.01548e+8 
           5150      2.97506e+8 
           5170      2.93545e+8 
           5190      2.89637e+8 
           5210      2.85794e+8 
           5230      2.82014e+8 
           5250      2.78298e+8 
           5270      2.74643e+8 
           5290      2.71049e+8 
           5310      2.67515e+8 
           5330      2.64039e+8 
           5350      2.60608e+8 
           5370      2.57246e+8 
           5390      2.53927e+8 
           5410      2.50663e+8 
           5430      2.47465e+8 
           5450      2.44308e+8 
           5470      2.41203e+8 
           5490      2.38136e+8 
           5510      2.35132e+8 
           5530      2.32166e+8 
           5550      2.29248e+8 
           5570      2.26378e+8 
           5590      2.23556e+8 
           5610      2.20768e+8 
           5630      2.18025e+8 
           5650      2.15328e+8 
           5670      2.12663e+8 
           5690      2.10042e+8 
           5710      2.07487e+8 
           5730      2.04951e+8 
           5750      2.02445e+8 
           5770      1.99992e+8 
           5790      1.97568e+8 
           5810      1.95183e+8 
           5830      1.92827e+8 
           5850       1.9052e+8 
           5870      1.83888e+8 
           5890      1.85953e+8 
           5910       1.8378e+8 
           5930        1.816e+8 
           5950      1.79455e+8 
           5970      1.77335e+8 
           5990       1.7525e+8 
           6010      1.73199e+8 
           6030      1.71171e+8 
           6050      1.69177e+8 
           6070      1.67215e+8 
           6090      1.65276e+8 
           6110      1.63368e+8 
           6130      1.61482e+8 
           6150      1.59626e+8 
           6170      1.57801e+8 
           6190      1.55997e+8 
           6210      1.54222e+8 
           6230      1.52476e+8 
           6250       1.5075e+8 
           6270      1.49042e+8 
           6290      1.47362e+8 
           6310      1.45711e+8 
           6330      1.44077e+8 
           6350       1.4247e+8 
           6370       1.4088e+8 
           6390      1.39326e+8 
           6410       1.3778e+8 
           6430      1.36259e+8 
           6450      1.34763e+8 
           6470      1.33274e+8 
           6490      1.31819e+8 
           6510      1.30379e+8 
           6530      1.28884e+8 
           6550      1.25639e+8 
           6570      1.13835e+8 
           6590      1.24448e+8 
           6610      1.23472e+8 
           6630      1.22146e+8 
           6650      1.20918e+8 
           6670      1.18754e+8 
           6690      1.17507e+8 
           6710      1.17092e+8 
           6730      1.15848e+8 
           6750      1.14625e+8 
           6770      1.13414e+8 
           6790      1.12224e+8 
           6810      1.11046e+8 
           6830      1.09888e+8 
           6850      1.08733e+8 
           6870      1.07606e+8 
           6890      1.06483e+8 
           6910      1.05386e+8 
           6930      1.04292e+8 
           6950      1.03225e+8 
           6970       1.0216e+8 
           6990      1.01106e+8 
           7010      1.00078e+8 
           7030      9.90593e+7 
           7050      9.80508e+7 
           7070      9.56051e+7 
           7090      9.60783e+7 
           7110      9.51063e+7 
           7130       9.4151e+7 
           7150       9.3205e+7 
           7170      9.22534e+7 
           7190      9.13474e+7 
           7210      9.04355e+7 
           7230       8.9489e+7 
           7250      8.86519e+7 
           7270      8.77728e+7 
           7290      8.62356e+7 
           7310      8.60323e+7 
           7330      8.52058e+7 
           7350      8.43732e+7 
           7370      8.35483e+7 
           7390       8.2731e+7 
           7410      8.19283e+7 
           7430      8.11329e+7 
           7450      8.03585e+7 
           7470      7.95845e+7 
           7490      7.88176e+7 
           7510      7.80309e+7 
           7530      7.73114e+7 
           7550      7.65719e+7 
           7570      7.58391e+7 
           7590      7.51195e+7 
           7610      7.44064e+7 
           7630      7.36998e+7 
           7650      7.30059e+7 
           7670      7.23183e+7 
           7690      7.16305e+7 
           7710      7.09551e+7 
           7730      7.02984e+7 
           7750       6.9635e+7 
           7770      6.89899e+7 
           7790      6.83567e+7 
           7810      6.76674e+7 
           7830      6.70948e+7 
           7850      6.65455e+7 
           7870       6.5934e+7 
           7890      6.52855e+7 
           7910      6.46788e+7 
           7930      6.39875e+7 
           7950      6.33858e+7 
           7970      6.27656e+7 
           7990      6.22393e+7 
           8010      6.16588e+7 
           8030        6.113e+7 
           8050      6.06174e+7 
           8070      6.01148e+7 
           8090      5.94496e+7 
           8110      5.89677e+7 
           8130      5.85297e+7 
           8150      5.78855e+7 
           8170      5.75065e+7 
           8190      5.69452e+7 
           8210      5.63048e+7 
           8230      5.59869e+7 
           8250      5.54944e+7 
           8270      5.47174e+7 
           8290      5.44378e+7 
           8310      5.39791e+7 
           8330      5.34949e+7 
           8350      5.27818e+7 
           8370      5.23739e+7 
           8390      5.19843e+7 
           8410      5.14881e+7 
           8430      5.10039e+7 
           8450      5.03555e+7 
           8470      4.97341e+7 
           8490      5.00138e+7 
           8510      4.86273e+7 
           8530      4.94454e+7 
           8550      4.70731e+7 
           8570      4.93973e+7 
           8590      4.69078e+7 
