# Kurucz ODFNEW /NOVER (2003)
# teff = 22000 K (value for the effective temperature for the model. Temperatures are given in K)
# logg = 3 log(cm/s2) (value for Log(G) for the model.)
# meta = -2  (value for the Metallicity for the model.)
# lh = 1.25  (l/Hp where l is the  mixing length of the convective element and Hp is the pressure scale height)
# vtur = 2 km/s (Microturbulence velocity)
# alpha = 0.4  (Alpha)
#
# column 1: WAVELENGTH (ANGSTROM), Wavelength in Angstrom
# column 2: FLUX (ERG/CM2/S/A), Flux in erg/cm2/s/A
          147.2     3.46097e-17 
            151     2.03491e-16 
          155.2     1.29982e-15 
          158.8     5.88248e-15 
            162     2.12423e-14 
            166     9.85053e-14 
          170.3     4.71787e-13 
          173.4     1.38926e-12 
          176.8     4.33552e-12 
          180.2     1.29405e-11 
          181.7     2.06834e-11 
          186.1     7.83063e-11 
            191     3.20108e-10 
          193.9     7.10578e-10 
          198.4      2.33364e-9 
          201.8      5.52847e-9 
            205      1.21136e-8 
          210.5      4.39286e-8 
          216.2      1.55592e-7 
          219.8      3.33552e-7 
            223      6.42476e-7 
          226.8      1.36437e-6 
            230      1.57578e-5 
            234      3.86272e-5 
            240     0.000104327 
          246.5     0.000289797 
          252.4     0.000705964 
          256.8       0.0012569 
            260      0.00205507 
            264      0.00351087 
          268.5      0.00628751 
          273.5       0.0117231 
          278.5       0.0214117 
            284       0.0405151 
            290       0.0787324 
            296        0.148575 
            301        0.246181 
            308        0.470475 
            318          1.2393 
            328         2.92982 
            338         6.61924 
            348         14.1781 
            357         27.2116 
            366         50.4899 
            375         89.9087 
            385         166.102 
            395         295.613 
            405         510.988 
            414         817.658 
            422         1213.89 
            430         1772.99 
            441         2932.38 
            451         4523.88 
            460         6547.01 
            470         9712.25 
            480         14128.8 
            490         20231.4 
            500         28507.9 
            506          231435 
            512          662909 
            520          818509 
            530      1.13209e+6 
            540      1.23012e+6 
            550      1.76085e+6 
            560      2.10421e+6 
            570      2.56765e+6 
            580      2.57842e+6 
            590      3.41405e+6 
            600      4.22188e+6 
            610      5.01381e+6 
            620      5.75826e+6 
            630      6.71184e+6 
            640      7.49725e+6 
            650      8.62287e+6 
            658      9.79665e+6 
            665      1.06368e+7 
            675      1.17023e+7 
            685      1.30788e+7 
            695      1.52135e+7 
            705      1.67322e+7 
            716      1.89895e+7 
            726      2.08579e+7 
            735      2.29591e+7 
            745      2.55879e+7 
            755      2.81325e+7 
            765      3.07441e+7 
            775      3.38171e+7 
            785      3.69298e+7 
            795      3.98632e+7 
            805      4.32885e+7 
            815      4.65001e+7 
            825      5.04819e+7 
            835      5.28975e+7 
            845       5.7837e+7 
            855      6.17898e+7 
            865      6.64264e+7 
            875      7.13037e+7 
            885      7.63007e+7 
            895      8.11142e+7 
            905      8.49846e+7 
            915      1.89331e+8 
            925      3.10559e+9 
            935      6.86772e+9 
            945     1.18647e+10 
            955     1.31732e+10 
            965     1.50583e+10 
            975      7.57521e+9 
            985      1.4658e+10 
            995      1.3979e+10 
           1005      1.4472e+10 
           1015      1.4072e+10 
           1025      8.64384e+9 
           1035     1.28821e+10 
           1045     1.49453e+10 
           1055     1.44697e+10 
           1065     1.32497e+10 
           1075     1.39357e+10 
           1085       1.312e+10 
           1095     1.39151e+10 
           1105     1.31766e+10 
           1115     1.31347e+10 
           1125     1.23509e+10 
           1135      1.3063e+10 
           1145     1.23324e+10 
           1155     1.26863e+10 
           1165      1.2624e+10 
           1175     1.09142e+10 
           1185     1.22361e+10 
           1195     1.14877e+10 
           1205      9.77326e+9 
           1215      6.17528e+9 
           1225     1.09316e+10 
           1235     1.13489e+10 
           1245     1.11986e+10 
           1255     1.09912e+10 
           1265     1.08245e+10 
           1275     1.08876e+10 
           1285     1.06789e+10 
           1295      9.55535e+9 
           1305      9.74992e+9 
           1315     1.02126e+10 
           1325      9.91808e+9 
           1335      9.55571e+9 
           1345       9.6401e+9 
           1355      9.66885e+9 
           1365      9.36271e+9 
           1375      9.23758e+9 
           1385       9.1736e+9 
           1395      8.44146e+9 
           1405      8.52516e+9 
           1415       8.7131e+9 
           1425      8.58141e+9 
           1435      8.53504e+9 
           1442      8.51415e+9 
           1447      8.43022e+9 
           1455      8.30913e+9 
           1465      8.15869e+9 
           1475      8.04792e+9 
           1485      7.92384e+9 
           1495      7.78818e+9 
           1505      7.55496e+9 
           1512      7.45946e+9 
           1517      7.46309e+9 
           1525      7.36571e+9 
           1535      7.04557e+9 
           1545      7.03673e+9 
           1555      6.84011e+9 
           1565      6.91525e+9 
           1575      6.89089e+9 
           1585      6.79312e+9 
           1595      6.72405e+9 
           1605      6.50803e+9 
           1615      6.41251e+9 
           1625      6.38605e+9 
           1635      6.35876e+9 
           1645      6.19551e+9 
           1655       6.1818e+9 
           1665      6.10777e+9 
           1672      6.01118e+9 
           1677      6.07117e+9 
           1685      5.98341e+9 
           1695      5.85663e+9 
           1705      5.74264e+9 
           1715      5.60325e+9 
           1725      5.55252e+9 
           1735      5.50885e+9 
           1745      5.42399e+9 
           1755      5.39526e+9 
           1765      5.22461e+9 
           1775      5.17237e+9 
           1785      5.13822e+9 
           1795      5.10978e+9 
           1805        5.068e+9 
           1815      4.93614e+9 
           1825      4.89905e+9 
           1835      4.83238e+9 
           1845      4.62309e+9 
           1855      4.53145e+9 
           1865      4.54342e+9 
           1875      4.55767e+9 
           1885      4.33768e+9 
           1895      4.18103e+9 
           1905      4.29753e+9 
           1915      4.15373e+9 
           1925       4.0748e+9 
           1935      4.11922e+9 
           1945      4.12089e+9 
           1955      3.92113e+9 
           1967      3.99242e+9 
           1976      4.02348e+9 
           1984      3.88726e+9 
           1995      3.77853e+9 
           2005      3.81563e+9 
           2015      3.81301e+9 
           2025      3.79952e+9 
           2035      3.68567e+9 
           2045      3.64224e+9 
           2055      3.52989e+9 
           2065      3.51398e+9 
           2074      3.57201e+9 
           2078      3.47085e+9 
           2085      3.47792e+9 
           2095       3.3872e+9 
           2105      3.40355e+9 
           2115      3.37869e+9 
           2125      3.36749e+9 
           2135      3.31767e+9 
           2145       3.2493e+9 
           2155      3.23804e+9 
           2165      3.20426e+9 
           2175      3.15853e+9 
           2185      3.12519e+9 
           2195      3.09444e+9 
           2205      3.05613e+9 
           2215      3.02099e+9 
           2225      2.97837e+9 
           2235      2.93979e+9 
           2245      2.91478e+9 
           2255      2.87358e+9 
           2265      2.84635e+9 
           2275      2.81286e+9 
           2285      2.78231e+9 
           2295      2.71527e+9 
           2305      2.71573e+9 
           2315      2.67882e+9 
           2325      2.64914e+9 
           2335      2.60998e+9 
           2345       2.5853e+9 
           2355      2.56129e+9 
           2365      2.53065e+9 
           2375      2.49983e+9 
           2385       2.4703e+9 
           2395      2.44243e+9 
           2405      2.41558e+9 
           2415      2.38334e+9 
           2425      2.36385e+9 
           2435      2.33349e+9 
           2445      2.30921e+9 
           2455      2.28518e+9 
           2465      2.25887e+9 
           2475      2.23327e+9 
           2485      2.20771e+9 
           2495      2.12813e+9 
           2505      2.15795e+9 
           2513      2.12466e+9 
           2518      2.12241e+9 
           2525      2.10989e+9 
           2535      2.08718e+9 
           2545      2.04789e+9 
           2555      2.03934e+9 
           2565      2.01568e+9 
           2575      1.99915e+9 
           2585      1.97711e+9 
           2595      1.95586e+9 
           2605      1.94748e+9 
           2615      1.92683e+9 
           2625      1.90442e+9 
           2635      1.87919e+9 
           2645      1.86199e+9 
           2655      1.84105e+9 
           2665      1.81882e+9 
           2675       1.7993e+9 
           2685      1.78974e+9 
           2695      1.75817e+9 
           2705      1.75117e+9 
           2715      1.73303e+9 
           2725      1.70303e+9 
           2735      1.69654e+9 
           2745      1.67615e+9 
           2755      1.65974e+9 
           2765      1.63174e+9 
           2775      1.62783e+9 
           2785      1.61043e+9 
           2795       1.5738e+9 
           2805       1.5694e+9 
           2815      1.56179e+9 
           2825      1.53342e+9 
           2835         1.52e+9 
           2845      1.51431e+9 
           2855      1.49864e+9 
           2865      1.48384e+9 
           2875      1.46888e+9 
           2885      1.45428e+9 
           2895      1.43949e+9 
           2910      1.41757e+9 
           2930      1.38907e+9 
           2950      1.35423e+9 
           2970      1.33546e+9 
           2990      1.30893e+9 
           3010      1.28311e+9 
           3030      1.25921e+9 
           3050      1.23502e+9 
           3070      1.21146e+9 
           3090      1.18597e+9 
           3110      1.16566e+9 
           3130      1.14474e+9 
           3150      1.12296e+9 
           3170      1.10163e+9 
           3190       1.0735e+9 
           3210      1.06119e+9 
           3230      1.04137e+9 
           3250      1.02221e+9 
           3270      1.00467e+9 
           3290      9.85077e+8 
           3310       9.6867e+8 
           3330       9.5126e+8 
           3350      9.32584e+8 
           3370      9.17567e+8 
           3390      9.01363e+8 
           3410      8.85475e+8 
           3430      8.65829e+8 
           3450       8.4778e+8 
           3470      8.35532e+8 
           3490      8.21839e+8 
           3510      8.11827e+8 
           3530      7.98391e+8 
           3550      7.84907e+8 
           3570      7.74452e+8 
           3590       7.5775e+8 
           3610      7.45503e+8 
           3630      7.32336e+8 
           3640      7.30195e+8 
           3650       7.2241e+8 
           3670      7.12488e+8 
           3690      6.88212e+8 
           3710      6.86314e+8 
           3730      6.87097e+8 
           3750      7.52253e+8 
           3770      7.50946e+8 
           3790       7.6418e+8 
           3810      7.87867e+8 
           3830      7.09368e+8 
           3850      7.89982e+8 
           3870       7.7658e+8 
           3890      6.80807e+8 
           3910       7.6097e+8 
           3930      7.43853e+8 
           3950      7.36171e+8 
           3970      6.32253e+8 
           3990      7.10978e+8 
           4010      6.98187e+8 
           4030      6.72276e+8 
           4050      6.79985e+8 
           4070       6.6711e+8 
           4090      6.42472e+8 
           4110      5.78851e+8 
           4130      6.30573e+8 
           4150      6.22016e+8 
           4170      6.15371e+8 
           4190      6.06957e+8 
           4210      5.97696e+8 
           4230      5.88226e+8 
           4250      5.78677e+8 
           4270      5.68455e+8 
           4290      5.60649e+8 
           4310      5.51442e+8 
           4330       5.2482e+8 
           4350      4.84248e+8 
           4370      5.26165e+8 
           4390       5.1153e+8 
           4410      5.10542e+8 
           4430      5.01585e+8 
           4450      4.95774e+8 
           4470      4.76321e+8 
           4490      4.80683e+8 
           4510       4.7391e+8 
           4530      4.66797e+8 
           4550      4.59609e+8 
           4570      4.52619e+8 
           4590      4.46144e+8 
           4610      4.39728e+8 
           4630      4.33337e+8 
           4650      4.25819e+8 
           4670      4.20556e+8 
           4690      4.14561e+8 
           4710      4.04188e+8 
           4730      4.02713e+8 
           4750      3.96724e+8 
           4770      3.91533e+8 
           4790      3.85939e+8 
           4810      3.80359e+8 
           4830      3.74664e+8 
           4850      3.60049e+8 
           4870      3.27664e+8 
           4890      3.58862e+8 
           4910      3.54444e+8 
           4930      3.44398e+8 
           4950      3.44603e+8 
           4970       3.3999e+8 
           4990      3.35288e+8 
           5010      3.27393e+8 
           5030      3.26165e+8 
           5050      3.19952e+8 
           5070      3.17374e+8 
           5090      3.13068e+8 
           5110      3.08847e+8 
           5130      3.04683e+8 
           5150      3.00588e+8 
           5170      2.96604e+8 
           5190      2.92672e+8 
           5210      2.88722e+8 
           5230      2.84976e+8 
           5250      2.81223e+8 
           5270      2.77519e+8 
           5290       2.7389e+8 
           5310      2.70321e+8 
           5330      2.66797e+8 
           5350      2.63319e+8 
           5370      2.59937e+8 
           5390      2.56585e+8 
           5410      2.53289e+8 
           5430      2.50034e+8 
           5450      2.46845e+8 
           5470      2.43721e+8 
           5490      2.40636e+8 
           5510      2.37602e+8 
           5530      2.34605e+8 
           5550      2.31658e+8 
           5570      2.28758e+8 
           5590      2.25907e+8 
           5610      2.23078e+8 
           5630      2.20331e+8 
           5650      2.17558e+8 
           5670      2.14854e+8 
           5690      2.12195e+8 
           5710      2.09659e+8 
           5730      2.07097e+8 
           5750      2.04531e+8 
           5770      2.02097e+8 
           5790      1.99647e+8 
           5810      1.97237e+8 
           5830      1.94855e+8 
           5850      1.92523e+8 
           5870        1.859e+8 
           5890      1.87886e+8 
           5910      1.85711e+8 
           5930      1.83507e+8 
           5950      1.81328e+8 
           5970      1.79206e+8 
           5990      1.77088e+8 
           6010      1.75024e+8 
           6030      1.72974e+8 
           6050      1.70958e+8 
           6070      1.68974e+8 
           6090      1.67023e+8 
           6110      1.65094e+8 
           6130      1.63186e+8 
           6150        1.613e+8 
           6170      1.59464e+8 
           6190      1.57649e+8 
           6210      1.55853e+8 
           6230      1.54087e+8 
           6250      1.52331e+8 
           6270      1.50614e+8 
           6290      1.48924e+8 
           6310      1.47244e+8 
           6330        1.456e+8 
           6350      1.43946e+8 
           6370      1.42357e+8 
           6390      1.40793e+8 
           6410      1.39229e+8 
           6430      1.37699e+8 
           6450      1.36185e+8 
           6470      1.34678e+8 
           6490      1.33206e+8 
           6510      1.31757e+8 
           6530      1.30245e+8 
           6550      1.27018e+8 
           6570      1.15197e+8 
           6590      1.25689e+8 
           6610      1.24766e+8 
           6630      1.23431e+8 
           6650      1.22187e+8 
           6670      1.20025e+8 
           6690      1.18761e+8 
           6710       1.1833e+8 
           6730      1.17062e+8 
           6750      1.15832e+8 
           6770      1.14615e+8 
           6790      1.13393e+8 
           6810      1.12216e+8 
           6830      1.11043e+8 
           6850      1.09882e+8 
           6870       1.0874e+8 
           6890      1.07602e+8 
           6910      1.06498e+8 
           6930       1.0539e+8 
           6950      1.04309e+8 
           6970      1.03238e+8 
           6990       1.0217e+8 
           7010      1.01136e+8 
           7030      1.00104e+8 
           7050      9.90893e+7 
           7070      9.66452e+7 
           7090        9.709e+7 
           7110      9.61123e+7 
           7130      9.51441e+7 
           7150      9.41851e+7 
           7170      9.32207e+7 
           7190      9.23093e+7 
           7210      9.13921e+7 
           7230      9.03538e+7 
           7250      8.95765e+7 
           7270      8.86994e+7 
           7290      8.71571e+7 
           7310      8.69417e+7 
           7330      8.61033e+7 
           7350      8.52588e+7 
           7370      8.44291e+7 
           7390      8.36071e+7 
           7410      8.27928e+7 
           7430       8.1986e+7 
           7450       8.1207e+7 
           7470      8.04149e+7 
           7490      7.96435e+7 
           7510      7.88525e+7 
           7530      7.81219e+7 
           7550      7.73782e+7 
           7570      7.66411e+7 
           7590      7.59108e+7 
           7610       7.5187e+7 
           7630      7.44763e+7 
           7650       7.3772e+7 
           7670      7.30803e+7 
           7690      7.23885e+7 
           7710      7.17029e+7 
           7730      7.10424e+7 
           7750      7.03688e+7 
           7770      6.97013e+7 
           7790      6.90769e+7 
           7810      6.83777e+7 
           7830      6.78015e+7 
           7850      6.72424e+7 
           7870      6.66213e+7 
           7890      6.59693e+7 
           7910      6.53712e+7 
           7930      6.46644e+7 
           7950      6.40534e+7 
           7970      6.34298e+7 
           7990      6.28885e+7 
           8010      6.23106e+7 
           8030      6.17844e+7 
           8050      6.12685e+7 
           8070      6.07454e+7 
           8090       6.0077e+7 
           8110      5.95806e+7 
           8130      5.91567e+7 
           8150      5.84981e+7 
           8170      5.81104e+7 
           8190      5.75405e+7 
           8210      5.68972e+7 
           8230       5.6571e+7 
           8250      5.60756e+7 
           8270      5.52924e+7 
           8290      5.50095e+7 
           8310      5.45465e+7 
           8330      5.40579e+7 
           8350      5.33416e+7 
           8370      5.29294e+7 
           8390       5.2535e+7 
           8410      5.20346e+7 
           8430      5.15447e+7 
           8450      5.08862e+7 
           8470      5.02734e+7 
           8490      5.05323e+7 
           8510      4.91589e+7 
           8530      4.99502e+7 
           8550      4.76028e+7 
           8570      4.98841e+7 
           8590      4.74133e+7 
