# Kurucz ODFNEW /NOVER (2003)
# teff = 20000 K (value for the effective temperature for the model. Temperatures are given in K)
# logg = 5 log(cm/s2) (value for Log(G) for the model.)
# meta = -0.5  (value for the Metallicity for the model.)
# lh = 1.25  (l/Hp where l is the  mixing length of the convective element and Hp is the pressure scale height)
# vtur = 2 km/s (Microturbulence velocity)
# alpha = 0  (Alpha)
#
# column 1: WAVELENGTH (ANGSTROM), Wavelength in Angstrom
# column 2: FLUX (ERG/CM2/S/A), Flux in erg/cm2/s/A
          147.2     2.42769e-19 
            151     1.46543e-18 
          155.2     9.65228e-18 
          158.8     4.47968e-17 
            162     1.65684e-16 
            166     7.91889e-16 
          170.3     3.92056e-15 
          173.4     1.18262e-14 
          176.8     3.79631e-14 
          180.2     1.16655e-13 
          181.7     1.88839e-13 
          186.1     7.42772e-13 
            191     3.16896e-12 
          193.9     7.20809e-12 
          198.4     2.46284e-11 
          201.8     6.02432e-11 
            205     1.36304e-10 
          210.5      5.2139e-10 
          216.2      1.95093e-9 
          219.8      4.33591e-9 
            223      8.61654e-9 
          226.8      1.90173e-8 
            230      6.00695e-8 
            234       1.4738e-7 
            240      4.56712e-7 
          246.5      1.44561e-6 
          252.4      3.91402e-6 
          256.8      7.87207e-6 
            260      1.31777e-5 
            264      2.42645e-5 
          268.5       4.7078e-5 
          273.5      9.57458e-5 
          278.5     0.000190186 
            284      0.00039304 
            290     0.000839152 
            296      0.00173298 
            301      0.00310586 
            308      0.00673803 
            318       0.0195734 
            328       0.0525819 
            338        0.133341 
            348        0.319354 
            357        0.671556 
            366         1.36072 
            375         2.64942 
            385         5.35415 
            395         10.4043 
            405          19.541 
            414         33.5328 
            422         52.9901 
            430         82.0838 
            441         146.565 
            451         241.372 
            460         370.231 
            470         583.666 
            480         900.766 
            490         1364.48 
            500         2028.31 
            506         16001.4 
            512         49570.2 
            520         63630.2 
            530         89568.8 
            540          107095 
            550          154266 
            560          193975 
            570          249796 
            580          272961 
            590          372054 
            600          468850 
            610          581364 
            620          694372 
            630          839654 
            640          971439 
            650      1.14285e+6 
            658      1.34703e+6 
            665      1.49499e+6 
            675       1.7166e+6 
            685       1.9925e+6 
            695      2.36056e+6 
            705      2.69882e+6 
            716      3.12895e+6 
            726      3.54339e+6 
            735      3.97591e+6 
            745      4.54044e+6 
            755      5.13453e+6 
            765      5.75112e+6 
            775      6.46924e+6 
            785      7.22861e+6 
            795      7.97538e+6 
            805      8.83071e+6 
            815      9.69636e+6 
            825      1.07502e+7 
            835      1.15976e+7 
            845      1.27778e+7 
            855      1.39107e+7 
            865      1.52514e+7 
            875      1.66374e+7 
            885      1.81755e+7 
            895       1.9649e+7 
            905      2.07374e+7 
            915      3.00362e+7 
            925      9.28939e+7 
            935      2.04946e+8 
            945      8.76367e+8 
            955      2.83812e+9 
            965      4.18024e+9 
            975       9.4592e+8 
            985      8.31525e+9 
            995      9.27378e+9 
           1005     1.02184e+10 
           1015      6.55878e+9 
           1025      6.02731e+8 
           1035      4.40797e+9 
           1045     1.11595e+10 
           1055     1.15734e+10 
           1065      9.85879e+9 
           1075     1.14451e+10 
           1085     1.03832e+10 
           1095     1.12702e+10 
           1105     1.02258e+10 
           1115      9.98167e+9 
           1125      9.30672e+9 
           1135     1.03451e+10 
           1145      9.17122e+9 
           1155      9.67674e+9 
           1165      9.89993e+9 
           1175      7.98851e+9 
           1185      9.44865e+9 
           1195      6.87018e+9 
           1205      3.87023e+9 
           1215      6.39322e+8 
           1225      3.30229e+9 
           1235      7.44406e+9 
           1245      8.36326e+9 
           1255       8.2805e+9 
           1265      7.77036e+9 
           1275      8.28811e+9 
           1285      8.35673e+9 
           1295      6.67882e+9 
           1305      6.21827e+9 
           1315      7.87369e+9 
           1325      7.48169e+9 
           1335      6.91239e+9 
           1345      7.37476e+9 
           1355      7.19059e+9 
           1365      6.77465e+9 
           1375      6.73625e+9 
           1385      6.77739e+9 
           1395      6.25274e+9 
           1405      6.40871e+9 
           1415       6.2921e+9 
           1425      6.28481e+9 
           1435       6.2149e+9 
           1442      6.32737e+9 
           1447      6.23981e+9 
           1455       6.0986e+9 
           1465      5.84607e+9 
           1475       5.7546e+9 
           1485      5.56068e+9 
           1495      5.55649e+9 
           1505      5.27382e+9 
           1512      4.96523e+9 
           1517      5.11099e+9 
           1525      5.09217e+9 
           1535      4.74992e+9 
           1545      4.86129e+9 
           1555      4.60468e+9 
           1565      4.58848e+9 
           1575       4.7298e+9 
           1585       4.6838e+9 
           1595      4.70981e+9 
           1605      4.54703e+9 
           1615      4.49595e+9 
           1625      4.37331e+9 
           1635       4.4206e+9 
           1645      4.35894e+9 
           1655      4.13642e+9 
           1665       4.3406e+9 
           1672      4.15475e+9 
           1677      4.22552e+9 
           1685      4.23153e+9 
           1695      4.08695e+9 
           1705      3.92018e+9 
           1715      3.77443e+9 
           1725       3.7094e+9 
           1735      3.78754e+9 
           1745      3.66767e+9 
           1755      3.73191e+9 
           1765      3.46385e+9 
           1775      3.54617e+9 
           1785      3.51755e+9 
           1795      3.55973e+9 
           1805      3.51843e+9 
           1815      3.35785e+9 
           1825      3.38982e+9 
           1835      3.28405e+9 
           1845      3.09482e+9 
           1855      3.01918e+9 
           1865      3.03119e+9 
           1875      3.13642e+9 
           1885      2.92511e+9 
           1895      2.79917e+9 
           1905      2.92319e+9 
           1915      2.79895e+9 
           1925      2.73883e+9 
           1935      2.77519e+9 
           1945      2.81206e+9 
           1955      2.64547e+9 
           1967      2.74775e+9 
           1976      2.80055e+9 
           1984       2.6578e+9 
           1995      2.58011e+9 
           2005      2.61338e+9 
           2015      2.56867e+9 
           2025      2.62715e+9 
           2035       2.5086e+9 
           2045      2.49476e+9 
           2055      2.40595e+9 
           2065      2.43218e+9 
           2074      2.46305e+9 
           2078      2.38457e+9 
           2085      2.40394e+9 
           2095      2.31418e+9 
           2105      2.33875e+9 
           2115      2.31644e+9 
           2125      2.33515e+9 
           2135      2.27597e+9 
           2145      2.22778e+9 
           2155      2.24203e+9 
           2165      2.19396e+9 
           2175      2.16651e+9 
           2185      2.13646e+9 
           2195      2.14128e+9 
           2205      2.09091e+9 
           2215      2.05249e+9 
           2225      2.00022e+9 
           2235      2.02256e+9 
           2245      1.99165e+9 
           2255      1.94409e+9 
           2265      1.95061e+9 
           2275      1.93015e+9 
           2285      1.92491e+9 
           2295       1.8694e+9 
           2305      1.85343e+9 
           2315      1.81904e+9 
           2325      1.80335e+9 
           2335      1.75021e+9 
           2345      1.70374e+9 
           2355      1.72027e+9 
           2365      1.67181e+9 
           2375      1.67506e+9 
           2385      1.62918e+9 
           2395      1.64825e+9 
           2405      1.60832e+9 
           2415      1.59774e+9 
           2425      1.60228e+9 
           2435      1.55534e+9 
           2445      1.55733e+9 
           2455       1.5516e+9 
           2465      1.51635e+9 
           2475      1.50006e+9 
           2485      1.50485e+9 
           2495      1.46261e+9 
           2505      1.47749e+9 
           2513      1.43285e+9 
           2518       1.4536e+9 
           2525       1.4156e+9 
           2535      1.39272e+9 
           2545      1.37808e+9 
           2555      1.39553e+9 
           2565      1.37322e+9 
           2575       1.3774e+9 
           2585      1.37009e+9 
           2595      1.35508e+9 
           2605       1.3367e+9 
           2615      1.32529e+9 
           2625      1.31089e+9 
           2635      1.29944e+9 
           2645      1.31284e+9 
           2655        1.298e+9 
           2665      1.26854e+9 
           2675      1.26718e+9 
           2685      1.25766e+9 
           2695      1.23289e+9 
           2705      1.22894e+9 
           2715      1.20912e+9 
           2725      1.18844e+9 
           2735      1.19346e+9 
           2745      1.15128e+9 
           2755      1.14522e+9 
           2765      1.14149e+9 
           2775      1.14923e+9 
           2785      1.13404e+9 
           2795      1.09136e+9 
           2805      1.10644e+9 
           2815      1.10814e+9 
           2825      1.08625e+9 
           2835      1.06069e+9 
           2845       1.0619e+9 
           2855      1.05804e+9 
           2865      1.05562e+9 
           2875      1.04095e+9 
           2885      1.03325e+9 
           2895      1.02478e+9 
           2910      1.01166e+9 
           2930      9.86968e+8 
           2950      9.63761e+8 
           2970      9.54455e+8 
           2990      9.34017e+8 
           3010      9.20316e+8 
           3030      9.05047e+8 
           3050      8.87749e+8 
           3070      8.71263e+8 
           3090      8.55445e+8 
           3110      8.39492e+8 
           3130      8.25721e+8 
           3150      8.10599e+8 
           3170       7.9598e+8 
           3190      7.74442e+8 
           3210      7.67637e+8 
           3230      7.54513e+8 
           3250      7.41546e+8 
           3270      7.29473e+8 
           3290      7.16315e+8 
           3310      7.04969e+8 
           3330      6.92789e+8 
           3350      6.79976e+8 
           3370      6.69342e+8 
           3390      6.58156e+8 
           3410      6.47251e+8 
           3430      6.35114e+8 
           3450      6.23245e+8 
           3470      6.13986e+8 
           3490      6.03999e+8 
           3510      5.94506e+8 
           3530      5.85642e+8 
           3550      5.75923e+8 
           3570      5.68749e+8 
           3590      5.56642e+8 
           3610      5.49219e+8 
           3630      5.39267e+8 
           3640      5.37787e+8 
           3650       5.3196e+8 
           3670      5.25646e+8 
           3690      5.17446e+8 
           3710      5.01426e+8 
           3730       4.7868e+8 
           3750      4.85321e+8 
           3770      4.80822e+8 
           3790      5.19953e+8 
           3810      5.56163e+8 
           3830      4.73425e+8 
           3850      5.86399e+8 
           3870      6.17708e+8 
           3890      4.37548e+8 
           3910      6.13315e+8 
           3930      6.21748e+8 
           3950      5.97648e+8 
           3970      4.10865e+8 
           3990      5.67433e+8 
           4010      5.89222e+8 
           4030      5.45903e+8 
           4050      5.81774e+8 
           4070      5.62835e+8 
           4090      4.77417e+8 
           4110      4.01973e+8 
           4130      5.21819e+8 
           4150       5.2916e+8 
           4170      5.28191e+8 
           4190      5.22753e+8 
           4210      5.15566e+8 
           4230      5.06934e+8 
           4250      4.97836e+8 
           4270      4.85269e+8 
           4290       4.7924e+8 
           4310      4.62594e+8 
           4330      3.84126e+8 
           4350      3.45044e+8 
           4370      4.36998e+8 
           4390       4.2505e+8 
           4410      4.37146e+8 
           4430      4.29407e+8 
           4450      4.25042e+8 
           4470      3.91702e+8 
           4490      4.08925e+8 
           4510      4.07325e+8 
           4530      4.00634e+8 
           4550      3.94663e+8 
           4570      3.88961e+8 
           4590      3.83237e+8 
           4610      3.77366e+8 
           4630      3.71354e+8 
           4650      3.65779e+8 
           4670      3.60891e+8 
           4690      3.55816e+8 
           4710      3.44258e+8 
           4730      3.44148e+8 
           4750      3.38752e+8 
           4770      3.35122e+8 
           4790      3.29407e+8 
           4810      3.22537e+8 
           4830      3.12056e+8 
           4850      2.67735e+8 
           4870      2.34518e+8 
           4890      2.95339e+8 
           4910      2.99126e+8 
           4930      2.87714e+8 
           4950      2.94203e+8 
           4970      2.90971e+8 
           4990      2.86812e+8 
           5010      2.77578e+8 
           5030      2.78561e+8 
           5050       2.7144e+8 
           5070      2.71399e+8 
           5090      2.67656e+8 
           5110      2.63805e+8 
           5130      2.60206e+8 
           5150      2.56513e+8 
           5170      2.53461e+8 
           5190      2.50084e+8 
           5210      2.45809e+8 
           5230      2.43436e+8 
           5250      2.40246e+8 
           5270      2.37001e+8 
           5290      2.34055e+8 
           5310      2.30919e+8 
           5330      2.27837e+8 
           5350       2.2461e+8 
           5370       2.2209e+8 
           5390        2.192e+8 
           5410      2.16296e+8 
           5430      2.13236e+8 
           5450      2.10684e+8 
           5470       2.0795e+8 
           5490      2.05501e+8 
           5510      2.02808e+8 
           5530      2.00296e+8 
           5550      1.97804e+8 
           5570      1.95293e+8 
           5590      1.92873e+8 
           5610      1.90375e+8 
           5630      1.88169e+8 
           5650       1.8527e+8 
           5670      1.83098e+8 
           5690      1.81057e+8 
           5710      1.78993e+8 
           5730      1.76828e+8 
           5750      1.74666e+8 
           5770      1.72563e+8 
           5790      1.70463e+8 
           5810      1.68376e+8 
           5830      1.66347e+8 
           5850      1.64353e+8 
           5870      1.56631e+8 
           5890      1.59674e+8 
           5910       1.5852e+8 
           5930       1.5667e+8 
           5950      1.54618e+8 
           5970      1.52982e+8 
           5990      1.51059e+8 
           6010       1.4944e+8 
           6030      1.47683e+8 
           6050      1.45968e+8 
           6070      1.44261e+8 
           6090      1.42573e+8 
           6110      1.40965e+8 
           6130      1.39345e+8 
           6150      1.37574e+8 
           6170      1.36149e+8 
           6190      1.34622e+8 
           6210      1.33082e+8 
           6230      1.31549e+8 
           6250      1.29957e+8 
           6270      1.28611e+8 
           6290      1.27157e+8 
           6310       1.2568e+8 
           6330      1.24333e+8 
           6350      1.22467e+8 
           6370      1.21291e+8 
           6390       1.2021e+8 
           6410      1.18846e+8 
           6430      1.17616e+8 
           6450      1.16272e+8 
           6470      1.14906e+8 
           6490      1.13412e+8 
           6510      1.11765e+8 
           6530      1.09253e+8 
           6550      1.00113e+8 
           6570      8.73466e+7 
           6590      1.03733e+8 
           6610      1.05546e+8 
           6630      1.05022e+8 
           6650      1.04119e+8 
           6670       1.0192e+8 
           6690      1.00975e+8 
           6710      1.01068e+8 
           6730      1.00003e+8 
           6750      9.89646e+7 
           6770      9.79287e+7 
           6790      9.68215e+7 
           6810      9.58718e+7 
           6830      9.48589e+7 
           6850      9.38963e+7 
           6870      9.29274e+7 
           6890      9.19681e+7 
           6910      9.10104e+7 
           6930      9.00387e+7 
           6950      8.91547e+7 
           6970      8.82483e+7 
           6990      8.73431e+7 
           7010      8.64544e+7 
           7030      8.55744e+7 
           7050      8.46651e+7 
           7070      8.26266e+7 
           7090      8.30155e+7 
           7110      8.21691e+7 
           7130       8.1353e+7 
           7150      8.05375e+7 
           7170      7.97444e+7 
           7190      7.89515e+7 
           7210      7.81735e+7 
           7230       7.7057e+7 
           7250      7.66181e+7 
           7270      7.58835e+7 
           7290      7.46383e+7 
           7310      7.43996e+7 
           7330      7.36716e+7 
           7350      7.29574e+7 
           7370      7.22499e+7 
           7390      7.15489e+7 
           7410      7.08545e+7 
           7430      7.01528e+7 
           7450      6.94984e+7 
           7470      6.88094e+7 
           7490      6.81604e+7 
           7510      6.75106e+7 
           7530        6.688e+7 
           7550       6.6242e+7 
           7570      6.56196e+7 
           7590       6.4995e+7 
           7610      6.43865e+7 
           7630      6.37802e+7 
           7650      6.31806e+7 
           7670       6.2589e+7 
           7690      6.20039e+7 
           7710      6.14266e+7 
           7730      6.08526e+7 
           7750      6.02899e+7 
           7770      5.94801e+7 
           7790      5.91806e+7 
           7810      5.86216e+7 
           7830      5.80982e+7 
           7850      5.75311e+7 
           7870      5.70074e+7 
           7890      5.64325e+7 
           7910      5.60306e+7 
           7930      5.55255e+7 
           7950      5.49669e+7 
           7970      5.45135e+7 
           7990      5.39488e+7 
           8010      5.35459e+7 
           8030      5.30651e+7 
           8050       5.2586e+7 
           8070      5.21169e+7 
           8090      5.16298e+7 
           8110      5.11745e+7 
           8130      5.07292e+7 
           8150      5.02582e+7 
           8170      4.98442e+7 
           8190      4.93663e+7 
           8210      4.88416e+7 
           8230      4.84499e+7 
           8250      4.80963e+7 
           8270      4.75808e+7 
           8290      4.72671e+7 
           8310      4.68838e+7 
           8330      4.64711e+7 
           8350      4.59661e+7 
           8370      4.56489e+7 
           8390      4.53121e+7 
           8410      4.49185e+7 
           8430      4.45121e+7 
           8450      4.38906e+7 
           8470      4.37314e+7 
           8490      4.32919e+7 
           8510      4.28967e+7 
           8530      4.25457e+7 
           8550       4.1881e+7 
           8570      4.20186e+7 
           8590      4.08256e+7 
