# Kurucz ODFNEW /NOVER (2003)
# teff = 26000 K (value for the effective temperature for the model. Temperatures are given in K)
# logg = 3 log(cm/s2) (value for Log(G) for the model.)
# meta = 0.5  (value for the Metallicity for the model.)
# lh = 1.25  (l/Hp where l is the  mixing length of the convective element and Hp is the pressure scale height)
# vtur = 2 km/s (Microturbulence velocity)
# alpha = 0  (Alpha)
#
# column 1: WAVELENGTH (ANGSTROM), Wavelength in Angstrom
# column 2: FLUX (ERG/CM2/S/A), Flux in erg/cm2/s/A
          147.2     1.53922e-12 
            151     5.93852e-12 
          155.2     2.45162e-11 
          158.8     7.80411e-11 
            162     2.09653e-10 
            166     6.84856e-10 
          170.3      2.29529e-9 
          173.4      5.33152e-9 
          176.8      1.29368e-8 
          180.2       3.0394e-8 
          181.7      4.38452e-8 
          186.1      1.24593e-7 
            191      3.78062e-7 
          193.9      7.10408e-7 
          198.4      1.82553e-6 
          201.8      3.62462e-6 
            205      6.77378e-6 
          210.5      1.90489e-5 
          216.2      5.25806e-5 
          219.8       9.7512e-5 
            223     0.000165937 
          226.8     0.000322392 
            230       0.0330318 
            234       0.0747941 
            240        0.157664 
          246.5        0.354401 
          252.4        0.720334 
          256.8         1.15939 
            260         2.12941 
            264         3.58076 
          268.5         5.95934 
          273.5         9.74632 
          278.5         15.1533 
            284         37.0797 
            290         62.9913 
            296         101.359 
            301         148.474 
            308         400.065 
            318         965.256 
            328          1780.1 
            338         3648.12 
            348         6737.35 
            357         37315.6 
            366          105415 
            375          142553 
            385          248086 
            395          833115 
            405      1.14207e+6 
            414      1.98812e+6 
            422       2.6365e+6 
            430      3.58942e+6 
            441       4.9338e+6 
            451      5.63887e+6 
            460      6.45639e+6 
            470      9.09761e+6 
            480      1.18962e+7 
            490      1.44679e+7 
            500      1.81312e+7 
            506      3.63404e+7 
            512      4.92957e+8 
            520      5.03681e+8 
            530      4.60511e+8 
            540      4.49156e+8 
            550      6.35595e+8 
            560      9.98825e+8 
            570      1.17471e+9 
            580       1.0257e+9 
            590      1.18062e+9 
            600      7.74817e+8 
            610      1.24561e+9 
            620      1.66696e+9 
            630      1.62034e+9 
            640      1.36224e+9 
            650      7.91399e+8 
            658      9.07793e+8 
            665      1.43425e+9 
            675       1.8121e+9 
            685      1.13029e+9 
            695      2.11184e+9 
            705      1.36525e+9 
            716      2.48536e+9 
            726      2.31094e+9 
            735      2.44919e+9 
            745      2.22674e+9 
            755      2.32637e+9 
            765        2.459e+9 
            775      2.81174e+9 
            785      3.01708e+9 
            795      3.05908e+9 
            805      2.81769e+9 
            815      2.72792e+9 
            825      3.18963e+9 
            835      1.98446e+9 
            845      2.97247e+9 
            855      2.90685e+9 
            865      3.08921e+9 
            875      3.20864e+9 
            885       3.4008e+9 
            895      3.47441e+9 
            905      3.29667e+9 
            915      6.38963e+9 
            925     1.88443e+10 
            935     2.67986e+10 
            945     2.74072e+10 
            955     2.66653e+10 
            965     2.48917e+10 
            975      5.63098e+9 
            985     1.43334e+10 
            995      1.9032e+10 
           1005     2.35073e+10 
           1015     2.54182e+10 
           1025     2.39357e+10 
           1035     2.29563e+10 
           1045     2.97278e+10 
           1055     2.74918e+10 
           1065     2.27242e+10 
           1075     2.48637e+10 
           1085     2.33819e+10 
           1095     2.51524e+10 
           1105     2.39803e+10 
           1115     2.31603e+10 
           1125     1.62854e+10 
           1135     2.29736e+10 
           1145     2.24622e+10 
           1155     2.17849e+10 
           1165     2.08199e+10 
           1175      9.96026e+9 
           1185      1.8724e+10 
           1195     1.91867e+10 
           1205      1.6649e+10 
           1215     1.71406e+10 
           1225     1.86777e+10 
           1235     2.02307e+10 
           1245     1.87219e+10 
           1255     1.92595e+10 
           1265      1.9974e+10 
           1275     2.08459e+10 
           1285     2.09188e+10 
           1295     1.78498e+10 
           1305     1.86813e+10 
           1315     2.09015e+10 
           1325     1.99533e+10 
           1335     1.92051e+10 
           1345     1.95018e+10 
           1355     1.91231e+10 
           1365     1.84047e+10 
           1375     1.75572e+10 
           1385     1.62436e+10 
           1395      9.07101e+9 
           1405     1.09752e+10 
           1415     1.56553e+10 
           1425     1.46933e+10 
           1435     1.57944e+10 
           1442     1.58412e+10 
           1447     1.57136e+10 
           1455     1.49384e+10 
           1465     1.41162e+10 
           1475     1.47345e+10 
           1485     1.46622e+10 
           1495     1.42643e+10 
           1505     1.34853e+10 
           1512      1.2644e+10 
           1517     1.30657e+10 
           1525     1.27135e+10 
           1535     1.06338e+10 
           1545       9.0149e+9 
           1555      9.02583e+9 
           1565     1.06903e+10 
           1575     1.16456e+10 
           1585     1.18239e+10 
           1595      1.1641e+10 
           1605     1.12708e+10 
           1615     1.07919e+10 
           1625     1.09875e+10 
           1635      1.1529e+10 
           1645     1.17818e+10 
           1655     1.14776e+10 
           1665     1.15271e+10 
           1672     1.05053e+10 
           1677     1.26599e+10 
           1685     1.18571e+10 
           1695     1.12407e+10 
           1705     1.12659e+10 
           1715     1.04361e+10 
           1725     1.02938e+10 
           1735     1.06938e+10 
           1745     1.05465e+10 
           1755     1.05354e+10 
           1765     1.06046e+10 
           1775      9.98601e+9 
           1785     1.02351e+10 
           1795     1.01702e+10 
           1805     1.02701e+10 
           1815      9.55162e+9 
           1825      9.73917e+9 
           1835      9.65916e+9 
           1845      8.89281e+9 
           1855      9.26259e+9 
           1865      9.31852e+9 
           1875      9.31915e+9 
           1885      8.53912e+9 
           1895      8.11604e+9 
           1905      8.65901e+9 
           1915      8.31682e+9 
           1925      7.78697e+9 
           1935      8.40034e+9 
           1945      8.60248e+9 
           1955      7.62522e+9 
           1967      8.27121e+9 
           1976      8.62683e+9 
           1984      8.13591e+9 
           1995      7.96863e+9 
           2005       8.2701e+9 
           2015      8.25623e+9 
           2025      8.41099e+9 
           2035       7.7637e+9 
           2045      7.81137e+9 
           2055      7.06852e+9 
           2065      6.99952e+9 
           2074      7.60137e+9 
           2078      7.14245e+9 
           2085      7.59902e+9 
           2095      7.16735e+9 
           2105      7.38967e+9 
           2115      7.47863e+9 
           2125      7.48858e+9 
           2135      7.40338e+9 
           2145      7.07471e+9 
           2155      7.28169e+9 
           2165      7.16338e+9 
           2175      7.11327e+9 
           2185      6.98976e+9 
           2195        7.055e+9 
           2205      7.00123e+9 
           2215      6.89884e+9 
           2225      6.74748e+9 
           2235      6.61656e+9 
           2245      6.62293e+9 
           2255      6.50779e+9 
           2265      6.48938e+9 
           2275      6.44111e+9 
           2285      6.34965e+9 
           2295      5.29879e+9 
           2305      6.10784e+9 
           2315      6.00162e+9 
           2325      5.97624e+9 
           2335      5.85979e+9 
           2345       5.8872e+9 
           2355      5.78589e+9 
           2365      5.71403e+9 
           2375      5.59114e+9 
           2385      5.48945e+9 
           2395      5.43858e+9 
           2405      5.41012e+9 
           2415      5.34474e+9 
           2425      5.32804e+9 
           2435      5.21549e+9 
           2445      5.19151e+9 
           2455      5.15105e+9 
           2465      5.05664e+9 
           2475      4.95239e+9 
           2485      4.63534e+9 
           2495      2.92413e+9 
           2505       4.2681e+9 
           2513      4.50864e+9 
           2518      4.61933e+9 
           2525      4.69716e+9 
           2535      4.68914e+9 
           2545      4.55511e+9 
           2555      4.55623e+9 
           2565      4.51556e+9 
           2575       4.4772e+9 
           2585      4.42357e+9 
           2595      4.37282e+9 
           2605       4.3488e+9 
           2615       4.2517e+9 
           2625      4.23386e+9 
           2635      4.20949e+9 
           2645      4.13706e+9 
           2655      4.10377e+9 
           2665      3.97564e+9 
           2675      3.93054e+9 
           2685      3.95697e+9 
           2695      3.84177e+9 
           2705      3.78293e+9 
           2715      3.76381e+9 
           2725      3.76617e+9 
           2735      3.70695e+9 
           2745      3.68549e+9 
           2755      3.65402e+9 
           2765       3.6062e+9 
           2775      3.60638e+9 
           2785      3.53579e+9 
           2795      3.42113e+9 
           2805      3.45591e+9 
           2815      3.44776e+9 
           2825      3.41858e+9 
           2835      3.31885e+9 
           2845      3.33112e+9 
           2855      3.27413e+9 
           2865      3.24622e+9 
           2875      3.21333e+9 
           2885      3.18543e+9 
           2895      3.14949e+9 
           2910      3.07292e+9 
           2930       3.0456e+9 
           2950      2.96258e+9 
           2970      2.90573e+9 
           2990      2.82927e+9 
           3010      2.73122e+9 
           3030      2.69311e+9 
           3050      2.66693e+9 
           3070      2.62726e+9 
           3090      2.53063e+9 
           3110      2.52666e+9 
           3130      2.46051e+9 
           3150      2.42557e+9 
           3170      2.36601e+9 
           3190      2.32884e+9 
           3210       2.2779e+9 
           3230      2.22201e+9 
           3250      2.19971e+9 
           3270      2.13723e+9 
           3290      2.10356e+9 
           3310      2.06078e+9 
           3330      2.01219e+9 
           3350      1.97138e+9 
           3370      1.93402e+9 
           3390      1.91563e+9 
           3410      1.87913e+9 
           3430      1.85023e+9 
           3450      1.80719e+9 
           3470      1.77607e+9 
           3490      1.74111e+9 
           3510      1.70869e+9 
           3530      1.68609e+9 
           3550       1.6519e+9 
           3570      1.62011e+9 
           3590      1.58256e+9 
           3610      1.55163e+9 
           3630       1.5292e+9 
           3640       1.5162e+9 
           3650      1.46592e+9 
           3670      1.44495e+9 
           3690      1.41383e+9 
           3710      1.37684e+9 
           3730      1.36209e+9 
           3750      1.38634e+9 
           3770      1.35783e+9 
           3790      1.35332e+9 
           3810      1.36404e+9 
           3830      1.28686e+9 
           3850      1.32723e+9 
           3870      1.28069e+9 
           3890      1.23069e+9 
           3910      1.26458e+9 
           3930      1.22449e+9 
           3950      1.20759e+9 
           3970      1.13851e+9 
           3990      1.17879e+9 
           4010      1.15919e+9 
           4030      1.13307e+9 
           4050      1.12085e+9 
           4070      1.08046e+9 
           4090      1.04978e+9 
           4110       1.0087e+9 
           4130      1.03489e+9 
           4150      1.02442e+9 
           4170      1.01544e+9 
           4190      9.99606e+8 
           4210      9.86837e+8 
           4230        9.706e+8 
           4250      9.47095e+8 
           4270      9.25764e+8 
           4290      9.12772e+8 
           4310        8.913e+8 
           4330      8.71934e+8 
           4350      8.28675e+8 
           4370      8.53046e+8 
           4390      8.46523e+8 
           4410      8.30203e+8 
           4430      8.26064e+8 
           4450      8.09999e+8 
           4470      7.94641e+8 
           4490       7.8868e+8 
           4510      7.73273e+8 
           4530      7.64863e+8 
           4550      7.52167e+8 
           4570      7.42964e+8 
           4590      7.29744e+8 
           4610      7.17523e+8 
           4630      7.05451e+8 
           4650      6.71971e+8 
           4670      6.84228e+8 
           4690      6.77103e+8 
           4710      6.61991e+8 
           4730      6.62517e+8 
           4750      6.51473e+8 
           4770      6.47958e+8 
           4790      6.38191e+8 
           4810      6.27196e+8 
           4830      6.16829e+8 
           4850      6.07556e+8 
           4870      5.70696e+8 
           4890      5.92348e+8 
           4910      5.83406e+8 
           4930       5.7132e+8 
           4950      5.64529e+8 
           4970       5.6155e+8 
           4990      5.53472e+8 
           5010      5.35749e+8 
           5030      5.36307e+8 
           5050      5.28344e+8 
           5070      5.23349e+8 
           5090      5.15682e+8 
           5110      5.08407e+8 
           5130      4.99712e+8 
           5150      4.93211e+8 
           5170      4.87316e+8 
           5190      4.81456e+8 
           5210      4.75351e+8 
           5230       4.6883e+8 
           5250      4.61342e+8 
           5270      4.54768e+8 
           5290      4.50313e+8 
           5310      4.44041e+8 
           5330      4.38593e+8 
           5350      4.32911e+8 
           5370      4.27184e+8 
           5390      4.20856e+8 
           5410      4.14828e+8 
           5430      4.10858e+8 
           5450       4.0535e+8 
           5470      3.99898e+8 
           5490      3.94752e+8 
           5510      3.89881e+8 
           5530       3.8459e+8 
           5550      3.80295e+8 
           5570       3.7497e+8 
           5590       3.6982e+8 
           5610      3.65979e+8 
           5630      3.61375e+8 
           5650      3.56472e+8 
           5670      3.50575e+8 
           5690      3.42367e+8 
           5710      3.38043e+8 
           5730      3.34184e+8 
           5750      3.28947e+8 
           5770      3.26591e+8 
           5790      3.22563e+8 
           5810      3.18326e+8 
           5830      3.14339e+8 
           5850       3.1194e+8 
           5870      3.03739e+8 
           5890      3.03711e+8 
           5910      3.01475e+8 
           5930      2.97999e+8 
           5950      2.94733e+8 
           5970      2.92719e+8 
           5990      2.88038e+8 
           6010      2.85258e+8 
           6030      2.81245e+8 
           6050      2.78195e+8 
           6070      2.75373e+8 
           6090      2.72328e+8 
           6110      2.68883e+8 
           6130      2.65858e+8 
           6150        2.619e+8 
           6170      2.58978e+8 
           6190      2.56648e+8 
           6210      2.53904e+8 
           6230      2.50772e+8 
           6250      2.47713e+8 
           6270      2.45043e+8 
           6290      2.42402e+8 
           6310      2.39117e+8 
           6330      2.36922e+8 
           6350      2.33909e+8 
           6370      2.31598e+8 
           6390      2.28895e+8 
           6410      2.26121e+8 
           6430      2.23842e+8 
           6450      2.21116e+8 
           6470      2.18005e+8 
           6490      2.15644e+8 
           6510      2.13494e+8 
           6530      2.10996e+8 
           6550      2.08348e+8 
           6570       1.9296e+8 
           6590      2.03302e+8 
           6610      2.01979e+8 
           6630      2.00068e+8 
           6650      1.97589e+8 
           6670      1.94272e+8 
           6690      1.92177e+8 
           6710      1.91218e+8 
           6730      1.88477e+8 
           6750      1.87081e+8 
           6770      1.85336e+8 
           6790      1.82383e+8 
           6810      1.81297e+8 
           6830      1.79308e+8 
           6850        1.775e+8 
           6870       1.7551e+8 
           6890      1.73223e+8 
           6910      1.71298e+8 
           6930      1.70201e+8 
           6950      1.68389e+8 
           6970       1.6664e+8 
           6990      1.64863e+8 
           7010      1.63027e+8 
           7030      1.61071e+8 
           7050      1.59598e+8 
           7070      1.56164e+8 
           7090      1.56468e+8 
           7110      1.53912e+8 
           7130      1.52502e+8 
           7150      1.51694e+8 
           7170      1.49955e+8 
           7190      1.48568e+8 
           7210      1.47093e+8 
           7230      1.43822e+8 
           7250      1.43668e+8 
           7270      1.42636e+8 
           7290      1.40394e+8 
           7310      1.39705e+8 
           7330      1.38298e+8 
           7350      1.36961e+8 
           7370      1.35601e+8 
           7390      1.34268e+8 
           7410      1.32906e+8 
           7430      1.31605e+8 
           7450      1.30234e+8 
           7470      1.28396e+8 
           7490      1.27389e+8 
           7510      1.26405e+8 
           7530      1.25089e+8 
           7550      1.23991e+8 
           7570      1.22745e+8 
           7590      1.21289e+8 
           7610      1.20105e+8 
           7630      1.19121e+8 
           7650      1.17997e+8 
           7670       1.1694e+8 
           7690      1.15638e+8 
           7710      1.14545e+8 
           7730      1.13347e+8 
           7750      1.12456e+8 
           7770      1.11397e+8 
           7790      1.10379e+8 
           7810      1.09314e+8 
           7830      1.08289e+8 
           7850      1.07188e+8 
           7870      1.06011e+8 
           7890      1.04966e+8 
           7910      1.04153e+8 
           7930      1.03113e+8 
           7950      1.02303e+8 
           7970      1.01286e+8 
           7990       1.0039e+8 
           8010      9.93845e+7 
           8030      9.84402e+7 
           8050      9.76378e+7 
           8070      9.67495e+7 
           8090      9.57997e+7 
           8110      9.43311e+7 
           8130      9.41298e+7 
           8150      9.31749e+7 
           8170      9.24145e+7 
           8190      9.11381e+7 
           8210      8.99457e+7 
           8230      8.88527e+7 
           8250      8.85276e+7 
           8270      8.70534e+7 
           8290      8.68531e+7 
           8310        8.619e+7 
           8330      8.52989e+7 
           8350       8.4291e+7 
           8370      8.36682e+7 
           8390      8.31413e+7 
           8410      8.22883e+7 
           8430      8.16703e+7 
           8450      8.07302e+7 
           8470      7.99293e+7 
           8490      7.97936e+7 
           8510      7.79468e+7 
           8530      7.86224e+7 
           8550      7.62658e+7 
           8570      7.77004e+7 
           8590      7.55112e+7 
