# Kurucz ODFNEW /NOVER (2003)
# teff = 18000 K (value for the effective temperature for the model. Temperatures are given in K)
# logg = 4 log(cm/s2) (value for Log(G) for the model.)
# meta = -0.5  (value for the Metallicity for the model.)
# lh = 1.25  (l/Hp where l is the  mixing length of the convective element and Hp is the pressure scale height)
# vtur = 2 km/s (Microturbulence velocity)
# alpha = 0  (Alpha)
#
# column 1: WAVELENGTH (ANGSTROM), Wavelength in Angstrom
# column 2: FLUX (ERG/CM2/S/A), Flux in erg/cm2/s/A
          147.2     6.11434e-23 
            151     6.43469e-22 
          155.2      5.3199e-21 
          158.8     2.92017e-20 
            162     1.24541e-19 
            166      7.0658e-19 
          170.3     4.17529e-18 
          173.4     1.42422e-17 
          176.8     5.21111e-17 
          180.2     1.81786e-16 
          181.7     3.10821e-16 
          186.1     1.42911e-15 
            191     7.20382e-15 
          193.9     1.80242e-14 
          198.4     7.10638e-14 
          201.8     1.92975e-13 
            205     4.80331e-13 
          210.5     2.15239e-12 
          216.2     9.41452e-12 
          219.8     2.30013e-11 
            223     4.96038e-11 
          226.8     1.20273e-10 
            230     3.68041e-10 
            234     9.71683e-10 
            240      3.43059e-9 
          246.5      1.24367e-8 
          252.4       3.7844e-8 
          256.8      8.29595e-8 
            260      1.47047e-7 
            264      2.91023e-7 
          268.5      6.10984e-7 
          273.5      1.35251e-6 
          278.5      2.91398e-6 
            284      6.56343e-6 
            290      1.53384e-5 
            296       3.4553e-5 
            301       6.6376e-5 
            308     0.000158394 
            318     0.000520851 
            328      0.00157522 
            338      0.00446064 
            348       0.0118537 
            357       0.0272223 
            366       0.0599422 
            375        0.126426 
            385        0.277797 
            395        0.584513 
            405         1.18362 
            414         2.16574 
            422         3.61638 
            430         5.90787 
            441         11.3005 
            451         19.7513 
            460         31.9009 
            470         53.1173 
            480         86.3829 
            490         137.557 
            500          214.51 
            506         1961.95 
            512         6157.44 
            520          8149.7 
            530         12109.8 
            540         14782.4 
            550         22582.6 
            560         29475.2 
            570         39248.7 
            580         43292.5 
            590         61625.2 
            600         81342.2 
            610          104322 
            620          128151 
            630          159282 
            640          189294 
            650          228151 
            658          276428 
            665          309979 
            675          364298 
            685          433585 
            695          525007 
            705          613447 
            716          728039 
            726          840479 
            735          958377 
            745      1.11935e+6 
            755      1.29047e+6 
            765      1.47338e+6 
            775       1.6885e+6 
            785      1.92099e+6 
            795       2.1555e+6 
            805      2.42586e+6 
            815      2.69957e+6 
            825      3.04555e+6 
            835      3.32901e+6 
            845      3.72274e+6 
            855      4.11662e+6 
            865      4.57674e+6 
            875       5.0721e+6 
            885      5.62527e+6 
            895      6.16246e+6 
            905      6.57025e+6 
            915      1.16557e+7 
            925      4.69049e+7 
            935      1.47124e+8 
            945      7.73265e+8 
            955      2.04378e+9 
            965      2.90473e+9 
            975      5.64406e+8 
            985      4.41991e+9 
            995      4.47117e+9 
           1005      5.09094e+9 
           1015      4.06815e+9 
           1025      5.04338e+8 
           1035      2.57979e+9 
           1045      5.81261e+9 
           1055      5.76793e+9 
           1065       4.8902e+9 
           1075      5.70428e+9 
           1085      5.12792e+9 
           1095       5.6945e+9 
           1105      5.11027e+9 
           1115      4.98023e+9 
           1125      4.71141e+9 
           1135      5.47069e+9 
           1145      4.92095e+9 
           1155      5.12472e+9 
           1165      5.37021e+9 
           1175      4.41147e+9 
           1185      5.29885e+9 
           1195      3.70391e+9 
           1205       2.2257e+9 
           1215      4.33683e+8 
           1225      2.47981e+9 
           1235      4.59419e+9 
           1245      5.02816e+9 
           1255      4.91774e+9 
           1265      4.45891e+9 
           1275      4.83581e+9 
           1285      4.91963e+9 
           1295      3.75578e+9 
           1305      3.46551e+9 
           1315      4.66591e+9 
           1325      4.46314e+9 
           1335      4.01815e+9 
           1345      4.47529e+9 
           1355      4.34136e+9 
           1365      4.02362e+9 
           1375      4.04561e+9 
           1385      4.10072e+9 
           1395       3.7957e+9 
           1405      3.92813e+9 
           1415      3.81015e+9 
           1425      3.83441e+9 
           1435      3.81866e+9 
           1442      3.91067e+9 
           1447      3.86066e+9 
           1455      3.77882e+9 
           1465      3.61296e+9 
           1475      3.56015e+9 
           1485       3.4782e+9 
           1495      3.46334e+9 
           1505      3.30953e+9 
           1512      3.07478e+9 
           1517      3.18846e+9 
           1525      3.19122e+9 
           1535      2.95951e+9 
           1545      3.05231e+9 
           1555      2.88293e+9 
           1565      2.88112e+9 
           1575      2.98301e+9 
           1585      2.98342e+9 
           1595      3.01618e+9 
           1605      2.90734e+9 
           1615      2.88965e+9 
           1625      2.78314e+9 
           1635      2.84616e+9 
           1645      2.81765e+9 
           1655      2.65359e+9 
           1665      2.82144e+9 
           1672      2.69706e+9 
           1677      2.74035e+9 
           1685      2.76547e+9 
           1695      2.65518e+9 
           1705      2.54222e+9 
           1715      2.43747e+9 
           1725      2.40613e+9 
           1735      2.48047e+9 
           1745      2.39818e+9 
           1755      2.46291e+9 
           1765      2.28126e+9 
           1775      2.33562e+9 
           1785      2.32891e+9 
           1795      2.37506e+9 
           1805      2.35229e+9 
           1815      2.21928e+9 
           1825      2.25588e+9 
           1835      2.18034e+9 
           1845      2.04909e+9 
           1855       1.9883e+9 
           1865      2.01112e+9 
           1875      2.11349e+9 
           1885      1.95562e+9 
           1895      1.86192e+9 
           1905      1.96928e+9 
           1915      1.87706e+9 
           1925      1.83534e+9 
           1935      1.87528e+9 
           1945      1.90295e+9 
           1955      1.78162e+9 
           1967      1.87581e+9 
           1976      1.91916e+9 
           1984      1.81481e+9 
           1995      1.76002e+9 
           2005      1.79067e+9 
           2015      1.75327e+9 
           2025      1.81051e+9 
           2035       1.7147e+9 
           2045      1.71725e+9 
           2055      1.65241e+9 
           2065      1.67602e+9 
           2074      1.71476e+9 
           2078      1.64107e+9 
           2085      1.66959e+9 
           2095      1.59772e+9 
           2105      1.61897e+9 
           2115      1.60689e+9 
           2125       1.6271e+9 
           2135      1.57875e+9 
           2145      1.54523e+9 
           2155      1.57002e+9 
           2165      1.53353e+9 
           2175      1.51556e+9 
           2185      1.48901e+9 
           2195      1.50488e+9 
           2205      1.46786e+9 
           2215      1.43567e+9 
           2225      1.39266e+9 
           2235      1.42525e+9 
           2245       1.3992e+9 
           2255      1.35903e+9 
           2265      1.37078e+9 
           2275      1.36582e+9 
           2285      1.36695e+9 
           2295      1.32345e+9 
           2305      1.30944e+9 
           2315       1.2817e+9 
           2325      1.27195e+9 
           2335      1.23047e+9 
           2345      1.19766e+9 
           2355      1.21611e+9 
           2365      1.17884e+9 
           2375      1.18503e+9 
           2385      1.14524e+9 
           2395      1.17117e+9 
           2405      1.13644e+9 
           2415      1.13441e+9 
           2425      1.14154e+9 
           2435      1.10143e+9 
           2445      1.11386e+9 
           2455      1.10674e+9 
           2465      1.08358e+9 
           2475      1.06728e+9 
           2485      1.08189e+9 
           2495      1.05078e+9 
           2505      1.06727e+9 
           2513      1.03048e+9 
           2518       1.0476e+9 
           2525      1.01385e+9 
           2535      1.00147e+9 
           2545      9.86752e+8 
           2555      1.00599e+9 
           2565      9.89919e+8 
           2575      1.00111e+9 
           2585       9.9738e+8 
           2595      9.88366e+8 
           2605      9.72354e+8 
           2615      9.64105e+8 
           2625      9.55352e+8 
           2635      9.49091e+8 
           2645      9.64652e+8 
           2655      9.54406e+8 
           2665      9.31875e+8 
           2675      9.35029e+8 
           2685      9.26823e+8 
           2695      9.09635e+8 
           2705      9.06063e+8 
           2715       8.9015e+8 
           2725      8.77389e+8 
           2735      8.83676e+8 
           2745      8.48601e+8 
           2755      8.43643e+8 
           2765      8.44844e+8 
           2775      8.51829e+8 
           2785      8.42322e+8 
           2795      8.11229e+8 
           2805      8.23985e+8 
           2815      8.25748e+8 
           2825      8.11887e+8 
           2835      7.90749e+8 
           2845      7.86968e+8 
           2855      7.86457e+8 
           2865      7.88503e+8 
           2875      7.76555e+8 
           2885      7.72494e+8 
           2895      7.67121e+8 
           2910      7.60034e+8 
           2930      7.41444e+8 
           2950       7.2584e+8 
           2970      7.18489e+8 
           2990      7.03979e+8 
           3010      6.95611e+8 
           3030      6.85597e+8 
           3050      6.72869e+8 
           3070      6.61212e+8 
           3090      6.50313e+8 
           3110      6.38587e+8 
           3130      6.28683e+8 
           3150      6.17992e+8 
           3170      6.07407e+8 
           3190       5.9204e+8 
           3210      5.86952e+8 
           3230      5.77792e+8 
           3250      5.68527e+8 
           3270      5.59973e+8 
           3290      5.50645e+8 
           3310      5.42532e+8 
           3330      5.33623e+8 
           3350      5.24249e+8 
           3370      5.16519e+8 
           3390       5.0841e+8 
           3410      5.00584e+8 
           3430      4.91786e+8 
           3450      4.83283e+8 
           3470      4.76352e+8 
           3490      4.69021e+8 
           3510      4.62744e+8 
           3530      4.55912e+8 
           3550      4.49026e+8 
           3570      4.43211e+8 
           3590      4.34896e+8 
           3610      4.28905e+8 
           3630      4.22105e+8 
           3640      4.20443e+8 
           3650      4.16106e+8 
           3670      4.11276e+8 
           3690      4.00936e+8 
           3710      3.91069e+8 
           3730      3.80848e+8 
           3750      4.23705e+8 
           3770      4.33137e+8 
           3790      4.70777e+8 
           3810      5.01403e+8 
           3830      4.27223e+8 
           3850        5.223e+8 
           3870      5.36586e+8 
           3890       3.9998e+8 
           3910      5.30813e+8 
           3930      5.23571e+8 
           3950      5.15312e+8 
           3970      3.74318e+8 
           3990      4.93271e+8 
           4010      4.96938e+8 
           4030      4.68543e+8 
           4050      4.86872e+8 
           4070      4.74843e+8 
           4090       4.2607e+8 
           4110       3.6125e+8 
           4130      4.44118e+8 
           4150      4.44069e+8 
           4170       4.4125e+8 
           4190      4.36425e+8 
           4210      4.30099e+8 
           4230      4.23031e+8 
           4250       4.1618e+8 
           4270      4.06382e+8 
           4290      4.02315e+8 
           4310      3.93012e+8 
           4330       3.4422e+8 
           4350      3.09367e+8 
           4370      3.73595e+8 
           4390      3.62555e+8 
           4410      3.67391e+8 
           4430       3.6051e+8 
           4450      3.57201e+8 
           4470      3.36854e+8 
           4490      3.43876e+8 
           4510      3.41703e+8 
           4530      3.36086e+8 
           4550      3.31173e+8 
           4570      3.26675e+8 
           4590      3.21939e+8 
           4610      3.17184e+8 
           4630        3.122e+8 
           4650      3.07673e+8 
           4670      3.03679e+8 
           4690      2.99587e+8 
           4710       2.9085e+8 
           4730      2.89776e+8 
           4750      2.85388e+8 
           4770      2.83066e+8 
           4790      2.78786e+8 
           4810      2.73541e+8 
           4830      2.67841e+8 
           4850      2.40412e+8 
           4870      2.10659e+8 
           4890      2.55668e+8 
           4910      2.55027e+8 
           4930      2.46592e+8 
           4950      2.49416e+8 
           4970      2.46223e+8 
           4990       2.4271e+8 
           5010      2.35613e+8 
           5030      2.35797e+8 
           5050      2.30078e+8 
           5070      2.29908e+8 
           5090      2.26781e+8 
           5110      2.23538e+8 
           5130      2.20567e+8 
           5150       2.1748e+8 
           5170      2.14983e+8 
           5190      2.12224e+8 
           5210      2.08433e+8 
           5230      2.06663e+8 
           5250      2.04066e+8 
           5270      2.01313e+8 
           5290      1.98959e+8 
           5310      1.96314e+8 
           5330      1.93743e+8 
           5350      1.91007e+8 
           5370      1.88973e+8 
           5390      1.86588e+8 
           5410      1.84155e+8 
           5430      1.81498e+8 
           5450       1.7942e+8 
           5470      1.77141e+8 
           5490      1.75152e+8 
           5510      1.72878e+8 
           5530      1.70804e+8 
           5550      1.68744e+8 
           5570      1.66624e+8 
           5590      1.64614e+8 
           5610      1.62484e+8 
           5630      1.60702e+8 
           5650      1.58115e+8 
           5670       1.5638e+8 
           5690      1.54724e+8 
           5710       1.5303e+8 
           5730      1.51206e+8 
           5750      1.49381e+8 
           5770      1.47635e+8 
           5790      1.45852e+8 
           5810      1.44113e+8 
           5830      1.42417e+8 
           5850      1.40751e+8 
           5870      1.35464e+8 
           5890      1.37087e+8 
           5910      1.35848e+8 
           5930       1.3429e+8 
           5950      1.32506e+8 
           5970      1.31186e+8 
           5990      1.29556e+8 
           6010      1.28215e+8 
           6030      1.26723e+8 
           6050       1.2529e+8 
           6070      1.23852e+8 
           6090       1.2242e+8 
           6110      1.21075e+8 
           6130      1.19715e+8 
           6150      1.18191e+8 
           6170       1.1702e+8 
           6190      1.15724e+8 
           6210      1.14433e+8 
           6230      1.13127e+8 
           6250      1.11767e+8 
           6270      1.10644e+8 
           6290      1.09417e+8 
           6310      1.08157e+8 
           6330      1.07042e+8 
           6350      1.05397e+8 
           6370      1.04412e+8 
           6390      1.03547e+8 
           6410      1.02388e+8 
           6430       1.0136e+8 
           6450      1.00226e+8 
           6470      9.91391e+7 
           6490      9.80728e+7 
           6510      9.67689e+7 
           6530      9.52406e+7 
           6550      8.95844e+7 
           6570      7.82402e+7 
           6590       9.1198e+7 
           6610      9.16472e+7 
           6630      9.09837e+7 
           6650      9.01305e+7 
           6670      8.84731e+7 
           6690      8.75745e+7 
           6710      8.73377e+7 
           6730      8.64368e+7 
           6750       8.5545e+7 
           6770      8.46704e+7 
           6790      8.37229e+7 
           6810      8.29151e+7 
           6830      8.20506e+7 
           6850       8.1235e+7 
           6870      8.04115e+7 
           6890      7.95961e+7 
           6910      7.87849e+7 
           6930      7.79457e+7 
           6950      7.72037e+7 
           6970      7.64356e+7 
           6990      7.56588e+7 
           7010      7.48965e+7 
           7030      7.41508e+7 
           7050      7.33623e+7 
           7070      7.17781e+7 
           7090      7.19755e+7 
           7110      7.12492e+7 
           7130      7.05521e+7 
           7150      6.98559e+7 
           7170      6.91736e+7 
           7190      6.85094e+7 
           7210      6.78407e+7 
           7230      6.68721e+7 
           7250      6.65122e+7 
           7270      6.58852e+7 
           7290      6.48947e+7 
           7310      6.46148e+7 
           7330      6.39976e+7 
           7350      6.33876e+7 
           7370      6.27812e+7 
           7390      6.21825e+7 
           7410      6.15913e+7 
           7430      6.09838e+7 
           7450      6.04247e+7 
           7470      5.98355e+7 
           7490      5.92814e+7 
           7510      5.87196e+7 
           7530      5.81842e+7 
           7550      5.76417e+7 
           7570      5.71068e+7 
           7590      5.65701e+7 
           7610      5.60507e+7 
           7630      5.55308e+7 
           7650      5.50148e+7 
           7670      5.45086e+7 
           7690      5.40063e+7 
           7710       5.3511e+7 
           7730      5.30189e+7 
           7750      5.25354e+7 
           7770      5.18017e+7 
           7790      5.15839e+7 
           7810      5.11051e+7 
           7830      5.06563e+7 
           7850      5.01637e+7 
           7870      4.97096e+7 
           7890      4.92098e+7 
           7910      4.88734e+7 
           7930      4.84438e+7 
           7950       4.7959e+7 
           7970      4.75632e+7 
           7990      4.70758e+7 
           8010      4.67394e+7 
           8030      4.63211e+7 
           8050      4.59028e+7 
           8070      4.55078e+7 
           8090      4.50788e+7 
           8110      4.46854e+7 
           8130      4.43108e+7 
           8150      4.39002e+7 
           8170      4.35563e+7 
           8190      4.31444e+7 
           8210      4.26785e+7 
           8230      4.23506e+7 
           8250      4.20575e+7 
           8270      4.16054e+7 
           8290      4.13281e+7 
           8310      4.09947e+7 
           8330      4.06466e+7 
           8350      4.02014e+7 
           8370      3.99122e+7 
           8390      3.96113e+7 
           8410      3.92314e+7 
           8430      3.88472e+7 
           8450      3.83195e+7 
           8470      3.79802e+7 
           8490      3.78652e+7 
           8510      3.71111e+7 
           8530      3.73981e+7 
           8550      3.58113e+7 
           8570      3.72734e+7 
           8590      3.54504e+7 
