# Kurucz ODFNEW /NOVER (2003)
# teff = 27000 K (value for the effective temperature for the model. Temperatures are given in K)
# logg = 4 log(cm/s2) (value for Log(G) for the model.)
# meta = -0.5  (value for the Metallicity for the model.)
# lh = 1.25  (l/Hp where l is the  mixing length of the convective element and Hp is the pressure scale height)
# vtur = 2 km/s (Microturbulence velocity)
# alpha = 0  (Alpha)
#
# column 1: WAVELENGTH (ANGSTROM), Wavelength in Angstrom
# column 2: FLUX (ERG/CM2/S/A), Flux in erg/cm2/s/A
          147.2     3.78766e-12 
            151     1.48453e-11 
          155.2     6.26333e-11 
          158.8     2.03637e-10 
            162     5.58132e-10 
            166      1.87066e-9 
          170.3      6.46512e-9 
          173.4      1.52533e-8 
          176.8      3.78161e-8 
          180.2      9.07017e-8 
          181.7       1.3207e-7 
          186.1      3.84635e-7 
            191      1.19511e-6 
          193.9      2.27598e-6 
          198.4      5.95837e-6 
          201.8      1.19828e-5 
            205      2.26396e-5 
          210.5      6.45937e-5 
          216.2     0.000180819 
          219.8     0.000336843 
            223      0.00057559 
          226.8      0.00106746 
            230        0.217777 
            234        0.500538 
            240         1.03856 
          246.5         2.24671 
          252.4         4.40178 
          256.8         6.47417 
            260         10.3389 
            264         15.2419 
          268.5         23.9994 
          273.5         38.4142 
          278.5          59.898 
            284         104.164 
            290         170.017 
            296         272.481 
            301         389.661 
            308         640.723 
            318         1424.41 
            328         2638.23 
            338         5012.99 
            348         8881.31 
            357         21933.2 
            366         37567.2 
            375         54546.4 
            385         86241.7 
            395          138153 
            405          199857 
            414          282795 
            422          363182 
            430          485021 
            441          688969 
            451          923260 
            460      1.17416e+6 
            470      1.57111e+6 
            480      2.03489e+6 
            490      2.63601e+6 
            500      3.35937e+6 
            506      1.78465e+7 
            512      7.82534e+7 
            520      8.40717e+7 
            530       9.3658e+7 
            540      9.48813e+7 
            550      1.25087e+8 
            560      1.43952e+8 
            570      1.63725e+8 
            580      1.57792e+8 
            590      1.93008e+8 
            600      2.06113e+8 
            610      2.32851e+8 
            620      2.56282e+8 
            630      2.71427e+8 
            640      2.67233e+8 
            650      2.64959e+8 
            658      3.09257e+8 
            665      3.41959e+8 
            675       3.5316e+8 
            685       3.5899e+8 
            695      4.32975e+8 
            705      4.33854e+8 
            716      4.84712e+8 
            726      4.98641e+8 
            735      5.14621e+8 
            745      5.65523e+8 
            755      5.91393e+8 
            765      6.24976e+8 
            775      6.59092e+8 
            785      6.99201e+8 
            795      7.20347e+8 
            805      7.43198e+8 
            815      7.57457e+8 
            825       8.1011e+8 
            835       7.5408e+8 
            845      8.38114e+8 
            855      8.57893e+8 
            865      9.01009e+8 
            875       9.4691e+8 
            885      9.99273e+8 
            895      1.03416e+9 
            905      1.04041e+9 
            915      1.39118e+9 
            925       8.7333e+9 
            935     1.89786e+10 
            945     3.42667e+10 
            955     3.96695e+10 
            965     4.69645e+10 
            975     1.37123e+10 
            985     4.19742e+10 
            995      3.9118e+10 
           1005     4.24426e+10 
           1015     4.22796e+10 
           1025     2.43043e+10 
           1035     3.65924e+10 
           1045     4.69832e+10 
           1055     4.40625e+10 
           1065     3.79279e+10 
           1075     4.12092e+10 
           1085     3.73553e+10 
           1095     4.07576e+10 
           1105     3.81535e+10 
           1115     3.76176e+10 
           1125      3.2088e+10 
           1135     3.70786e+10 
           1145      3.4155e+10 
           1155     3.45912e+10 
           1165     3.40638e+10 
           1175     2.34593e+10 
           1185     3.17218e+10 
           1195     3.01563e+10 
           1205     2.51621e+10 
           1215      1.6815e+10 
           1225     2.75626e+10 
           1235     2.98029e+10 
           1245     2.89251e+10 
           1255     2.85855e+10 
           1265     2.86604e+10 
           1275     2.89935e+10 
           1285     2.85189e+10 
           1295     2.40838e+10 
           1305     2.49792e+10 
           1315     2.72587e+10 
           1325     2.58488e+10 
           1335      2.5017e+10 
           1345     2.48984e+10 
           1355     2.47682e+10 
           1365      2.3432e+10 
           1375     2.28812e+10 
           1385      2.2442e+10 
           1395     1.80352e+10 
           1405     1.88574e+10 
           1415     2.04807e+10 
           1425     1.95023e+10 
           1435     1.99906e+10 
           1442     2.02373e+10 
           1447     1.98566e+10 
           1455     1.92847e+10 
           1465     1.83623e+10 
           1475     1.83497e+10 
           1485     1.80897e+10 
           1495     1.76564e+10 
           1505      1.6547e+10 
           1512     1.52974e+10 
           1517     1.56154e+10 
           1525     1.56715e+10 
           1535     1.37311e+10 
           1545     1.34149e+10 
           1555     1.28755e+10 
           1565     1.37102e+10 
           1575     1.42805e+10 
           1585     1.41501e+10 
           1595     1.40361e+10 
           1605     1.36203e+10 
           1615     1.32017e+10 
           1625     1.32034e+10 
           1635     1.35513e+10 
           1645     1.32886e+10 
           1655     1.32905e+10 
           1665     1.32035e+10 
           1672     1.26958e+10 
           1677     1.36274e+10 
           1685     1.31306e+10 
           1695     1.25934e+10 
           1705     1.22255e+10 
           1715     1.17161e+10 
           1725     1.14761e+10 
           1735     1.16938e+10 
           1745     1.14736e+10 
           1755     1.14393e+10 
           1765     1.12001e+10 
           1775     1.07166e+10 
           1785     1.07915e+10 
           1795     1.08288e+10 
           1805     1.08231e+10 
           1815     1.00688e+10 
           1825     1.02158e+10 
           1835      9.98663e+9 
           1845      9.17524e+9 
           1855      9.25351e+9 
           1865       9.3652e+9 
           1875      9.46446e+9 
           1885      8.60549e+9 
           1895      8.06485e+9 
           1905      8.54907e+9 
           1915       8.1846e+9 
           1925      7.79144e+9 
           1935      8.16862e+9 
           1945      8.32424e+9 
           1955      7.56046e+9 
           1967      8.00003e+9 
           1976      8.31809e+9 
           1984      7.75499e+9 
           1995      7.58972e+9 
           2005      7.71925e+9 
           2015       7.7023e+9 
           2025      7.81236e+9 
           2035      7.25517e+9 
           2045      7.26628e+9 
           2055      6.86396e+9 
           2065      6.83723e+9 
           2074      7.11415e+9 
           2078      6.65728e+9 
           2085      6.84413e+9 
           2095      6.62152e+9 
           2105      6.81561e+9 
           2115      6.77894e+9 
           2125      6.82724e+9 
           2135      6.68988e+9 
           2145      6.41034e+9 
           2155      6.54998e+9 
           2165      6.47506e+9 
           2175      6.37879e+9 
           2185      6.25094e+9 
           2195      6.25361e+9 
           2205      6.18176e+9 
           2215       6.0942e+9 
           2225      5.96527e+9 
           2235      5.85349e+9 
           2245      5.85191e+9 
           2255      5.71641e+9 
           2265      5.70107e+9 
           2275      5.62646e+9 
           2285      5.57003e+9 
           2295       5.2297e+9 
           2305      5.39189e+9 
           2315      5.28411e+9 
           2325       5.2182e+9 
           2335      5.11404e+9 
           2345      5.11319e+9 
           2355       5.0556e+9 
           2365      4.99562e+9 
           2375      4.90168e+9 
           2385      4.84397e+9 
           2395      4.77819e+9 
           2405      4.71769e+9 
           2415      4.65028e+9 
           2425      4.61765e+9 
           2435      4.51982e+9 
           2445       4.4874e+9 
           2455      4.45216e+9 
           2465      4.39193e+9 
           2475      4.32595e+9 
           2485      4.25972e+9 
           2495      3.81963e+9 
           2505      4.13128e+9 
           2513      3.98684e+9 
           2518      4.06978e+9 
           2525      4.05469e+9 
           2535       4.0094e+9 
           2545      3.90088e+9 
           2555      3.88893e+9 
           2565      3.85042e+9 
           2575      3.81677e+9 
           2585      3.76954e+9 
           2595      3.72633e+9 
           2605      3.69661e+9 
           2615       3.6479e+9 
           2625      3.61103e+9 
           2635      3.56755e+9 
           2645      3.51844e+9 
           2655      3.48205e+9 
           2665      3.40388e+9 
           2675      3.37647e+9 
           2685      3.36297e+9 
           2695      3.26799e+9 
           2705      3.24315e+9 
           2715       3.2194e+9 
           2725      3.17745e+9 
           2735        3.153e+9 
           2745      3.10627e+9 
           2755      3.08118e+9 
           2765      3.02814e+9 
           2775      3.02631e+9 
           2785      2.98325e+9 
           2795      2.89553e+9 
           2805      2.89996e+9 
           2815         2.89e+9 
           2825      2.83601e+9 
           2835      2.77235e+9 
           2845      2.79037e+9 
           2855      2.74867e+9 
           2865      2.72516e+9 
           2875      2.69529e+9 
           2885      2.66673e+9 
           2895      2.63251e+9 
           2910      2.58249e+9 
           2930      2.53305e+9 
           2950      2.45903e+9 
           2970      2.42218e+9 
           2990      2.36667e+9 
           3010       2.3006e+9 
           3030      2.26877e+9 
           3050      2.22462e+9 
           3070       2.1811e+9 
           3090      2.11125e+9 
           3110      2.08773e+9 
           3130      2.04056e+9 
           3150      2.00068e+9 
           3170      1.95628e+9 
           3190      1.90691e+9 
           3210      1.88063e+9 
           3230      1.83918e+9 
           3250       1.8058e+9 
           3270      1.76846e+9 
           3290      1.73171e+9 
           3310      1.70036e+9 
           3330      1.66484e+9 
           3350      1.63146e+9 
           3370      1.60067e+9 
           3390      1.57204e+9 
           3410      1.54206e+9 
           3430      1.50629e+9 
           3450      1.47254e+9 
           3470      1.44739e+9 
           3490      1.41925e+9 
           3510      1.39646e+9 
           3530      1.37433e+9 
           3550      1.34851e+9 
           3570      1.32954e+9 
           3590      1.29428e+9 
           3610      1.27307e+9 
           3630      1.24945e+9 
           3640      1.24708e+9 
           3650      1.22086e+9 
           3670      1.20535e+9 
           3690      1.17973e+9 
           3710      1.13866e+9 
           3730      1.09619e+9 
           3750      1.13556e+9 
           3770      1.12649e+9 
           3790      1.16805e+9 
           3810      1.20464e+9 
           3830      1.07092e+9 
           3850      1.21773e+9 
           3870       1.2082e+9 
           3890      1.01509e+9 
           3910      1.18964e+9 
           3930      1.15925e+9 
           3950      1.14464e+9 
           3970      9.41363e+8 
           3990      1.10278e+9 
           4010      1.09218e+9 
           4030      1.03927e+9 
           4050      1.06146e+9 
           4070      1.02487e+9 
           4090      9.64226e+8 
           4110        8.655e+8 
           4130      9.71348e+8 
           4150      9.63036e+8 
           4170      9.54969e+8 
           4190      9.40466e+8 
           4210      9.28555e+8 
           4230      9.11142e+8 
           4250      8.90969e+8 
           4270       8.6915e+8 
           4290      8.59345e+8 
           4310      8.38673e+8 
           4330      7.79062e+8 
           4350      7.16687e+8 
           4370      7.97593e+8 
           4390      7.79239e+8 
           4410      7.78637e+8 
           4430      7.68781e+8 
           4450      7.57169e+8 
           4470      7.21749e+8 
           4490      7.32843e+8 
           4510      7.24099e+8 
           4530      7.12505e+8 
           4550      7.00396e+8 
           4570      6.88813e+8 
           4590      6.77816e+8 
           4610       6.6601e+8 
           4630       6.5591e+8 
           4650      6.37003e+8 
           4670      6.35446e+8 
           4690      6.27537e+8 
           4710      6.08022e+8 
           4730      6.07909e+8 
           4750      5.97808e+8 
           4770      5.93021e+8 
           4790       5.8358e+8 
           4810      5.73478e+8 
           4830       5.6202e+8 
           4850      5.29816e+8 
           4870      4.79122e+8 
           4890      5.37726e+8 
           4910       5.3212e+8 
           4930      5.14558e+8 
           4950      5.16159e+8 
           4970      5.10808e+8 
           4990      5.03075e+8 
           5010      4.87075e+8 
           5030      4.88421e+8 
           5050      4.78444e+8 
           5070      4.74896e+8 
           5090      4.67827e+8 
           5110      4.60998e+8 
           5130      4.53417e+8 
           5150      4.47232e+8 
           5170      4.41819e+8 
           5190      4.35931e+8 
           5210      4.29634e+8 
           5230      4.23807e+8 
           5250      4.18001e+8 
           5270      4.11999e+8 
           5290      4.06601e+8 
           5310      4.00885e+8 
           5330      3.95548e+8 
           5350      3.90016e+8 
           5370      3.84961e+8 
           5390      3.79594e+8 
           5410      3.74579e+8 
           5430      3.69563e+8 
           5450      3.64534e+8 
           5470      3.59695e+8 
           5490      3.54942e+8 
           5510      3.50434e+8 
           5530      3.45613e+8 
           5550      3.41292e+8 
           5570      3.36732e+8 
           5590      3.32422e+8 
           5610      3.28045e+8 
           5630      3.23876e+8 
           5650       3.1931e+8 
           5670      3.14553e+8 
           5690      3.09809e+8 
           5710      3.07088e+8 
           5730      3.03285e+8 
           5750      2.98911e+8 
           5770      2.95858e+8 
           5790      2.92019e+8 
           5810      2.88372e+8 
           5830      2.84501e+8 
           5850      2.81128e+8 
           5870      2.70426e+8 
           5890      2.73066e+8 
           5910      2.70509e+8 
           5930      2.66974e+8 
           5950      2.63617e+8 
           5970      2.60998e+8 
           5990      2.57368e+8 
           6010      2.54521e+8 
           6030       2.5124e+8 
           6050      2.48316e+8 
           6070      2.45435e+8 
           6090      2.42495e+8 
           6110      2.39578e+8 
           6130      2.36734e+8 
           6150      2.33543e+8 
           6170      2.30903e+8 
           6190      2.28302e+8 
           6210      2.25662e+8 
           6230      2.23022e+8 
           6250      2.20266e+8 
           6270      2.17751e+8 
           6290      2.15254e+8 
           6310      2.12681e+8 
           6330      2.10267e+8 
           6350      2.07665e+8 
           6370      2.05397e+8 
           6390      2.03006e+8 
           6410      2.00687e+8 
           6430      1.98429e+8 
           6450      1.96141e+8 
           6470      1.93643e+8 
           6490      1.91504e+8 
           6510      1.89484e+8 
           6530      1.86762e+8 
           6550       1.8031e+8 
           6570       1.6161e+8 
           6590      1.79186e+8 
           6610      1.78888e+8 
           6630      1.77082e+8 
           6650      1.75133e+8 
           6670      1.71755e+8 
           6690      1.69913e+8 
           6710      1.69479e+8 
           6730      1.67434e+8 
           6750      1.65798e+8 
           6770       1.6399e+8 
           6790      1.61742e+8 
           6810      1.60363e+8 
           6830      1.58618e+8 
           6850      1.56962e+8 
           6870      1.55267e+8 
           6890      1.53526e+8 
           6910      1.51826e+8 
           6930      1.50316e+8 
           6950      1.48726e+8 
           6970      1.47145e+8 
           6990      1.45572e+8 
           7010      1.44045e+8 
           7030       1.4251e+8 
           7050      1.41013e+8 
           7070      1.37465e+8 
           7090      1.38077e+8 
           7110      1.36459e+8 
           7130      1.35109e+8 
           7150      1.33794e+8 
           7170      1.32397e+8 
           7190      1.31049e+8 
           7210        1.297e+8 
           7230      1.27311e+8 
           7250      1.26947e+8 
           7270      1.25743e+8 
           7290      1.23509e+8 
           7310      1.23172e+8 
           7330      1.21926e+8 
           7350      1.20705e+8 
           7370      1.19489e+8 
           7390      1.18285e+8 
           7410      1.17098e+8 
           7430      1.15916e+8 
           7450      1.14772e+8 
           7470      1.13456e+8 
           7490      1.12488e+8 
           7510      1.11342e+8 
           7530      1.10253e+8 
           7550      1.09194e+8 
           7570      1.08118e+8 
           7590      1.07052e+8 
           7610       1.0595e+8 
           7630      1.04962e+8 
           7650      1.03944e+8 
           7670      1.02929e+8 
           7690      1.01929e+8 
           7710      1.00938e+8 
           7730      9.99561e+7 
           7750      9.90081e+7 
           7770      9.79499e+7 
           7790      9.71186e+7 
           7810      9.61339e+7 
           7830      9.52686e+7 
           7850      9.44231e+7 
           7870      9.34876e+7 
           7890       9.2518e+7 
           7910      9.17677e+7 
           7930      9.08681e+7 
           7950      8.99883e+7 
           7970       8.9045e+7 
           7990      8.82044e+7 
           8010      8.73534e+7 
           8030      8.65391e+7 
           8050      8.57782e+7 
           8070      8.50238e+7 
           8090      8.41032e+7 
           8110      8.32478e+7 
           8130      8.27134e+7 
           8150      8.18542e+7 
           8170      8.12282e+7 
           8190       8.0304e+7 
           8210      7.93878e+7 
           8230        7.878e+7 
           8250      7.81992e+7 
           8270      7.70062e+7 
           8290      7.67118e+7 
           8310      7.60539e+7 
           8330      7.53471e+7 
           8350      7.43328e+7 
           8370       7.3865e+7 
           8390      7.33153e+7 
           8410      7.26421e+7 
           8430      7.19373e+7 
           8450      7.08321e+7 
           8470       7.0561e+7 
           8490      6.98997e+7 
           8510      6.90982e+7 
           8530      6.87435e+7 
           8550      6.72473e+7 
           8570      6.82417e+7 
           8590      6.56575e+7 
