# Kurucz ODFNEW /NOVER (2003)
# teff = 7250 K (value for the effective temperature for the model. Temperatures are given in K)
# logg = 1 log(cm/s2) (value for Log(G) for the model.)
# meta = -1  (value for the Metallicity for the model.)
# lh = 1.25  (l/Hp where l is the  mixing length of the convective element and Hp is the pressure scale height)
# vtur = 2 km/s (Microturbulence velocity)
# alpha = 0.4  (Alpha)
#
# column 1: WAVELENGTH (ANGSTROM), Wavelength in Angstrom
# column 2: FLUX (ERG/CM2/S/A), Flux in erg/cm2/s/A
            385      3.6927e-25 
            395     2.72578e-24 
            405     1.81368e-23 
            414     9.19756e-23 
            422      3.6608e-22 
            430     1.38004e-21 
            441     7.87587e-21 
            451     3.54631e-20 
            460     1.29475e-19 
            470     5.13317e-19 
            480      1.9139e-18 
            490     6.74159e-18 
            500     2.24847e-17 
            506      6.0099e-17 
            512     1.33609e-16 
            520     3.21683e-16 
            530     9.33227e-16 
            540     2.55416e-15 
            550     6.80392e-15 
            560     1.73505e-14 
            570     4.27006e-14 
            580     1.00468e-13 
            590     2.34111e-13 
            600     5.23371e-13 
            610     1.13707e-12 
            620     2.40317e-12 
            630     4.94921e-12 
            640     9.94801e-12 
            650     1.95346e-11 
            658     3.29731e-11 
            665     5.15252e-11 
            675     9.58309e-11 
            685     1.74706e-10 
            695     3.12474e-10 
            705     5.48133e-10 
            716     9.98966e-10 
            726      1.69239e-9 
            735       2.6835e-9 
            745      4.41432e-9 
            755      7.15622e-9 
            765      1.14385e-8 
            775      1.80372e-8 
            785      2.80793e-8 
            795      4.30051e-8 
            805      6.54775e-8 
            815      9.83816e-8 
            825      1.46092e-7 
            835      2.14618e-7 
            845      3.12089e-7 
            855      4.49282e-7 
            865       6.4065e-7 
            875      9.04298e-7 
            885      1.26748e-6 
            895      1.75976e-6 
            905      2.42065e-6 
            915       0.0068702 
            925       0.0231896 
            935       0.0299574 
            945       0.0421073 
            955       0.0606303 
            965       0.0789322 
            975        0.092781 
            985        0.134384 
            995         0.16664 
           1005        0.226946 
           1015        0.279856 
           1025        0.341584 
           1035        0.463973 
           1045        0.594612 
           1055        0.749008 
           1065        0.911445 
           1075         1.15015 
           1085         1.42947 
           1095         1.71334 
           1105         5.99176 
           1115         19.9443 
           1125         27.5475 
           1135         35.5462 
           1145         40.7699 
           1155         39.4118 
           1165         44.4867 
           1175         41.3287 
           1185         69.1848 
           1195         12.6389 
           1205         8.48275 
           1215         2.34453 
           1225         10.2071 
           1235         28.1085 
           1245         67.3436 
           1255         134.147 
           1265         174.477 
           1275         303.237 
           1285         483.499 
           1295         672.127 
           1305         617.225 
           1315         1074.16 
           1325         1413.92 
           1335         1700.37 
           1345         2219.94 
           1355         2500.62 
           1365         2912.58 
           1375         3393.03 
           1385         4025.11 
           1395          4780.1 
           1405         5510.03 
           1415         6005.73 
           1425         6931.91 
           1435         7251.11 
           1442         8493.14 
           1447         9204.98 
           1455         10417.1 
           1465         10966.8 
           1475         12278.5 
           1485         13894.5 
           1495         15986.1 
           1505         17816.7 
           1512         18497.5 
           1517         20034.1 
           1525         21204.6 
           1535         65198.7 
           1545          191472 
           1555          186384 
           1565          169382 
           1575          270250 
           1585          306635 
           1595          397043 
           1605          366342 
           1615          396716 
           1625          412621 
           1635          537763 
           1645          760371 
           1655          436749 
           1665          790442 
           1672          333083 
           1677      1.05784e+6 
           1685      1.58163e+6 
           1695      1.78542e+6 
           1705      1.76648e+6 
           1715      2.25277e+6 
           1725      2.35435e+6 
           1735      2.78596e+6 
           1745      2.59836e+6 
           1755      3.17392e+6 
           1765      2.57754e+6 
           1775      3.12946e+6 
           1785      2.97129e+6 
           1795      3.86221e+6 
           1805      3.13083e+6 
           1815      3.58863e+6 
           1825      3.01248e+6 
           1835       3.0915e+6 
           1845      2.88588e+6 
           1855      3.23311e+6 
           1865      3.48458e+6 
           1875      3.49466e+6 
           1885      3.66347e+6 
           1895      3.90103e+6 
           1905      3.53089e+6 
           1915      3.95516e+6 
           1925      4.10205e+6 
           1935      3.40978e+6 
           1945      4.39734e+6 
           1955      4.47873e+6 
           1967      4.76952e+6 
           1976      4.63953e+6 
           1984      4.55089e+6 
           1995       4.4681e+6 
           2005      4.35148e+6 
           2015      4.19575e+6 
           2025      3.93953e+6 
           2035      4.53615e+6 
           2045       4.9379e+6 
           2055      4.48397e+6 
           2065      4.40637e+6 
           2074      5.30542e+6 
           2078      5.51447e+6 
           2085      5.31068e+6 
           2095      5.10105e+6 
           2105      4.81014e+6 
           2115      4.91206e+6 
           2125      5.01769e+6 
           2135      3.95728e+6 
           2145      4.82491e+6 
           2155      4.92382e+6 
           2165      4.58387e+6 
           2175      4.63109e+6 
           2185      4.84059e+6 
           2195      5.34002e+6 
           2205      5.12968e+6 
           2215       4.5187e+6 
           2225      4.50466e+6 
           2235      5.42315e+6 
           2245      4.84072e+6 
           2255      4.49413e+6 
           2265      4.47701e+6 
           2275      5.07806e+6 
           2285      5.27738e+6 
           2295      4.85247e+6 
           2305      5.14925e+6 
           2315      5.02585e+6 
           2325       4.8466e+6 
           2335      3.96669e+6 
           2345      3.27498e+6 
           2355      4.73389e+6 
           2365      3.40174e+6 
           2375      4.33064e+6 
           2385      2.81953e+6 
           2395      3.56808e+6 
           2405      3.42435e+6 
           2415      3.90351e+6 
           2425      5.15667e+6 
           2435       5.0508e+6 
           2445      5.38825e+6 
           2455      5.28894e+6 
           2465      5.27123e+6 
           2475      4.94299e+6 
           2485      5.20063e+6 
           2495      5.05542e+6 
           2505      6.03965e+6 
           2513      5.03378e+6 
           2518      5.24085e+6 
           2525      4.61143e+6 
           2535      4.43852e+6 
           2545      4.60787e+6 
           2555      5.18428e+6 
           2565      4.93877e+6 
           2575      5.52036e+6 
           2585      5.32365e+6 
           2595       5.0352e+6 
           2605      4.60984e+6 
           2615       4.4021e+6 
           2625      5.34164e+6 
           2635      5.81055e+6 
           2645      7.37409e+6 
           2655      7.39668e+6 
           2665       6.4809e+6 
           2675      6.90321e+6 
           2685      6.92086e+6 
           2695      6.51896e+6 
           2705      6.74321e+6 
           2715      6.14626e+6 
           2725      6.27069e+6 
           2735      6.81819e+6 
           2745      4.87972e+6 
           2755       5.4499e+6 
           2765       5.8565e+6 
           2775      6.58832e+6 
           2785      5.46378e+6 
           2795      2.07967e+6 
           2805      2.69934e+6 
           2815      6.40526e+6 
           2825      7.34234e+6 
           2835      7.23767e+6 
           2845       7.0412e+6 
           2855      6.51175e+6 
           2865      7.39256e+6 
           2875      7.21178e+6 
           2885      7.43254e+6 
           2895      7.13631e+6 
           2910      8.21383e+6 
           2930      7.94279e+6 
           2950      7.94671e+6 
           2970       8.3124e+6 
           2990      8.45735e+6 
           3010      8.69088e+6 
           3030      8.69019e+6 
           3050      8.67622e+6 
           3070      8.63789e+6 
           3090      8.98333e+6 
           3110      8.74196e+6 
           3130      8.77327e+6 
           3150      9.10377e+6 
           3170      9.15309e+6 
           3190      8.64959e+6 
           3210      9.05546e+6 
           3230      8.75698e+6 
           3250      9.13674e+6 
           3270      9.28074e+6 
           3290      9.50934e+6 
           3310      9.68739e+6 
           3330      9.46911e+6 
           3350      9.34195e+6 
           3370      9.38034e+6 
           3390      9.50535e+6 
           3410      9.82086e+6 
           3430      1.00118e+7 
           3450      9.94199e+6 
           3470      9.82552e+6 
           3490        9.802e+6 
           3510       1.0097e+7 
           3530      1.02348e+7 
           3550      1.04217e+7 
           3570      1.01075e+7 
           3590      1.01346e+7 
           3610      1.02481e+7 
           3630      1.03671e+7 
           3640      1.02212e+7 
           3650       1.0558e+7 
           3670      1.05468e+7 
           3690      1.16875e+7 
           3710      1.56885e+7 
           3730      2.26253e+7 
           3750       3.3988e+7 
           3770      3.53407e+7 
           3790       4.2488e+7 
           3810      4.73037e+7 
           3830      3.76963e+7 
           3850      4.92334e+7 
           3870      5.16915e+7 
           3890      3.54345e+7 
           3910      4.96413e+7 
           3930      3.58877e+7 
           3950      4.83199e+7 
           3970      2.95367e+7 
           3990      4.91591e+7 
           4010      5.01553e+7 
           4030      4.92829e+7 
           4050       4.9011e+7 
           4070      4.79392e+7 
           4090      4.45078e+7 
           4110      3.51437e+7 
           4130      4.65387e+7 
           4150      4.69859e+7 
           4170      4.55029e+7 
           4190      4.53377e+7 
           4210      4.50993e+7 
           4230      4.42275e+7 
           4250       4.4002e+7 
           4270      4.32581e+7 
           4290      4.26367e+7 
           4310      4.03984e+7 
           4330      3.67388e+7 
           4350      3.18884e+7 
           4370      4.12832e+7 
           4390      4.02296e+7 
           4410      3.93309e+7 
           4430      3.98078e+7 
           4450      3.94812e+7 
           4470      3.92003e+7 
           4490      3.87902e+7 
           4510      3.89026e+7 
           4530      3.77355e+7 
           4550      3.68859e+7 
           4570      3.77308e+7 
           4590      3.66929e+7 
           4610      3.74813e+7 
           4630      3.64131e+7 
           4650      3.65622e+7 
           4670      3.61996e+7 
           4690       3.5662e+7 
           4710      3.45039e+7 
           4730      3.51625e+7 
           4750      3.50657e+7 
           4770      3.44345e+7 
           4790      3.40589e+7 
           4810      3.36687e+7 
           4830      3.31676e+7 
           4850      2.93408e+7 
           4870      2.39362e+7 
           4890      3.19018e+7 
           4910       3.2005e+7 
           4930       3.1394e+7 
           4950      3.14929e+7 
           4970      3.14565e+7 
           4990      3.07268e+7 
           5010      2.98305e+7 
           5030      3.01834e+7 
           5050      2.98488e+7 
           5070       2.9797e+7 
           5090      2.95197e+7 
           5110      2.92616e+7 
           5130      2.86932e+7 
           5150      2.83557e+7 
           5170      2.75941e+7 
           5190      2.72896e+7 
           5210       2.7433e+7 
           5230      2.69936e+7 
           5250       2.7268e+7 
           5270      2.61635e+7 
           5290      2.67293e+7 
           5310      2.62251e+7 
           5330      2.57223e+7 
           5350      2.61174e+7 
           5370      2.57168e+7 
           5390      2.54161e+7 
           5410      2.51178e+7 
           5430      2.48833e+7 
           5450      2.48773e+7 
           5470      2.46944e+7 
           5490      2.44711e+7 
           5510      2.42627e+7 
           5530      2.39262e+7 
           5550      2.39436e+7 
           5570       2.3659e+7 
           5590      2.33695e+7 
           5610      2.32331e+7 
           5630      2.31111e+7 
           5650      2.28073e+7 
           5670      2.25881e+7 
           5690      2.24866e+7 
           5710       2.2282e+7 
           5730      2.21508e+7 
           5750      2.19207e+7 
           5770      2.17554e+7 
           5790      2.15514e+7 
           5810      2.13754e+7 
           5830      2.11957e+7 
           5850      2.09927e+7 
           5870       2.0828e+7 
           5890      2.04295e+7 
           5910      2.04737e+7 
           5930      2.03016e+7 
           5950      2.01121e+7 
           5970      1.99659e+7 
           5990      1.97541e+7 
           6010      1.95978e+7 
           6030      1.94452e+7 
           6050      1.92808e+7 
           6070      1.91479e+7 
           6090      1.89705e+7 
           6110       1.8791e+7 
           6130      1.85774e+7 
           6150      1.82695e+7 
           6170      1.82314e+7 
           6190      1.82072e+7 
           6210      1.80598e+7 
           6230      1.78664e+7 
           6250      1.75314e+7 
           6270      1.76286e+7 
           6290      1.74872e+7 
           6310      1.72875e+7 
           6330      1.71841e+7 
           6350       1.6949e+7 
           6370      1.68269e+7 
           6390      1.67762e+7 
           6410      1.65827e+7 
           6430      1.64898e+7 
           6450      1.62165e+7 
           6470      1.62226e+7 
           6490      1.59671e+7 
           6510      1.58914e+7 
           6530      1.57041e+7 
           6550      1.44782e+7 
           6570      1.15205e+7 
           6590      1.51566e+7 
           6610      1.52745e+7 
           6630      1.52382e+7 
           6650      1.51501e+7 
           6670      1.50272e+7 
           6690      1.49198e+7 
           6710      1.48009e+7 
           6730      1.46823e+7 
           6750      1.45483e+7 
           6770      1.44764e+7 
           6790      1.43545e+7 
           6810      1.42532e+7 
           6830      1.41255e+7 
           6850      1.40295e+7 
           6870      1.39327e+7 
           6890      1.38281e+7 
           6910      1.37238e+7 
           6930      1.36156e+7 
           6950      1.35179e+7 
           6970      1.34125e+7 
           6990      1.33158e+7 
           7010      1.31656e+7 
           7030      1.31098e+7 
           7050      1.30196e+7 
           7070      1.29242e+7 
           7090      1.28312e+7 
           7110      1.26555e+7 
           7130      1.26246e+7 
           7150      1.25239e+7 
           7170      1.24416e+7 
           7190      1.23426e+7 
           7210       1.2246e+7 
           7230      1.21574e+7 
           7250      1.20754e+7 
           7270      1.20019e+7 
           7290      1.18929e+7 
           7310      1.18019e+7 
           7330      1.17221e+7 
           7350      1.16493e+7 
           7370       1.1582e+7 
           7390      1.14877e+7 
           7410      1.13805e+7 
           7430      1.12988e+7 
           7450      1.12267e+7 
           7470      1.11248e+7 
           7490      1.10621e+7 
           7510      1.09926e+7 
           7530      1.09276e+7 
           7550      1.08619e+7 
           7570      1.07704e+7 
           7590      1.07078e+7 
           7610      1.06314e+7 
           7630      1.05583e+7 
           7650      1.04716e+7 
           7670       1.0394e+7 
           7690      1.03254e+7 
           7710      1.02402e+7 
           7730      1.01911e+7 
           7750      1.01178e+7 
           7770      9.86426e+6 
           7790      9.98688e+6 
           7810      9.91479e+6 
           7830      9.83901e+6 
           7850      9.76082e+6 
           7870      9.68208e+6 
           7890      9.60098e+6 
           7910      9.56574e+6 
           7930      9.48819e+6 
           7950      9.41786e+6 
           7970      9.38667e+6 
           7990      9.27246e+6 
           8010      9.25557e+6 
           8030      9.18908e+6 
           8050      9.13069e+6 
           8070      9.06813e+6 
           8090      9.00723e+6 
           8110      8.95083e+6 
           8130      8.89317e+6 
           8150      8.83369e+6 
           8170      8.77413e+6 
           8190      8.66225e+6 
           8210      8.64189e+6 
           8230       8.5827e+6 
           8250      8.51125e+6 
           8270      8.51585e+6 
           8290      8.44795e+6 
           8310      8.35551e+6 
           8330      8.22259e+6 
           8350      8.25836e+6 
           8370      8.05008e+6 
           8390       8.0824e+6 
           8410      8.03814e+6 
           8430      8.23489e+6 
           8450      8.09571e+6 
           8470      7.84484e+6 
           8490      8.50149e+6 
           8510      7.64226e+6 
           8530      8.63319e+6 
           8550      7.18905e+6 
           8570      8.83029e+6 
           8590       8.3287e+6 
           8610      8.07509e+6 
           8630      9.04128e+6 
           8650        8.854e+6 
           8670      7.09918e+6 
           8690      8.87096e+6 
           8710      9.05174e+6 
           8730      8.86944e+6 
           8750      7.27601e+6 
           8770       8.6021e+6 
           8790      8.82678e+6 
           8810      8.73579e+6 
           8830      8.64794e+6 
           8850      8.23853e+6 
           8870       7.0685e+6 
           8890      8.43912e+6 
           8910      8.43592e+6 
           8930      8.39251e+6 
           8950      8.40819e+6 
           8970      8.32813e+6 
           8990      8.19136e+6 
           9010      6.93222e+6 
           9030      7.59318e+6 
           9050      8.07851e+6 
           9070      7.93942e+6 
           9090      7.82838e+6 
           9110      7.91252e+6 
           9130      7.91902e+6 
           9150      7.87634e+6 
           9170      7.81514e+6 
           9190      7.73031e+6 
           9210      7.48937e+6 
           9230      6.16437e+6 
           9250      7.27063e+6 
           9270      7.38484e+6 
           9290      7.51502e+6 
           9310      7.47408e+6 
           9330      7.42043e+6 
           9350      7.37838e+6 
           9370      7.33361e+6 
           9390      7.27121e+6 
           9410      7.09653e+6 
           9430      7.14865e+6 
           9450      7.13066e+6 
           9470      7.09679e+6 
           9490      7.04725e+6 
