# Kurucz ODFNEW /NOVER (2003)
# teff = 29000 K (value for the effective temperature for the model. Temperatures are given in K)
# logg = 4.5 log(cm/s2) (value for Log(G) for the model.)
# meta = 0.5  (value for the Metallicity for the model.)
# lh = 1.25  (l/Hp where l is the  mixing length of the convective element and Hp is the pressure scale height)
# vtur = 2 km/s (Microturbulence velocity)
# alpha = 0.4  (Alpha)
#
# column 1: WAVELENGTH (ANGSTROM), Wavelength in Angstrom
# column 2: FLUX (ERG/CM2/S/A), Flux in erg/cm2/s/A
          147.2     5.37854e-10 
            151        1.776e-9 
          155.2      6.22751e-9 
          158.8      1.73534e-8 
            162      4.16263e-8 
            166      1.18736e-7 
          170.3      3.44916e-7 
          173.4      7.30052e-7 
          176.8      1.60137e-6 
          180.2       3.4139e-6 
          181.7      4.72057e-6 
          186.1      1.19252e-5 
            191      3.19839e-5 
          193.9      5.59775e-5 
          198.4     0.000129358 
          201.8     0.000237861 
            205     0.000414541 
          210.5      0.00103904 
          216.2      0.00256467 
          219.8      0.00444173 
            223       0.0071324 
          226.8       0.0132863 
            230        0.274777 
            234        0.575194 
            240         1.17466 
          246.5         2.48281 
          252.4         4.77522 
          256.8         7.43333 
            260         11.2328 
            264         16.2592 
          268.5         26.0238 
          273.5         41.6848 
          278.5         64.1383 
            284          122.73 
            290         200.204 
            296         319.104 
            301           461.8 
            308         880.547 
            318         1879.85 
            328         3440.34 
            338         6639.03 
            348         11830.3 
            357           65790 
            366          170464 
            375          236204 
            385          395753 
            395      1.33582e+6 
            405      1.81439e+6 
            414      3.34163e+6 
            422      4.26223e+6 
            430      5.68069e+6 
            441      7.70405e+6 
            451      9.38392e+6 
            460      1.09604e+7 
            470      1.46379e+7 
            480      1.85961e+7 
            490      2.31671e+7 
            500      2.82653e+7 
            506       6.1051e+7 
            512      5.71552e+8 
            520      5.53656e+8 
            530      5.54191e+8 
            540      5.35535e+8 
            550       7.9564e+8 
            560       9.8865e+8 
            570      1.05722e+9 
            580       9.4609e+8 
            590      1.15476e+9 
            600      9.93519e+8 
            610       1.2776e+9 
            620      1.41097e+9 
            630      1.39368e+9 
            640      1.18721e+9 
            650      1.04191e+9 
            658       1.1469e+9 
            665       1.4357e+9 
            675      1.55603e+9 
            685      1.35461e+9 
            695      2.01902e+9 
            705      1.66382e+9 
            716      2.23757e+9 
            726      2.12718e+9 
            735      2.26397e+9 
            745      2.41123e+9 
            755      2.46053e+9 
            765      2.63648e+9 
            775      2.79192e+9 
            785      2.93791e+9 
            795      2.90183e+9 
            805      2.87466e+9 
            815      2.86172e+9 
            825      3.13837e+9 
            835      2.27089e+9 
            845      3.01125e+9 
            855      2.97019e+9 
            865      3.12702e+9 
            875      3.22478e+9 
            885      3.42158e+9 
            895      3.50564e+9 
            905       3.3602e+9 
            915      3.86726e+9 
            925     1.65829e+10 
            935     3.17061e+10 
            945     5.02854e+10 
            955     5.86517e+10 
            965      6.7451e+10 
            975     1.38054e+10 
            985     4.91693e+10 
            995     4.65573e+10 
           1005      5.2752e+10 
           1015     5.77111e+10 
           1025     3.70912e+10 
           1035     5.02447e+10 
           1045     6.94622e+10 
           1055      6.3281e+10 
           1065      4.6112e+10 
           1075     5.37307e+10 
           1085     5.00183e+10 
           1095     5.51823e+10 
           1105     4.96063e+10 
           1115     4.68842e+10 
           1125     3.02663e+10 
           1135     4.71444e+10 
           1145      4.3632e+10 
           1155     4.24335e+10 
           1165     4.25242e+10 
           1175     2.22917e+10 
           1185      3.8673e+10 
           1195     3.64878e+10 
           1205     2.71204e+10 
           1215     2.36885e+10 
           1225     3.42581e+10 
           1235     3.87665e+10 
           1245     3.67974e+10 
           1255     3.64333e+10 
           1265     3.78795e+10 
           1275     3.95055e+10 
           1285     3.96527e+10 
           1295     2.81858e+10 
           1305     3.08679e+10 
           1315     3.90515e+10 
           1325     3.63313e+10 
           1335     3.55819e+10 
           1345      3.4657e+10 
           1355     3.48532e+10 
           1365     3.15642e+10 
           1375     2.97996e+10 
           1385     2.71987e+10 
           1395     1.44598e+10 
           1405     1.77368e+10 
           1415      2.5241e+10 
           1425     2.40996e+10 
           1435     2.59913e+10 
           1442     2.64933e+10 
           1447     2.62205e+10 
           1455     2.47656e+10 
           1465      2.2719e+10 
           1475     2.37193e+10 
           1485      2.3319e+10 
           1495     2.26052e+10 
           1505      2.0117e+10 
           1512     1.86656e+10 
           1517     1.92106e+10 
           1525      1.9387e+10 
           1535     1.57959e+10 
           1545     1.41689e+10 
           1555      1.4023e+10 
           1565     1.58553e+10 
           1575      1.7105e+10 
           1585     1.71552e+10 
           1595     1.71481e+10 
           1605     1.73066e+10 
           1615     1.64733e+10 
           1625     1.64481e+10 
           1635     1.74045e+10 
           1645     1.77462e+10 
           1655     1.73082e+10 
           1665     1.73754e+10 
           1672     1.60538e+10 
           1677     1.91008e+10 
           1685      1.8019e+10 
           1695     1.69481e+10 
           1705     1.66358e+10 
           1715     1.56239e+10 
           1725     1.48736e+10 
           1735     1.56813e+10 
           1745     1.55689e+10 
           1755     1.54678e+10 
           1765     1.53982e+10 
           1775     1.41718e+10 
           1785     1.45975e+10 
           1795     1.47849e+10 
           1805     1.48829e+10 
           1815     1.34865e+10 
           1825     1.38199e+10 
           1835     1.34526e+10 
           1845     1.22049e+10 
           1855      1.2713e+10 
           1865      1.2837e+10 
           1875     1.29362e+10 
           1885     1.16542e+10 
           1895     1.09808e+10 
           1905     1.18437e+10 
           1915     1.11101e+10 
           1925     1.03331e+10 
           1935     1.12358e+10 
           1945     1.15508e+10 
           1955      1.0117e+10 
           1967     1.11088e+10 
           1976     1.17161e+10 
           1984     1.07901e+10 
           1995     1.06866e+10 
           2005     1.10694e+10 
           2015     1.09747e+10 
           2025      1.1098e+10 
           2035     1.02023e+10 
           2045     1.03451e+10 
           2055      9.29017e+9 
           2065      9.17302e+9 
           2074      9.51572e+9 
           2078      8.85183e+9 
           2085      9.37572e+9 
           2095      9.10017e+9 
           2105      9.65837e+9 
           2115      9.76095e+9 
           2125      9.69934e+9 
           2135      9.52935e+9 
           2145      9.10909e+9 
           2155      9.46037e+9 
           2165      9.24458e+9 
           2175      9.20436e+9 
           2185       8.8962e+9 
           2195      9.04678e+9 
           2205      9.02612e+9 
           2215      8.78969e+9 
           2225      8.60052e+9 
           2235      8.44982e+9 
           2245      8.48085e+9 
           2255      8.16428e+9 
           2265      8.27226e+9 
           2275      8.13419e+9 
           2285      7.93544e+9 
           2295      6.82737e+9 
           2305      7.65084e+9 
           2315      7.47241e+9 
           2325      7.44521e+9 
           2335      7.26273e+9 
           2345      7.34958e+9 
           2355      7.21869e+9 
           2365      7.14228e+9 
           2375      6.92598e+9 
           2385      6.81835e+9 
           2395       6.7392e+9 
           2405      6.68653e+9 
           2415      6.56086e+9 
           2425      6.54722e+9 
           2435      6.36775e+9 
           2445       6.3561e+9 
           2455      6.31755e+9 
           2465      6.21928e+9 
           2475      6.08677e+9 
           2485      5.76531e+9 
           2495      3.94545e+9 
           2505      5.38328e+9 
           2513      5.41068e+9 
           2518      5.53217e+9 
           2525      5.67526e+9 
           2535      5.67624e+9 
           2545      5.37749e+9 
           2555      5.46198e+9 
           2565      5.33089e+9 
           2575      5.38019e+9 
           2585      5.31705e+9 
           2595      5.25746e+9 
           2605       5.2114e+9 
           2615      5.09984e+9 
           2625      5.07522e+9 
           2635       5.0123e+9 
           2645      4.92951e+9 
           2655      4.88929e+9 
           2665      4.64086e+9 
           2675      4.63876e+9 
           2685      4.67404e+9 
           2695       4.4767e+9 
           2705      4.34707e+9 
           2715      4.36903e+9 
           2725       4.3808e+9 
           2735      4.32425e+9 
           2745       4.2665e+9 
           2755      4.23663e+9 
           2765      4.16888e+9 
           2775      4.22363e+9 
           2785      4.12705e+9 
           2795      3.92792e+9 
           2805      3.99601e+9 
           2815      4.02467e+9 
           2825      3.96913e+9 
           2835      3.81092e+9 
           2845      3.86498e+9 
           2855      3.77144e+9 
           2865      3.76228e+9 
           2875      3.70334e+9 
           2885      3.65571e+9 
           2895      3.59391e+9 
           2910      3.47634e+9 
           2930      3.49105e+9 
           2950      3.38128e+9 
           2970      3.31924e+9 
           2990       3.2151e+9 
           3010      3.04673e+9 
           3030      3.02963e+9 
           3050      3.01205e+9 
           3070      2.99212e+9 
           3090      2.82773e+9 
           3110      2.85497e+9 
           3130      2.75288e+9 
           3150      2.72274e+9 
           3170      2.63758e+9 
           3190      2.60258e+9 
           3210      2.55822e+9 
           3230       2.4793e+9 
           3250      2.45508e+9 
           3270      2.38117e+9 
           3290      2.34016e+9 
           3310      2.28896e+9 
           3330      2.22948e+9 
           3350      2.19183e+9 
           3370      2.13653e+9 
           3390      2.12028e+9 
           3410      2.07497e+9 
           3430      2.04374e+9 
           3450      1.98678e+9 
           3470      1.95012e+9 
           3490      1.90698e+9 
           3510      1.87207e+9 
           3530      1.85455e+9 
           3550      1.81138e+9 
           3570      1.77932e+9 
           3590      1.72494e+9 
           3610       1.7027e+9 
           3630      1.66878e+9 
           3640       1.6632e+9 
           3650      1.63369e+9 
           3670      1.61495e+9 
           3690       1.5844e+9 
           3710      1.51101e+9 
           3730      1.46542e+9 
           3750      1.46716e+9 
           3770      1.42349e+9 
           3790      1.48503e+9 
           3810      1.52917e+9 
           3830      1.34973e+9 
           3850      1.52491e+9 
           3870      1.47964e+9 
           3890      1.26731e+9 
           3910      1.51805e+9 
           3930        1.463e+9 
           3950      1.41874e+9 
           3970      1.17148e+9 
           3990      1.39469e+9 
           4010      1.38703e+9 
           4030      1.31421e+9 
           4050      1.33172e+9 
           4070      1.24291e+9 
           4090      1.15971e+9 
           4110        1.054e+9 
           4130      1.20639e+9 
           4150      1.19692e+9 
           4170      1.20531e+9 
           4190      1.18853e+9 
           4210      1.17784e+9 
           4230      1.14704e+9 
           4250      1.09885e+9 
           4270      1.07149e+9 
           4290      1.04349e+9 
           4310       1.0027e+9 
           4330      9.35931e+8 
           4350      8.70007e+8 
           4370      9.61763e+8 
           4390      9.70378e+8 
           4410      9.55417e+8 
           4430      9.55947e+8 
           4450      9.33791e+8 
           4470      9.00282e+8 
           4490       9.1149e+8 
           4510       9.0322e+8 
           4530      8.94767e+8 
           4550      8.82914e+8 
           4570       8.6779e+8 
           4590      8.50302e+8 
           4610      8.22412e+8 
           4630      8.08767e+8 
           4650      7.71683e+8 
           4670       7.8687e+8 
           4690      7.81544e+8 
           4710      7.46493e+8 
           4730      7.63818e+8 
           4750      7.49468e+8 
           4770      7.53148e+8 
           4790      7.38727e+8 
           4810      7.18952e+8 
           4830      7.02578e+8 
           4850      6.57461e+8 
           4870      5.90853e+8 
           4890      6.72996e+8 
           4910      6.66743e+8 
           4930      6.45441e+8 
           4950      6.42958e+8 
           4970      6.45572e+8 
           4990      6.34219e+8 
           5010      6.01399e+8 
           5030      6.09297e+8 
           5050      5.98232e+8 
           5070      5.98534e+8 
           5090      5.85449e+8 
           5110      5.74859e+8 
           5130      5.62355e+8 
           5150      5.57129e+8 
           5170      5.51544e+8 
           5190      5.45693e+8 
           5210      5.36377e+8 
           5230      5.30616e+8 
           5250      5.22863e+8 
           5270      5.12676e+8 
           5290      5.08887e+8 
           5310      5.00839e+8 
           5330      4.94462e+8 
           5350      4.86691e+8 
           5370      4.81152e+8 
           5390      4.73063e+8 
           5410      4.66894e+8 
           5430      4.61161e+8 
           5450      4.53762e+8 
           5470      4.47768e+8 
           5490      4.42049e+8 
           5510      4.37494e+8 
           5530      4.29851e+8 
           5550      4.25963e+8 
           5570      4.19874e+8 
           5590      4.14211e+8 
           5610      4.08617e+8 
           5630      4.04008e+8 
           5650       3.9616e+8 
           5670      3.88906e+8 
           5690      3.80929e+8 
           5710      3.78716e+8 
           5730      3.75732e+8 
           5750      3.68645e+8 
           5770      3.67146e+8 
           5790      3.61659e+8 
           5810       3.5703e+8 
           5830      3.50983e+8 
           5850      3.47651e+8 
           5870      3.34069e+8 
           5890      3.35311e+8 
           5910      3.32754e+8 
           5930      3.28585e+8 
           5950      3.24188e+8 
           5970      3.23415e+8 
           5990      3.16765e+8 
           6010      3.14733e+8 
           6030      3.09603e+8 
           6050      3.06293e+8 
           6070      3.03348e+8 
           6090      2.99764e+8 
           6110      2.95907e+8 
           6130      2.92656e+8 
           6150      2.86532e+8 
           6170      2.83678e+8 
           6190      2.81661e+8 
           6210      2.78815e+8 
           6230      2.75659e+8 
           6250      2.70965e+8 
           6270       2.6832e+8 
           6290       2.6554e+8 
           6310      2.61579e+8 
           6330      2.59459e+8 
           6350      2.55108e+8 
           6370      2.53407e+8 
           6390      2.50254e+8 
           6410      2.47237e+8 
           6430       2.4479e+8 
           6450      2.41744e+8 
           6470      2.36868e+8 
           6490      2.34606e+8 
           6510      2.31815e+8 
           6530      2.27809e+8 
           6550      2.19641e+8 
           6570      1.94444e+8 
           6590      2.18995e+8 
           6610      2.19112e+8 
           6630       2.1744e+8 
           6650      2.14575e+8 
           6670      2.10157e+8 
           6690      2.07968e+8 
           6710      2.07768e+8 
           6730      2.04481e+8 
           6750       2.0356e+8 
           6770      2.01373e+8 
           6790      1.96854e+8 
           6810      1.96382e+8 
           6830      1.93756e+8 
           6850      1.92377e+8 
           6870      1.90117e+8 
           6890       1.8746e+8 
           6910      1.84498e+8 
           6930      1.84188e+8 
           6950      1.82318e+8 
           6970      1.80358e+8 
           6990      1.78241e+8 
           7010      1.76198e+8 
           7030       1.7416e+8 
           7050      1.72423e+8 
           7070      1.67793e+8 
           7090      1.68444e+8 
           7110      1.65277e+8 
           7130      1.63729e+8 
           7150      1.63094e+8 
           7170      1.61797e+8 
           7190      1.60271e+8 
           7210      1.58579e+8 
           7230      1.54265e+8 
           7250      1.54562e+8 
           7270      1.53634e+8 
           7290      1.50744e+8 
           7310      1.50371e+8 
           7330      1.48732e+8 
           7350      1.47261e+8 
           7370      1.45852e+8 
           7390       1.4436e+8 
           7410      1.42875e+8 
           7430      1.41302e+8 
           7450      1.39845e+8 
           7470      1.36788e+8 
           7490      1.36616e+8 
           7510      1.35596e+8 
           7530      1.33893e+8 
           7550      1.32993e+8 
           7570      1.31673e+8 
           7590      1.30215e+8 
           7610        1.284e+8 
           7630      1.27637e+8 
           7650      1.26288e+8 
           7670       1.2522e+8 
           7690      1.23843e+8 
           7710      1.22631e+8 
           7730      1.21102e+8 
           7750      1.20321e+8 
           7770      1.18555e+8 
           7790      1.18027e+8 
           7810      1.16849e+8 
           7830      1.15755e+8 
           7850      1.14579e+8 
           7870      1.12909e+8 
           7890      1.11538e+8 
           7910      1.11041e+8 
           7930      1.09925e+8 
           7950      1.08931e+8 
           7970      1.07893e+8 
           7990      1.06828e+8 
           8010      1.05879e+8 
           8030      1.04814e+8 
           8050      1.03951e+8 
           8070      1.03014e+8 
           8090      1.01947e+8 
           8110      9.97267e+7 
           8130      1.00109e+8 
           8150      9.91699e+7 
           8170      9.83689e+7 
           8190      9.61536e+7 
           8210       9.5613e+7 
           8230      9.44258e+7 
           8250      9.44944e+7 
           8270      9.19558e+7 
           8290      9.24719e+7 
           8310      9.19455e+7 
           8330      9.11679e+7 
           8350      8.98185e+7 
           8370      8.91102e+7 
           8390      8.86966e+7 
           8410      8.76786e+7 
           8430      8.71041e+7 
           8450       8.5542e+7 
           8470      8.55376e+7 
           8490       8.4487e+7 
           8510      8.36118e+7 
           8530      8.30286e+7 
           8550       8.1883e+7 
           8570      8.20194e+7 
