# Kurucz ODFNEW /NOVER (2003)
# teff = 19000 K (value for the effective temperature for the model. Temperatures are given in K)
# logg = 4 log(cm/s2) (value for Log(G) for the model.)
# meta = -2  (value for the Metallicity for the model.)
# lh = 1.25  (l/Hp where l is the  mixing length of the convective element and Hp is the pressure scale height)
# vtur = 2 km/s (Microturbulence velocity)
# alpha = 0  (Alpha)
#
# column 1: WAVELENGTH (ANGSTROM), Wavelength in Angstrom
# column 2: FLUX (ERG/CM2/S/A), Flux in erg/cm2/s/A
          147.2     3.42272e-22 
            151     2.69829e-21 
          155.2     2.25612e-20 
          158.8     1.27284e-19 
            162     5.56295e-19 
            166     3.25188e-18 
          170.3     1.98197e-17 
          173.4     6.90459e-17 
          176.8     2.58193e-16 
          180.2     9.19048e-16 
          181.7      1.5852e-15 
          186.1     7.45514e-15 
            191     3.84165e-14 
          193.9     9.74459e-14 
          198.4     3.91406e-13 
          201.8     1.07376e-12 
            205     2.69148e-12 
          210.5     1.22124e-11 
          216.2     5.39177e-11 
          219.8     1.32236e-10 
            223     2.86216e-10 
          226.8     6.95736e-10 
            230      1.66886e-9 
            234      4.10587e-9 
            240      1.43216e-8 
          246.5       5.1533e-8 
          252.4       1.5545e-7 
          256.8      3.41081e-7 
            260      5.96525e-7 
            264      1.17231e-6 
          268.5      2.44347e-6 
          273.5      5.36521e-6 
          278.5      1.14468e-5 
            284      2.54994e-5 
            290      5.89104e-5 
            296     0.000131281 
            301     0.000249612 
            308     0.000590407 
            318      0.00189076 
            328      0.00561116 
            338       0.0155491 
            348        0.040487 
            357       0.0912227 
            366        0.196968 
            375        0.408676 
            385        0.880971 
            395         1.82105 
            405          3.6211 
            414         6.51841 
            422         10.7425 
            430         17.3503 
            441         32.5201 
            451         55.9146 
            460         89.0709 
            470         146.027 
            480         234.017 
            490         367.158 
            500         564.612 
            506         4115.93 
            512           11212 
            520         14736.2 
            530         22370.4 
            540         26452.5 
            550         39849.9 
            560         51717.4 
            570         67018.2 
            580         72550.7 
            590          101447 
            600          134702 
            610          168086 
            620          206427 
            630          252738 
            640          303766 
            650          368660 
            658          427010 
            665          482019 
            675          567949 
            685          667808 
            695          792183 
            705          923282 
            716      1.08612e+6 
            726      1.25282e+6 
            735      1.42337e+6 
            745      1.63296e+6 
            755      1.86367e+6 
            765      2.11441e+6 
            775       2.3962e+6 
            785      2.70174e+6 
            795      3.03273e+6 
            805      3.39508e+6 
            815      3.78343e+6 
            825      4.21278e+6 
            835       4.6225e+6 
            845      5.15579e+6 
            855      5.66518e+6 
            865      6.25193e+6 
            875      6.85678e+6 
            885      7.51222e+6 
            895      8.19608e+6 
            905       8.8255e+6 
            915      1.58854e+7 
            925      7.02979e+7 
            935      2.73222e+8 
            945      1.72122e+9 
            955      4.01714e+9 
            965      5.64513e+9 
            975      1.65002e+9 
            985      8.45697e+9 
            995      8.90124e+9 
           1005      9.15318e+9 
           1015      7.07987e+9 
           1025      9.28104e+8 
           1035      5.73838e+9 
           1045      9.14134e+9 
           1055      9.17771e+9 
           1065      8.48569e+9 
           1075      8.93621e+9 
           1085      8.36967e+9 
           1095      8.77331e+9 
           1105      8.29621e+9 
           1115      8.29443e+9 
           1125      7.86068e+9 
           1135      8.03481e+9 
           1145       7.6445e+9 
           1155      7.79228e+9 
           1165      7.72042e+9 
           1175      6.90604e+9 
           1185      7.35873e+9 
           1195      6.44782e+9 
           1205      4.52301e+9 
           1215      6.36361e+8 
           1225      4.10916e+9 
           1235      6.24291e+9 
           1245      6.53214e+9 
           1255      6.42296e+9 
           1265       6.3131e+9 
           1275      6.37088e+9 
           1285      6.27759e+9 
           1295      5.80092e+9 
           1305      5.69798e+9 
           1315      5.96262e+9 
           1325      5.77103e+9 
           1335      5.51621e+9 
           1345      5.63649e+9 
           1355      5.57884e+9 
           1365      5.43978e+9 
           1375      5.35118e+9 
           1385      5.28832e+9 
           1395      5.10611e+9 
           1405      5.07968e+9 
           1415      5.01773e+9 
           1425      4.95813e+9 
           1435      4.88945e+9 
           1442      4.85133e+9 
           1447      4.80671e+9 
           1455      4.73478e+9 
           1465      4.64561e+9 
           1475      4.57764e+9 
           1485      4.49227e+9 
           1495      4.42395e+9 
           1505       4.3256e+9 
           1512      4.25664e+9 
           1517      4.24942e+9 
           1525      4.18017e+9 
           1535      4.04786e+9 
           1545      4.05307e+9 
           1555        3.943e+9 
           1565        3.916e+9 
           1575      3.88905e+9 
           1585      3.83264e+9 
           1595      3.79258e+9 
           1605      3.68638e+9 
           1615      3.63149e+9 
           1625      3.59834e+9 
           1635      3.55855e+9 
           1645      3.49885e+9 
           1655      3.43303e+9 
           1665      3.42807e+9 
           1672      3.32382e+9 
           1677      3.36378e+9 
           1685      3.32913e+9 
           1695      3.26583e+9 
           1705      3.20003e+9 
           1715      3.13926e+9 
           1725      3.09132e+9 
           1735      3.07681e+9 
           1745      3.01987e+9 
           1755      3.00244e+9 
           1765      2.87987e+9 
           1775      2.89964e+9 
           1785      2.86346e+9 
           1795      2.84147e+9 
           1805       2.8044e+9 
           1815      2.75312e+9 
           1825      2.72597e+9 
           1835      2.68616e+9 
           1845       2.6144e+9 
           1855      2.54425e+9 
           1865      2.52689e+9 
           1875      2.53559e+9 
           1885      2.45564e+9 
           1895      2.39559e+9 
           1905      2.42147e+9 
           1915      2.35228e+9 
           1925      2.32028e+9 
           1935      2.31306e+9 
           1945      2.30727e+9 
           1955      2.23473e+9 
           1967      2.24348e+9 
           1976      2.23428e+9 
           1984      2.18644e+9 
           1995      2.13125e+9 
           2005        2.139e+9 
           2015      2.12274e+9 
           2025       2.1055e+9 
           2035      2.06712e+9 
           2045      2.04191e+9 
           2055       1.9856e+9 
           2065      1.97728e+9 
           2074      1.98424e+9 
           2078      1.94625e+9 
           2085      1.94672e+9 
           2095      1.90827e+9 
           2105      1.90192e+9 
           2115      1.88355e+9 
           2125       1.8687e+9 
           2135      1.84364e+9 
           2145       1.8174e+9 
           2155      1.80097e+9 
           2165      1.77602e+9 
           2175      1.75502e+9 
           2185      1.73671e+9 
           2195      1.72006e+9 
           2205       1.6969e+9 
           2215      1.67493e+9 
           2225      1.65268e+9 
           2235      1.63959e+9 
           2245      1.62112e+9 
           2255      1.59974e+9 
           2265      1.58476e+9 
           2275      1.56548e+9 
           2285      1.55079e+9 
           2295      1.52486e+9 
           2305      1.51365e+9 
           2315       1.4949e+9 
           2325      1.48054e+9 
           2335      1.45593e+9 
           2345      1.42922e+9 
           2355      1.42873e+9 
           2365      1.40374e+9 
           2375      1.39488e+9 
           2385      1.36923e+9 
           2395      1.35992e+9 
           2405      1.34564e+9 
           2415      1.33039e+9 
           2425       1.3252e+9 
           2435      1.30735e+9 
           2445      1.29391e+9 
           2455      1.28389e+9 
           2465      1.26649e+9 
           2475       1.2551e+9 
           2485      1.24209e+9 
           2495      1.22017e+9 
           2505      1.21688e+9 
           2513      1.20067e+9 
           2518      1.20048e+9 
           2525       1.1881e+9 
           2535      1.17124e+9 
           2545      1.16252e+9 
           2555      1.15615e+9 
           2565      1.14063e+9 
           2575      1.13281e+9 
           2585      1.12028e+9 
           2595      1.10797e+9 
           2605      1.10048e+9 
           2615      1.09082e+9 
           2625      1.08126e+9 
           2635      1.06797e+9 
           2645      1.06379e+9 
           2655      1.05178e+9 
           2665      1.03817e+9 
           2675      1.02901e+9 
           2685      1.02412e+9 
           2695      1.00725e+9 
           2705      1.00363e+9 
           2715      9.92724e+8 
           2725      9.76066e+8 
           2735      9.74028e+8 
           2745      9.55395e+8 
           2755      9.47926e+8 
           2765      9.38125e+8 
           2775      9.37442e+8 
           2785      9.27711e+8 
           2795      9.04784e+8 
           2805      9.03851e+8 
           2815      9.02242e+8 
           2825      8.85953e+8 
           2835      8.79292e+8 
           2845      8.75914e+8 
           2855      8.68125e+8 
           2865      8.60423e+8 
           2875      8.52078e+8 
           2885       8.4428e+8 
           2895      8.36615e+8 
           2910      8.25031e+8 
           2930      8.09155e+8 
           2950      7.90342e+8 
           2970      7.80545e+8 
           2990      7.66176e+8 
           3010      7.52744e+8 
           3030      7.39392e+8 
           3050      7.26204e+8 
           3070      7.13375e+8 
           3090      7.00817e+8 
           3110       6.8856e+8 
           3130      6.77174e+8 
           3150      6.65413e+8 
           3170      6.53856e+8 
           3190      6.38575e+8 
           3210       6.3152e+8 
           3230      6.20763e+8 
           3250      6.10293e+8 
           3270      6.00525e+8 
           3290      5.90009e+8 
           3310      5.80734e+8 
           3330      5.71164e+8 
           3350      5.61141e+8 
           3370      5.52577e+8 
           3390      5.43617e+8 
           3410      5.34829e+8 
           3430      5.25088e+8 
           3450      5.15631e+8 
           3470      5.08328e+8 
           3490      5.00199e+8 
           3510      4.93353e+8 
           3530      4.85783e+8 
           3550      4.78232e+8 
           3570       4.7212e+8 
           3590      4.63162e+8 
           3610      4.56657e+8 
           3630      4.48951e+8 
           3640      4.47227e+8 
           3650      4.42263e+8 
           3670      4.37092e+8 
           3690      4.26003e+8 
           3710      4.14881e+8 
           3730      4.03539e+8 
           3750      4.48861e+8 
           3770      4.58981e+8 
           3790      4.98526e+8 
           3810      5.30703e+8 
           3830      4.51056e+8 
           3850      5.55519e+8 
           3870      5.69261e+8 
           3890      4.23009e+8 
           3910      5.61369e+8 
           3930      5.58036e+8 
           3950      5.44915e+8 
           3970      3.95448e+8 
           3990      5.22117e+8 
           4010      5.24419e+8 
           4030      4.93688e+8 
           4050      5.13675e+8 
           4070      5.02658e+8 
           4090      4.50145e+8 
           4110      3.80942e+8 
           4130      4.71284e+8 
           4150      4.69181e+8 
           4170      4.66099e+8 
           4190      4.60094e+8 
           4210      4.52842e+8 
           4230      4.45644e+8 
           4250      4.38623e+8 
           4270      4.31052e+8 
           4290       4.2391e+8 
           4310      4.14226e+8 
           4330      3.62827e+8 
           4350      3.25892e+8 
           4370      3.93914e+8 
           4390      3.81106e+8 
           4410      3.86878e+8 
           4430      3.79515e+8 
           4450       3.7554e+8 
           4470      3.53144e+8 
           4490      3.63703e+8 
           4510      3.58928e+8 
           4530      3.53563e+8 
           4550      3.48314e+8 
           4570      3.43162e+8 
           4590      3.38121e+8 
           4610      3.33173e+8 
           4630      3.28262e+8 
           4650      3.23459e+8 
           4670      3.18811e+8 
           4690      3.14214e+8 
           4710      3.05913e+8 
           4730      3.05099e+8 
           4750      3.00632e+8 
           4770      2.96593e+8 
           4790      2.92365e+8 
           4810      2.87301e+8 
           4830      2.81147e+8 
           4850      2.52071e+8 
           4870      2.20555e+8 
           4890      2.67941e+8 
           4910      2.67263e+8 
           4930      2.58403e+8 
           4950       2.6127e+8 
           4970      2.57692e+8 
           4990      2.54163e+8 
           5010      2.47725e+8 
           5030      2.47278e+8 
           5050      2.42427e+8 
           5070      2.40665e+8 
           5090      2.37425e+8 
           5110      2.34229e+8 
           5130      2.31103e+8 
           5150      2.28019e+8 
           5170      2.25004e+8 
           5190      2.22028e+8 
           5210       2.1905e+8 
           5230      2.16221e+8 
           5250      2.13401e+8 
           5270      2.10605e+8 
           5290      2.07871e+8 
           5310      2.05186e+8 
           5330      2.02535e+8 
           5350      1.99904e+8 
           5370       1.9736e+8 
           5390      1.94848e+8 
           5410      1.92354e+8 
           5430      1.89892e+8 
           5450      1.87499e+8 
           5470      1.85136e+8 
           5490      1.82814e+8 
           5510      1.80522e+8 
           5530       1.7827e+8 
           5550      1.76046e+8 
           5570      1.73861e+8 
           5590      1.71715e+8 
           5610      1.69583e+8 
           5630      1.67512e+8 
           5650      1.65432e+8 
           5670      1.63423e+8 
           5690      1.61438e+8 
           5710      1.59489e+8 
           5730      1.57563e+8 
           5750       1.5566e+8 
           5770       1.5379e+8 
           5790      1.51943e+8 
           5810      1.50129e+8 
           5830      1.48336e+8 
           5850      1.46575e+8 
           5870      1.40854e+8 
           5890      1.42973e+8 
           5910      1.41446e+8 
           5930      1.39786e+8 
           5950      1.38146e+8 
           5970      1.36545e+8 
           5990      1.34952e+8 
           6010      1.33388e+8 
           6030      1.31852e+8 
           6050      1.30333e+8 
           6070      1.28832e+8 
           6090      1.27357e+8 
           6110      1.25909e+8 
           6130      1.24467e+8 
           6150      1.23051e+8 
           6170      1.21661e+8 
           6190      1.20296e+8 
           6210      1.18937e+8 
           6230      1.17601e+8 
           6250      1.16291e+8 
           6270      1.14994e+8 
           6290      1.13712e+8 
           6310      1.12453e+8 
           6330      1.11207e+8 
           6350      1.09938e+8 
           6370      1.08757e+8 
           6390      1.07579e+8 
           6410      1.06404e+8 
           6430      1.05242e+8 
           6450      1.04101e+8 
           6470      1.02973e+8 
           6490      1.01856e+8 
           6510      1.00538e+8 
           6530      9.89159e+7 
           6550      9.30529e+7 
           6570      8.13027e+7 
           6590      9.49282e+7 
           6610       9.5122e+7 
           6630      9.44204e+7 
           6650      9.35211e+7 
           6670      9.17502e+7 
           6690      9.08068e+7 
           6710      9.06009e+7 
           6730      8.96557e+7 
           6750        8.872e+7 
           6770      8.78021e+7 
           6790      8.68852e+7 
           6810      8.59857e+7 
           6830      8.51033e+7 
           6850      8.42297e+7 
           6870      8.33648e+7 
           6890      8.25086e+7 
           6910      8.16687e+7 
           6930      8.08293e+7 
           6950      8.00138e+7 
           6970      7.91986e+7 
           6990       7.8399e+7 
           7010      7.76073e+7 
           7030       7.6831e+7 
           7050      7.60546e+7 
           7070      7.42961e+7 
           7090      7.45483e+7 
           7110      7.38061e+7 
           7130       7.3074e+7 
           7150      7.23503e+7 
           7170      7.16292e+7 
           7190      7.09303e+7 
           7210      7.02337e+7 
           7230      6.95134e+7 
           7250       6.8866e+7 
           7270      6.81946e+7 
           7290      6.71241e+7 
           7310      6.68701e+7 
           7330      6.62294e+7 
           7350      6.55899e+7 
           7370      6.49583e+7 
           7390      6.43347e+7 
           7410      6.37183e+7 
           7430      6.31089e+7 
           7450      6.25132e+7 
           7470      6.19183e+7 
           7490      6.13309e+7 
           7510      6.07375e+7 
           7530      6.01774e+7 
           7550      5.96105e+7 
           7570      5.90507e+7 
           7590      5.84973e+7 
           7610      5.79502e+7 
           7630        5.741e+7 
           7650      5.68759e+7 
           7670      5.63478e+7 
           7690      5.58258e+7 
           7710      5.53103e+7 
           7730      5.48006e+7 
           7750      5.42967e+7 
           7770      5.37829e+7 
           7790      5.33072e+7 
           7810      5.28029e+7 
           7830      5.23394e+7 
           7850       5.1892e+7 
           7870      5.14212e+7 
           7890      5.09454e+7 
           7910      5.05003e+7 
           7930      5.00458e+7 
           7950      4.95952e+7 
           7970      4.91384e+7 
           7990      4.87068e+7 
           8010      4.82766e+7 
           8030       4.7843e+7 
           8050      4.74126e+7 
           8070      4.69928e+7 
           8090      4.65368e+7 
           8110       4.6138e+7 
           8130      4.57597e+7 
           8150       4.5317e+7 
           8170      4.49616e+7 
           8190      4.45463e+7 
           8210      4.40674e+7 
           8230      4.37689e+7 
           8250      4.34103e+7 
           8270      4.29158e+7 
           8290      4.26569e+7 
           8310      4.23067e+7 
           8330      4.19388e+7 
           8350       4.1456e+7 
           8370      4.11753e+7 
           8390      4.08573e+7 
           8410      4.04655e+7 
           8430       4.0067e+7 
           8450      3.95906e+7 
           8470      3.91759e+7 
           8490      3.90433e+7 
           8510      3.82883e+7 
           8530      3.85382e+7 
           8550      3.69589e+7 
           8570      3.84296e+7 
           8590      3.65068e+7 
