# Kurucz ODFNEW /NOVER (2003)
# teff = 10000 K (value for the effective temperature for the model. Temperatures are given in K)
# logg = 4.5 log(cm/s2) (value for Log(G) for the model.)
# meta = -0.5  (value for the Metallicity for the model.)
# lh = 1.25  (l/Hp where l is the  mixing length of the convective element and Hp is the pressure scale height)
# vtur = 2 km/s (Microturbulence velocity)
# alpha = 0  (Alpha)
#
# column 1: WAVELENGTH (ANGSTROM), Wavelength in Angstrom
# column 2: FLUX (ERG/CM2/S/A), Flux in erg/cm2/s/A
            264     6.34963e-23 
          268.5     2.53032e-22 
          273.5     1.04277e-21 
          278.5     4.05283e-21 
            284     1.70373e-20 
            290     7.68286e-20 
            296     3.26074e-19 
            301     1.04427e-18 
            308     5.00736e-18 
            318     4.18104e-17 
            328      3.0749e-16 
            338     2.01107e-15 
            348      1.1821e-14 
            357     5.34549e-14 
            366     2.24706e-13 
            375     8.80442e-13 
            385     3.72345e-12 
            395     1.46145e-11 
            405     5.35701e-11 
            414      1.6334e-10 
            422     4.22436e-10 
            430      1.05307e-9 
            441      3.49976e-9 
            451      9.89271e-9 
            460      2.42257e-8 
            470      6.28519e-8 
            480       1.5646e-7 
            490      3.74878e-7 
            500      8.65995e-7 
            506      1.53878e-6 
            512       2.5582e-6 
            520       4.6931e-6 
            530      9.78021e-6 
            540       1.9715e-5 
            550      3.88959e-5 
            560      7.46623e-5 
            570     0.000139908 
            580     0.000255703 
            590     0.000459489 
            600     0.000807206 
            610      0.00139079 
            620      0.00235191 
            630      0.00390796 
            640      0.00638674 
            650       0.0102729 
            658       0.0148599 
            665       0.0203663 
            675        0.031563 
            685       0.0482352 
            695       0.0727775 
            705        0.108465 
            716         0.16596 
            726        0.241344 
            735        0.334815 
            745        0.476911 
            755        0.672532 
            765        0.939466 
            775         1.29999 
            785         1.78276 
            795         2.42278 
            805         3.26649 
            815         4.36835 
            825         5.79852 
            835          7.6386 
            845         9.99195 
            855         12.9784 
            865         16.7448 
            875         21.4654 
            885         27.3534 
            895         34.6458 
            905         43.6206 
            915         298.634 
            925         2101.89 
            935         3700.26 
            945          6675.9 
            955         9947.12 
            965         13292.8 
            975         10297.8 
            985         19616.1 
            995         21950.2 
           1005         26803.8 
           1015         28579.8 
           1025         18018.5 
           1035         35906.6 
           1045         45527.3 
           1055         52253.5 
           1065         57461.4 
           1075         66969.4 
           1085         75312.3 
           1095         81782.2 
           1105          219526 
           1115      8.74836e+6 
           1125      1.35639e+7 
           1135       1.7571e+7 
           1145      1.45858e+7 
           1155      1.33892e+7 
           1165       9.9882e+6 
           1175       4.1547e+6 
           1185      1.64696e+6 
           1195          253581 
           1205          192795 
           1215         53696.2 
           1225          202606 
           1235          424493 
           1245      1.06848e+6 
           1255      7.50816e+6 
           1265      1.65128e+7 
           1275      3.87338e+7 
           1285      6.66134e+7 
           1295      7.74407e+7 
           1305      5.52056e+7 
           1315      9.19654e+7 
           1325       1.0656e+8 
           1335      1.08297e+8 
           1345      1.28411e+8 
           1355      1.19066e+8 
           1365      1.10439e+8 
           1375       1.1665e+8 
           1385      1.07094e+8 
           1395      1.09827e+8 
           1405      1.26176e+8 
           1415      1.31284e+8 
           1425       1.4174e+8 
           1435      1.27754e+8 
           1442      1.44926e+8 
           1447      1.52667e+8 
           1455      1.54263e+8 
           1465      1.42205e+8 
           1475      1.37805e+8 
           1485      1.41325e+8 
           1495      1.50503e+8 
           1505      1.52345e+8 
           1512      1.42435e+8 
           1517      1.52642e+8 
           1525      1.43554e+8 
           1535      1.41767e+8 
           1545      1.53288e+8 
           1555      1.29751e+8 
           1565       1.1189e+8 
           1575      1.33942e+8 
           1585      1.46196e+8 
           1595      1.53474e+8 
           1605      1.46478e+8 
           1615      1.46606e+8 
           1625      1.32757e+8 
           1635      1.37548e+8 
           1645      1.48421e+8 
           1655      1.22273e+8 
           1665      1.45896e+8 
           1672      1.17031e+8 
           1677      1.37145e+8 
           1685      1.48981e+8 
           1695      1.35611e+8 
           1705       1.3361e+8 
           1715      1.35771e+8 
           1725      1.33303e+8 
           1735      1.39329e+8 
           1745       1.3525e+8 
           1755      1.43988e+8 
           1765      1.26761e+8 
           1775      1.39577e+8 
           1785      1.37805e+8 
           1795      1.46025e+8 
           1805      1.39162e+8 
           1815      1.37987e+8 
           1825      1.32487e+8 
           1835      1.30275e+8 
           1845      1.21993e+8 
           1855      1.26648e+8 
           1865      1.27341e+8 
           1875      1.31162e+8 
           1885      1.30548e+8 
           1895      1.28849e+8 
           1905      1.23721e+8 
           1915      1.26798e+8 
           1925      1.27568e+8 
           1935      1.23738e+8 
           1945      1.29718e+8 
           1955      1.27941e+8 
           1967      1.29501e+8 
           1976      1.26577e+8 
           1984      1.24123e+8 
           1995      1.21499e+8 
           2005      1.19344e+8 
           2015      1.15156e+8 
           2025      1.14738e+8 
           2035      1.17598e+8 
           2045      1.19558e+8 
           2055      1.14865e+8 
           2065       1.1372e+8 
           2074       1.1686e+8 
           2078      1.19167e+8 
           2085      1.18334e+8 
           2095       1.1446e+8 
           2105      1.12712e+8 
           2115       1.1239e+8 
           2125      1.12669e+8 
           2135      1.01228e+8 
           2145      1.09735e+8 
           2155      1.09254e+8 
           2165      1.04663e+8 
           2175      1.03376e+8 
           2185      1.03458e+8 
           2195      1.08006e+8 
           2205      1.03867e+8 
           2215      9.70498e+7 
           2225      9.63849e+7 
           2235      1.04243e+8 
           2245      9.62001e+7 
           2255      9.44523e+7 
           2265      9.41195e+7 
           2275       9.8935e+7 
           2285      1.00813e+8 
           2295        9.538e+7 
           2305      9.44762e+7 
           2315      9.24105e+7 
           2325      9.24605e+7 
           2335      8.99981e+7 
           2345      8.37584e+7 
           2355      9.10165e+7 
           2365      8.41394e+7 
           2375      8.76266e+7 
           2385      7.93101e+7 
           2395      8.51447e+7 
           2405      8.19044e+7 
           2415      8.31783e+7 
           2425      8.60556e+7 
           2435      8.22178e+7 
           2445      8.66008e+7 
           2455      8.37777e+7 
           2465      8.31304e+7 
           2475      8.01291e+7 
           2485      8.37559e+7 
           2495      8.11917e+7 
           2505      8.68425e+7 
           2513      8.12855e+7 
           2518      8.15928e+7 
           2525      7.70816e+7 
           2535       7.6293e+7 
           2545      7.62995e+7 
           2555       8.0199e+7 
           2565      7.98497e+7 
           2575       8.3634e+7 
           2585      8.37718e+7 
           2595      8.32002e+7 
           2605      8.01199e+7 
           2615       7.9635e+7 
           2625      8.16811e+7 
           2635       8.1963e+7 
           2645      8.75155e+7 
           2655      8.64193e+7 
           2665       8.1974e+7 
           2675      8.39262e+7 
           2685      8.41801e+7 
           2695      8.11135e+7 
           2705      8.18329e+7 
           2715      7.89518e+7 
           2725      7.90735e+7 
           2735      8.28276e+7 
           2745      7.47157e+7 
           2755      7.49039e+7 
           2765      7.71127e+7 
           2775      8.00754e+7 
           2785      7.87971e+7 
           2795       6.6699e+7 
           2805      7.22382e+7 
           2815      8.07635e+7 
           2825      8.05373e+7 
           2835      7.82171e+7 
           2845      7.60299e+7 
           2855      7.44398e+7 
           2865      7.71567e+7 
           2875      7.56547e+7 
           2885      7.69597e+7 
           2895      7.55794e+7 
           2910      7.95669e+7 
           2930      7.67861e+7 
           2950      7.64195e+7 
           2970      7.64486e+7 
           2990      7.62595e+7 
           3010      7.67754e+7 
           3030      7.61099e+7 
           3050      7.52932e+7 
           3070      7.43514e+7 
           3090      7.44771e+7 
           3110      7.33041e+7 
           3130      7.26856e+7 
           3150      7.27527e+7 
           3170      7.21263e+7 
           3190      7.01067e+7 
           3210      7.07165e+7 
           3230      6.95365e+7 
           3250      6.96535e+7 
           3270      6.96567e+7 
           3290      6.95432e+7 
           3310      6.93243e+7 
           3330      6.81408e+7 
           3350      6.70711e+7 
           3370      6.69375e+7 
           3390      6.62254e+7 
           3410      6.65556e+7 
           3430      6.60827e+7 
           3450      6.56289e+7 
           3470      6.49434e+7 
           3490      6.45507e+7 
           3510      6.44593e+7 
           3530      6.41754e+7 
           3550      6.37981e+7 
           3570      6.29671e+7 
           3590       6.2551e+7 
           3610      6.21229e+7 
           3630      6.17261e+7 
           3640      6.14813e+7 
           3650      6.19592e+7 
           3670      6.17165e+7 
           3690      5.99979e+7 
           3710      5.92433e+7 
           3730      5.80032e+7 
           3750      6.91896e+7 
           3770      7.28813e+7 
           3790      8.98018e+7 
           3810       1.0686e+8 
           3830      8.46433e+7 
           3850      1.19961e+8 
           3870       1.3915e+8 
           3890      7.25023e+7 
           3910      1.39161e+8 
           3930      1.51617e+8 
           3950      1.38634e+8 
           3970      6.95691e+7 
           3990      1.30515e+8 
           4010      1.52532e+8 
           4030      1.53337e+8 
           4050      1.51052e+8 
           4070      1.41605e+8 
           4090      1.01807e+8 
           4110      7.65587e+7 
           4130      1.31579e+8 
           4150      1.40857e+8 
           4170      1.40844e+8 
           4190      1.39631e+8 
           4210      1.37974e+8 
           4230      1.35316e+8 
           4250       1.3365e+8 
           4270      1.30884e+8 
           4290      1.28072e+8 
           4310      1.18579e+8 
           4330      8.26844e+7 
           4350      6.99704e+7 
           4370      1.12775e+8 
           4390      1.18584e+8 
           4410      1.19263e+8 
           4430       1.1844e+8 
           4450      1.17724e+8 
           4470      1.16063e+8 
           4490      1.13609e+8 
           4510      1.13272e+8 
           4530      1.11683e+8 
           4550      1.09573e+8 
           4570      1.09166e+8 
           4590      1.07357e+8 
           4610      1.06777e+8 
           4630       1.0477e+8 
           4650      1.04054e+8 
           4670      1.02686e+8 
           4690      1.00863e+8 
           4710      9.81268e+7 
           4730      9.85953e+7 
           4750      9.72692e+7 
           4770      9.57996e+7 
           4790      9.40769e+7 
           4810      9.14252e+7 
           4830      8.53067e+7 
           4850      6.28873e+7 
           4870      5.09477e+7 
           4890      7.93662e+7 
           4910      8.53654e+7 
           4930       8.5567e+7 
           4950      8.56134e+7 
           4970      8.49776e+7 
           4990       8.3974e+7 
           5010      8.25199e+7 
           5030      8.20928e+7 
           5050       8.0822e+7 
           5070      8.03145e+7 
           5090      7.93734e+7 
           5110      7.84287e+7 
           5130       7.7512e+7 
           5150      7.65234e+7 
           5170      7.49304e+7 
           5190      7.42883e+7 
           5210       7.3905e+7 
           5230      7.27734e+7 
           5250      7.22924e+7 
           5270      7.10529e+7 
           5290        7.065e+7 
           5310      6.96137e+7 
           5330      6.88642e+7 
           5350      6.83068e+7 
           5370      6.74606e+7 
           5390      6.67262e+7 
           5410      6.58837e+7 
           5430      6.52255e+7 
           5450      6.45612e+7 
           5470      6.38381e+7 
           5490      6.31513e+7 
           5510       6.2458e+7 
           5530      6.17249e+7 
           5550       6.1112e+7 
           5570      6.04287e+7 
           5590      5.97728e+7 
           5610      5.91499e+7 
           5630        5.852e+7 
           5650       5.7868e+7 
           5670      5.72402e+7 
           5690      5.66477e+7 
           5710      5.60459e+7 
           5730      5.54626e+7 
           5750      5.48575e+7 
           5770       5.4281e+7 
           5790      5.36999e+7 
           5810      5.31422e+7 
           5830      5.25853e+7 
           5850       5.2037e+7 
           5870      5.14316e+7 
           5890      5.07495e+7 
           5910      5.04228e+7 
           5930      4.99065e+7 
           5950      4.93619e+7 
           5970      4.88711e+7 
           5990      4.83416e+7 
           6010      4.78556e+7 
           6030      4.73894e+7 
           6050      4.69027e+7 
           6070      4.64377e+7 
           6090      4.59666e+7 
           6110      4.54986e+7 
           6130      4.50278e+7 
           6150      4.44187e+7 
           6170      4.41193e+7 
           6190      4.37078e+7 
           6210      4.32704e+7 
           6230      4.28329e+7 
           6250      4.23355e+7 
           6270      4.20016e+7 
           6290      4.15873e+7 
           6310      4.11595e+7 
           6330      4.07682e+7 
           6350      4.01754e+7 
           6370      3.98651e+7 
           6390      3.95753e+7 
           6410      3.91408e+7 
           6430      3.87209e+7 
           6450      3.82222e+7 
           6470      3.78503e+7 
           6490        3.729e+7 
           6510      3.65341e+7 
           6530      3.48953e+7 
           6550      2.94288e+7 
           6570       2.3899e+7 
           6590      3.24793e+7 
           6610      3.44878e+7 
           6630      3.47916e+7 
           6650      3.46926e+7 
           6670      3.44628e+7 
           6690      3.41998e+7 
           6710      3.39352e+7 
           6730      3.36456e+7 
           6750      3.33415e+7 
           6770      3.30503e+7 
           6790      3.27448e+7 
           6810      3.24439e+7 
           6830      3.21378e+7 
           6850      3.18469e+7 
           6870      3.15595e+7 
           6890      3.12726e+7 
           6910      3.09877e+7 
           6930      3.07032e+7 
           6950      3.04293e+7 
           6970      3.01541e+7 
           6990      2.98854e+7 
           7010      2.95932e+7 
           7030       2.9345e+7 
           7050       2.9081e+7 
           7070       2.8827e+7 
           7090      2.85747e+7 
           7110       2.8239e+7 
           7130      2.80563e+7 
           7150      2.78082e+7 
           7170      2.75734e+7 
           7190      2.73292e+7 
           7210      2.70908e+7 
           7230      2.68517e+7 
           7250       2.6607e+7 
           7270      2.63889e+7 
           7290      2.61528e+7 
           7310      2.59274e+7 
           7330      2.57069e+7 
           7350      2.54884e+7 
           7370      2.52705e+7 
           7390      2.50504e+7 
           7410      2.48289e+7 
           7430      2.45958e+7 
           7450      2.43994e+7 
           7470      2.41663e+7 
           7490      2.39804e+7 
           7510       2.3788e+7 
           7530      2.35934e+7 
           7550      2.33985e+7 
           7570      2.32007e+7 
           7590      2.30067e+7 
           7610       2.2815e+7 
           7630      2.26224e+7 
           7650      2.24316e+7 
           7670      2.22411e+7 
           7690      2.20593e+7 
           7710       2.1874e+7 
           7730      2.16992e+7 
           7750      2.15196e+7 
           7770      2.10408e+7 
           7790      2.11682e+7 
           7810      2.09957e+7 
           7830      2.08179e+7 
           7850      2.06398e+7 
           7870      2.04371e+7 
           7890      2.02453e+7 
           7910        2.014e+7 
           7930      1.99846e+7 
           7950      1.97942e+7 
           7970      1.96701e+7 
           7990      1.94236e+7 
           8010      1.93532e+7 
           8030      1.91967e+7 
           8050      1.90462e+7 
           8070      1.88917e+7 
           8090       1.8742e+7 
           8110      1.85947e+7 
           8130      1.84498e+7 
           8150      1.83038e+7 
           8170      1.81595e+7 
           8190      1.79782e+7 
           8210      1.79003e+7 
           8230        1.776e+7 
           8250      1.76408e+7 
           8270       1.7561e+7 
           8290      1.74287e+7 
           8310      1.73089e+7 
           8330      1.71401e+7 
           8350      1.70581e+7 
           8370      1.69321e+7 
           8390      1.67947e+7 
           8410      1.66553e+7 
           8430      1.65074e+7 
           8450      1.62489e+7 
           8470      1.61245e+7 
           8490      1.61202e+7 
           8510      1.56388e+7 
           8530      1.59362e+7 
           8550      1.49414e+7 
           8570      1.58935e+7 
           8590      1.49695e+7 
           8610      1.46856e+7 
           8630      1.58387e+7 
           8650      1.51125e+7 
           8670      1.30612e+7 
           8690      1.53588e+7 
           8710      1.59086e+7 
           8730      1.51146e+7 
           8750      1.21641e+7 
           8770      1.42849e+7 
           8790      1.57544e+7 
           8810      1.59621e+7 
           8830      1.54081e+7 
           8850      1.33948e+7 
           8870      1.15106e+7 
           8890      1.44071e+7 
           8910      1.54174e+7 
           8930      1.56517e+7 
           8950       1.5619e+7 
           8970      1.51865e+7 
           8990      1.40623e+7 
           9010      1.11455e+7 
           9030      1.20645e+7 
           9050      1.41419e+7 
           9070      1.46822e+7 
           9090      1.47463e+7 
           9110      1.48831e+7 
           9130      1.48383e+7 
           9150      1.46853e+7 
