# Kurucz ODFNEW /NOVER (2003)
# teff = 10000 K (value for the effective temperature for the model. Temperatures are given in K)
# logg = 4 log(cm/s2) (value for Log(G) for the model.)
# meta = 0.2  (value for the Metallicity for the model.)
# lh = 1.25  (l/Hp where l is the  mixing length of the convective element and Hp is the pressure scale height)
# vtur = 2 km/s (Microturbulence velocity)
# alpha = 0  (Alpha)
#
# column 1: WAVELENGTH (ANGSTROM), Wavelength in Angstrom
# column 2: FLUX (ERG/CM2/S/A), Flux in erg/cm2/s/A
          273.5     4.29917e-23 
          278.5     1.80938e-22 
            284     7.63632e-22 
            290     3.38017e-21 
            296     1.40551e-20 
            301     4.44211e-20 
            308      2.1006e-19 
            318     1.72919e-18 
            328     1.26241e-17 
            338     8.25419e-17 
            348     4.89172e-16 
            357     2.24621e-15 
            366     9.59794e-15 
            375     3.83333e-14 
            385     1.66414e-13 
            395     6.73248e-13 
            405     2.55264e-12 
            414     8.03723e-12 
            422        2.14e-11 
            430     5.48692e-11 
            441     1.90725e-10 
            451     5.61776e-10 
            460       1.4276e-9 
            470      3.85751e-9 
            480      1.00031e-8 
            490      2.50028e-8 
            500      6.01953e-8 
            506      1.22841e-7 
            512      2.16184e-7 
            520      4.04775e-7 
            530      8.66746e-7 
            540       1.7905e-6 
            550      3.63429e-6 
            560      7.17792e-6 
            570      1.38401e-5 
            580      2.59645e-5 
            590      4.80419e-5 
            600      8.67231e-5 
            610      0.00015384 
            620     0.000267592 
            630     0.000457021 
            640      0.00076685 
            650      0.00126742 
            658      0.00187371 
            665      0.00261566 
            675      0.00416174 
            685      0.00652818 
            695       0.0101033 
            705       0.0154345 
            716        0.024279 
            726       0.0361658 
            735       0.0512592 
            745       0.0747316 
            755        0.107879 
            765         0.15411 
            775        0.218006 
            785        0.305498 
            795        0.424042 
            805        0.583908 
            815         0.79733 
            825         1.07967 
            835         1.45013 
            845         1.93381 
            855         2.56007 
            865         3.36518 
            875         4.39257 
            885         5.69742 
            895         7.34247 
            905         9.40415 
            915         222.278 
            925         1584.01 
            935         2464.23 
            945         3756.01 
            955         5384.77 
            965         6943.33 
            975         6386.72 
            985         9293.35 
            995         10058.8 
           1005         12610.1 
           1015         14574.4 
           1025         12325.3 
           1035         18792.1 
           1045         22317.3 
           1055         25580.8 
           1065         27863.1 
           1075         32912.6 
           1085         37320.1 
           1095         40072.6 
           1105           66730 
           1115          424115 
           1125          783865 
           1135      1.34216e+6 
           1145      1.26186e+6 
           1155      1.63722e+6 
           1165      1.72709e+6 
           1175      1.25165e+6 
           1185          917205 
           1195          176577 
           1205          180394 
           1215         40114.5 
           1225          184691 
           1235          409302 
           1245      1.42754e+6 
           1255      1.42031e+7 
           1265      1.57526e+7 
           1275      3.89006e+7 
           1285       6.1626e+7 
           1295      5.80811e+7 
           1305      2.45877e+7 
           1315      6.34758e+7 
           1325      7.90078e+7 
           1335      6.88131e+7 
           1345      9.36688e+7 
           1355      8.74776e+7 
           1365      7.53894e+7 
           1375      8.52681e+7 
           1385      7.98365e+7 
           1395      8.48405e+7 
           1405      8.94463e+7 
           1415      8.55693e+7 
           1425      9.94148e+7 
           1435      8.65432e+7 
           1442      1.01926e+8 
           1447      1.12081e+8 
           1455      1.12154e+8 
           1465      1.00997e+8 
           1475      9.60237e+7 
           1485      1.05361e+8 
           1495      1.16891e+8 
           1505      1.17961e+8 
           1512      1.01432e+8 
           1517      1.15624e+8 
           1525      1.07397e+8 
           1535       1.0529e+8 
           1545      1.33099e+8 
           1555      1.04056e+8 
           1565       9.0096e+7 
           1575      1.14558e+8 
           1585      1.33163e+8 
           1595       1.4454e+8 
           1605      1.34925e+8 
           1615      1.32621e+8 
           1625      1.15506e+8 
           1635      1.20891e+8 
           1645      1.34835e+8 
           1655      1.07192e+8 
           1665      1.31181e+8 
           1672      8.32593e+7 
           1677      1.24622e+8 
           1685      1.42121e+8 
           1695      1.26563e+8 
           1705      1.19396e+8 
           1715      1.17871e+8 
           1725       1.1588e+8 
           1735      1.26351e+8 
           1745      1.23575e+8 
           1755      1.39866e+8 
           1765      1.12947e+8 
           1775      1.29916e+8 
           1785      1.28902e+8 
           1795      1.45698e+8 
           1805      1.35948e+8 
           1815      1.35208e+8 
           1825      1.28279e+8 
           1835      1.22655e+8 
           1845      1.11292e+8 
           1855      1.19401e+8 
           1865      1.20561e+8 
           1875      1.26779e+8 
           1885      1.23964e+8 
           1895      1.24243e+8 
           1905      1.16465e+8 
           1915      1.23459e+8 
           1925      1.24884e+8 
           1935      1.19572e+8 
           1945      1.27239e+8 
           1955      1.24896e+8 
           1967      1.31497e+8 
           1976      1.30398e+8 
           1984      1.24965e+8 
           1995      1.20174e+8 
           2005      1.18585e+8 
           2015      1.11472e+8 
           2025      1.13057e+8 
           2035      1.15696e+8 
           2045      1.21306e+8 
           2055      1.14267e+8 
           2065      1.12015e+8 
           2074      1.19776e+8 
           2078      1.22727e+8 
           2085      1.20284e+8 
           2095      1.15181e+8 
           2105      1.10927e+8 
           2115      1.10857e+8 
           2125       1.1312e+8 
           2135      9.41116e+7 
           2145       1.0632e+8 
           2155      1.08411e+8 
           2165      1.02179e+8 
           2175      1.00214e+8 
           2185      1.00396e+8 
           2195      1.06653e+8 
           2205      1.01644e+8 
           2215      9.21816e+7 
           2225      8.96579e+7 
           2235      1.00804e+8 
           2245      8.97942e+7 
           2255      8.70511e+7 
           2265      8.88249e+7 
           2275       9.4262e+7 
           2285      9.74865e+7 
           2295      9.13602e+7 
           2305       8.8442e+7 
           2315      8.44952e+7 
           2325      8.37978e+7 
           2335      7.77128e+7 
           2345      7.16461e+7 
           2355      8.34901e+7 
           2365      7.18606e+7 
           2375      7.71208e+7 
           2385      6.65873e+7 
           2395       7.4761e+7 
           2405      7.03434e+7 
           2415      7.30693e+7 
           2425      7.90856e+7 
           2435      7.52668e+7 
           2445      8.09606e+7 
           2455      7.75771e+7 
           2465      7.73395e+7 
           2475      7.38806e+7 
           2485      7.83081e+7 
           2495      7.51277e+7 
           2505      8.40809e+7 
           2513      7.39181e+7 
           2518      7.59124e+7 
           2525      7.00855e+7 
           2535      6.91936e+7 
           2545      6.87963e+7 
           2555      7.39779e+7 
           2565      7.32361e+7 
           2575      7.90546e+7 
           2585      7.87091e+7 
           2595      7.65708e+7 
           2605      7.29806e+7 
           2615       7.2104e+7 
           2625      7.73838e+7 
           2635      7.76711e+7 
           2645      8.71547e+7 
           2655       8.5671e+7 
           2665      7.72531e+7 
           2675      8.13517e+7 
           2685        8.001e+7 
           2695      7.69536e+7 
           2705       7.9202e+7 
           2715      7.48938e+7 
           2725      7.58063e+7 
           2735      8.19463e+7 
           2745       6.8391e+7 
           2755      6.91661e+7 
           2765      7.13326e+7 
           2775      7.73113e+7 
           2785      7.51737e+7 
           2795      5.53567e+7 
           2805       6.3294e+7 
           2815      7.86146e+7 
           2825      8.03202e+7 
           2835      7.65484e+7 
           2845      7.35258e+7 
           2855      7.11259e+7 
           2865       7.6404e+7 
           2875      7.38179e+7 
           2885      7.53393e+7 
           2895      7.18485e+7 
           2910      7.99807e+7 
           2930      7.63912e+7 
           2950      7.61164e+7 
           2970      7.72345e+7 
           2990      7.75068e+7 
           3010      7.86757e+7 
           3030      7.74066e+7 
           3050      7.63705e+7 
           3070      7.53747e+7 
           3090      7.62723e+7 
           3110      7.40987e+7 
           3130      7.35855e+7 
           3150       7.4503e+7 
           3170      7.37758e+7 
           3190      7.08619e+7 
           3210      7.21534e+7 
           3230      7.04862e+7 
           3250      7.10302e+7 
           3270      7.09497e+7 
           3290      7.12939e+7 
           3310      7.13427e+7 
           3330      6.96628e+7 
           3350      6.84743e+7 
           3370      6.83008e+7 
           3390      6.76547e+7 
           3410      6.85481e+7 
           3430      6.81737e+7 
           3450       6.7547e+7 
           3470      6.65516e+7 
           3490      6.60848e+7 
           3510      6.65234e+7 
           3530      6.64459e+7 
           3550      6.62404e+7 
           3570      6.49357e+7 
           3590      6.44948e+7 
           3610      6.41175e+7 
           3630      6.37503e+7 
           3640      6.33436e+7 
           3650      6.45099e+7 
           3670      6.40856e+7 
           3690       6.1658e+7 
           3710      6.25168e+7 
           3730      6.36489e+7 
           3750      8.08967e+7 
           3770      8.70939e+7 
           3790      1.10049e+8 
           3810       1.2908e+8 
           3830      1.00605e+8 
           3850      1.40973e+8 
           3870      1.60068e+8 
           3890      8.69644e+7 
           3910      1.57731e+8 
           3930      1.61406e+8 
           3950      1.57127e+8 
           3970      8.24049e+7 
           3990      1.50061e+8 
           4010      1.63389e+8 
           4030      1.61818e+8 
           4050      1.60352e+8 
           4070      1.53354e+8 
           4090      1.19752e+8 
           4110      9.00024e+7 
           4130      1.43916e+8 
           4150      1.49834e+8 
           4170      1.47774e+8 
           4190      1.46247e+8 
           4210      1.44637e+8 
           4230      1.41637e+8 
           4250      1.39579e+8 
           4270      1.36332e+8 
           4290      1.35468e+8 
           4310      1.27732e+8 
           4330      9.58998e+7 
           4350      8.09821e+7 
           4370      1.23674e+8 
           4390       1.2477e+8 
           4410      1.24492e+8 
           4430      1.23115e+8 
           4450      1.23053e+8 
           4470      1.21155e+8 
           4490      1.18095e+8 
           4510      1.18225e+8 
           4530      1.16124e+8 
           4550      1.13325e+8 
           4570      1.13948e+8 
           4590      1.11393e+8 
           4610      1.11926e+8 
           4630      1.08617e+8 
           4650      1.08948e+8 
           4670      1.07234e+8 
           4690      1.04888e+8 
           4710        1.016e+8 
           4730      1.03223e+8 
           4750      1.01846e+8 
           4770       1.0057e+8 
           4790      9.90684e+7 
           4810      9.67873e+7 
           4830      9.25913e+7 
           4850      7.15694e+7 
           4870      5.74047e+7 
           4890      8.72325e+7 
           4910      9.06144e+7 
           4930      8.95304e+7 
           4950      8.95125e+7 
           4970      8.89186e+7 
           4990      8.75068e+7 
           5010      8.52156e+7 
           5030      8.50083e+7 
           5050      8.34056e+7 
           5070      8.34084e+7 
           5090      8.24256e+7 
           5110      8.13257e+7 
           5130      8.04438e+7 
           5150      7.90659e+7 
           5170      7.73589e+7 
           5190      7.66603e+7 
           5210      7.63435e+7 
           5230      7.48008e+7 
           5250      7.48497e+7 
           5270      7.28096e+7 
           5290      7.32038e+7 
           5310      7.16219e+7 
           5330      7.08666e+7 
           5350      7.08353e+7 
           5370      6.98213e+7 
           5390        6.905e+7 
           5410      6.79457e+7 
           5430      6.73886e+7 
           5450      6.69139e+7 
           5470      6.60868e+7 
           5490      6.54137e+7 
           5510      6.46444e+7 
           5530      6.38721e+7 
           5550       6.3327e+7 
           5570      6.25852e+7 
           5590      6.19429e+7 
           5610       6.1368e+7 
           5630      6.07022e+7 
           5650      5.99073e+7 
           5670      5.92675e+7 
           5690      5.87143e+7 
           5710      5.81026e+7 
           5730      5.75176e+7 
           5750      5.68299e+7 
           5770      5.62454e+7 
           5790       5.5581e+7 
           5810      5.50316e+7 
           5830       5.4453e+7 
           5850      5.38974e+7 
           5870       5.3229e+7 
           5890      5.23643e+7 
           5910      5.21798e+7 
           5930      5.16613e+7 
           5950      5.09634e+7 
           5970      5.05285e+7 
           5990      4.98882e+7 
           6010      4.94451e+7 
           6030      4.90088e+7 
           6050      4.84558e+7 
           6070      4.80011e+7 
           6090      4.75045e+7 
           6110      4.70093e+7 
           6130      4.64985e+7 
           6150      4.54795e+7 
           6170      4.55324e+7 
           6190      4.51482e+7 
           6210      4.46928e+7 
           6230      4.42044e+7 
           6250      4.34648e+7 
           6270      4.33691e+7 
           6290      4.29338e+7 
           6310      4.24151e+7 
           6330      4.20619e+7 
           6350        4.122e+7 
           6370      4.09615e+7 
           6390      4.08006e+7 
           6410      4.03364e+7 
           6430      3.99993e+7 
           6450       3.9278e+7 
           6470      3.91418e+7 
           6490      3.85467e+7 
           6510      3.79991e+7 
           6530      3.68293e+7 
           6550       3.1769e+7 
           6570      2.55302e+7 
           6590      3.46879e+7 
           6610      3.60363e+7 
           6630      3.60549e+7 
           6650      3.58435e+7 
           6670      3.55374e+7 
           6690      3.52781e+7 
           6710      3.49744e+7 
           6730      3.45872e+7 
           6750      3.42982e+7 
           6770      3.40128e+7 
           6790      3.36812e+7 
           6810      3.33772e+7 
           6830      3.30351e+7 
           6850      3.27445e+7 
           6870      3.24511e+7 
           6890      3.21614e+7 
           6910      3.18548e+7 
           6930      3.15473e+7 
           6950      3.12739e+7 
           6970      3.09854e+7 
           6990      3.07181e+7 
           7010      3.03415e+7 
           7030      3.01477e+7 
           7050      2.98534e+7 
           7070      2.96101e+7 
           7090      2.93578e+7 
           7110      2.88829e+7 
           7130      2.87848e+7 
           7150      2.85282e+7 
           7170      2.83026e+7 
           7190       2.8047e+7 
           7210      2.78061e+7 
           7230      2.75415e+7 
           7250      2.72693e+7 
           7270      2.70781e+7 
           7290      2.68199e+7 
           7310       2.6581e+7 
           7330       2.6366e+7 
           7350      2.61502e+7 
           7370      2.59273e+7 
           7390      2.56885e+7 
           7410      2.54471e+7 
           7430      2.51431e+7 
           7450      2.49709e+7 
           7470      2.46808e+7 
           7490      2.45411e+7 
           7510      2.43511e+7 
           7530      2.41767e+7 
           7550      2.39847e+7 
           7570      2.37747e+7 
           7590       2.3575e+7 
           7610      2.33849e+7 
           7630       2.3179e+7 
           7650      2.29684e+7 
           7670      2.27688e+7 
           7690      2.25861e+7 
           7710      2.23861e+7 
           7730      2.22225e+7 
           7750      2.20339e+7 
           7770       2.1414e+7 
           7790      2.16748e+7 
           7810      2.14984e+7 
           7830      2.13021e+7 
           7850      2.10904e+7 
           7870      2.08568e+7 
           7890      2.06368e+7 
           7910      2.05796e+7 
           7930      2.04405e+7 
           7950      2.01644e+7 
           7970      2.01279e+7 
           7990      1.97228e+7 
           8010      1.97965e+7 
           8030       1.9629e+7 
           8050      1.94781e+7 
           8070      1.93146e+7 
           8090      1.91622e+7 
           8110      1.90077e+7 
           8130      1.88676e+7 
           8150      1.87178e+7 
           8170      1.85709e+7 
           8190      1.83136e+7 
           8210      1.82278e+7 
           8230      1.80598e+7 
           8250      1.80028e+7 
           8270      1.79813e+7 
           8290      1.78212e+7 
           8310      1.77137e+7 
           8330      1.75028e+7 
           8350      1.74461e+7 
           8370       1.7316e+7 
           8390       1.7156e+7 
           8410       1.6985e+7 
           8430      1.68265e+7 
           8450      1.64842e+7 
           8470      1.63198e+7 
           8490      1.64871e+7 
           8510      1.57298e+7 
           8530      1.64064e+7 
           8550      1.48574e+7 
           8570      1.64972e+7 
           8590      1.52559e+7 
           8610      1.48787e+7 
           8630      1.65883e+7 
           8650      1.57867e+7 
           8670      1.31063e+7 
           8690      1.60792e+7 
           8710      1.68099e+7 
           8730       1.5987e+7 
           8750      1.24751e+7 
           8770      1.50951e+7 
           8790      1.67018e+7 
           8810      1.68454e+7 
           8830      1.62744e+7 
           8850      1.41966e+7 
           8870      1.19665e+7 
           8890      1.53491e+7 
           8910      1.61866e+7 
           8930      1.62748e+7 
           8950      1.62793e+7 
           8970       1.5946e+7 
           8990      1.49862e+7 
           9010       1.1694e+7 
           9030      1.28056e+7 
           9050      1.49873e+7 
           9070      1.52144e+7 
           9090      1.51707e+7 
           9110      1.53294e+7 
           9130      1.52822e+7 
           9150      1.51889e+7 
           9170      1.49484e+7 
           9190      1.44721e+7 
           9210      1.32129e+7 
