# Kurucz ODFNEW /NOVER (2003)
# teff = 23000 K (value for the effective temperature for the model. Temperatures are given in K)
# logg = 5 log(cm/s2) (value for Log(G) for the model.)
# meta = -2  (value for the Metallicity for the model.)
# lh = 1.25  (l/Hp where l is the  mixing length of the convective element and Hp is the pressure scale height)
# vtur = 2 km/s (Microturbulence velocity)
# alpha = 0  (Alpha)
#
# column 1: WAVELENGTH (ANGSTROM), Wavelength in Angstrom
# column 2: FLUX (ERG/CM2/S/A), Flux in erg/cm2/s/A
          147.2     1.32734e-16 
            151     7.17522e-16 
          155.2      4.2268e-15 
          158.8     1.79913e-14 
            162     6.19155e-14 
            166     2.72034e-13 
          170.3     1.23821e-12 
          173.4     3.52703e-12 
          176.8     1.06697e-11 
          180.2     3.09822e-11 
          181.7     4.89653e-11 
          186.1     1.79743e-10 
            191     7.12999e-10 
          193.9      1.55913e-9 
          198.4      5.01737e-9 
          201.8       1.1721e-8 
            205      2.53809e-8 
          210.5      9.05472e-8 
          216.2      3.15577e-7 
          219.8      6.71129e-7 
            223      1.28506e-6 
          226.8       2.7119e-6 
            230      8.44045e-6 
            234      1.88894e-5 
            240      5.27421e-5 
          246.5      0.00015094 
          252.4     0.000374951 
          256.8     0.000710371 
            260      0.00113175 
            264      0.00197165 
          268.5      0.00360314 
          273.5      0.00687158 
          278.5       0.0128063 
            284       0.0247245 
            290       0.0491719 
            296       0.0948961 
            301        0.160873 
            308         0.32465 
            318        0.848353 
            328         2.07165 
            338         4.78117 
            348         10.4843 
            357         20.4068 
            366         38.3715 
            375         69.7924 
            385         130.969 
            395         237.323 
            405         416.567 
            414         673.887 
            422         1013.85 
            430         1499.87 
            441         2506.22 
            451         3900.82 
            460         5703.28 
            470         8535.16 
            480         12533.9 
            490           18088 
            500         25668.8 
            506          142366 
            512          467491 
            520          595926 
            530          840433 
            540          931992 
            550      1.29296e+6 
            560      1.56146e+6 
            570      1.89953e+6 
            580      1.97189e+6 
            590      2.57639e+6 
            600      3.17269e+6 
            610      3.73672e+6 
            620      4.34366e+6 
            630      5.04726e+6 
            640      5.76012e+6 
            650      6.66673e+6 
            658       7.4348e+6 
            665       8.1293e+6 
            675      9.13907e+6 
            685       1.0284e+7 
            695      1.17318e+7 
            705      1.31182e+7 
            716      1.47751e+7 
            726      1.64079e+7 
            735       1.8072e+7 
            745      2.00044e+7 
            755      2.20536e+7 
            765      2.42005e+7 
            775      2.65412e+7 
            785      2.89939e+7 
            795      3.15457e+7 
            805      3.42729e+7 
            815      3.71089e+7 
            825      4.01662e+7 
            835      4.28609e+7 
            845      4.65477e+7 
            855      4.98183e+7 
            865      5.35973e+7 
            875      5.73588e+7 
            885      6.12983e+7 
            895      6.53071e+7 
            905      6.87614e+7 
            915      9.76983e+7 
            925      3.84992e+8 
            935       1.0397e+9 
            945      4.70751e+9 
            955     1.08018e+10 
            965     1.56586e+10 
            975      4.70444e+9 
            985     2.46099e+10 
            995     2.63411e+10 
           1005     2.70653e+10 
           1015     1.96003e+10 
           1025      2.72124e+9 
           1035     1.61249e+10 
           1045     2.57867e+10 
           1055     2.61092e+10 
           1065     2.43128e+10 
           1075     2.50336e+10 
           1085     2.30369e+10 
           1095     2.41557e+10 
           1105     2.29942e+10 
           1115     2.26318e+10 
           1125     2.13275e+10 
           1135      2.1595e+10 
           1145     2.04278e+10 
           1155     2.06107e+10 
           1165     2.01443e+10 
           1175     1.76857e+10 
           1185       1.882e+10 
           1195     1.67481e+10 
           1205     1.18642e+10 
           1215      2.17015e+9 
           1225     1.06058e+10 
           1235     1.56311e+10 
           1245     1.61194e+10 
           1255     1.59707e+10 
           1265     1.56321e+10 
           1275     1.56142e+10 
           1285     1.52948e+10 
           1295     1.42263e+10 
           1305     1.40532e+10 
           1315     1.43219e+10 
           1325     1.38053e+10 
           1335     1.32221e+10 
           1345     1.33367e+10 
           1355      1.3139e+10 
           1365     1.27711e+10 
           1375     1.25344e+10 
           1385     1.22969e+10 
           1395     1.17664e+10 
           1405     1.16418e+10 
           1415     1.15279e+10 
           1425      1.1334e+10 
           1435     1.11146e+10 
           1442     1.09917e+10 
           1447     1.08722e+10 
           1455     1.06937e+10 
           1465      1.0456e+10 
           1475     1.02616e+10 
           1485     1.00453e+10 
           1495      9.86211e+9 
           1505       9.5971e+9 
           1512      9.45571e+9 
           1517       9.3997e+9 
           1525      9.24059e+9 
           1535      8.93064e+9 
           1545      8.84713e+9 
           1555      8.61514e+9 
           1565      8.56815e+9 
           1575      8.45013e+9 
           1585       8.2981e+9 
           1595      8.16491e+9 
           1605      7.93698e+9 
           1615      7.79393e+9 
           1625      7.72355e+9 
           1635      7.60822e+9 
           1645      7.41131e+9 
           1655       7.3333e+9 
           1665      7.24031e+9 
           1672      7.05503e+9 
           1677      7.09862e+9 
           1685       6.9982e+9 
           1695       6.8608e+9 
           1705      6.72625e+9 
           1715      6.58912e+9 
           1725      6.48269e+9 
           1735      6.39992e+9 
           1745      6.28446e+9 
           1755      6.20816e+9 
           1765       5.9987e+9 
           1775      5.97267e+9 
           1785      5.89435e+9 
           1795      5.81798e+9 
           1805      5.73276e+9 
           1815      5.62151e+9 
           1825      5.54344e+9 
           1835      5.45197e+9 
           1845      5.30571e+9 
           1855      5.16195e+9 
           1865      5.11725e+9 
           1875      5.10804e+9 
           1885      4.95252e+9 
           1895      4.82527e+9 
           1905      4.84596e+9 
           1915      4.70826e+9 
           1925      4.63436e+9 
           1935      4.60611e+9 
           1945      4.57818e+9 
           1955       4.4326e+9 
           1967         4.43e+9 
           1976      4.40189e+9 
           1984      4.30808e+9 
           1995      4.19615e+9 
           2005      4.20051e+9 
           2015      4.15892e+9 
           2025      4.11243e+9 
           2035      4.03309e+9 
           2045      3.97581e+9 
           2055      3.87994e+9 
           2065      3.83998e+9 
           2074      3.84167e+9 
           2078      3.76836e+9 
           2085      3.76138e+9 
           2095      3.68401e+9 
           2105      3.66372e+9 
           2115      3.62351e+9 
           2125      3.58382e+9 
           2135      3.53181e+9 
           2145      3.47783e+9 
           2155      3.43743e+9 
           2165      3.39177e+9 
           2175      3.34464e+9 
           2185      3.30258e+9 
           2195      3.26153e+9 
           2205      3.21722e+9 
           2215      3.17518e+9 
           2225      3.13148e+9 
           2235      3.09206e+9 
           2245      3.05374e+9 
           2255      3.01249e+9 
           2265      2.97603e+9 
           2275      2.93733e+9 
           2285      2.90151e+9 
           2295      2.84867e+9 
           2305      2.82727e+9 
           2315      2.78989e+9 
           2325      2.75611e+9 
           2335      2.71763e+9 
           2345      2.68012e+9 
           2355      2.65387e+9 
           2365      2.61794e+9 
           2375      2.58752e+9 
           2385       2.5507e+9 
           2395       2.5217e+9 
           2405      2.49165e+9 
           2415      2.46098e+9 
           2425      2.43554e+9 
           2435       2.4042e+9 
           2445      2.37582e+9 
           2455      2.34931e+9 
           2465      2.31975e+9 
           2475      2.29299e+9 
           2485      2.26572e+9 
           2495      2.22297e+9 
           2505      2.21198e+9 
           2513      2.18282e+9 
           2518      2.17904e+9 
           2525      2.16006e+9 
           2535       2.1332e+9 
           2545       2.1078e+9 
           2555      2.08747e+9 
           2565      2.06235e+9 
           2575       2.0404e+9 
           2585      2.01709e+9 
           2595      1.99368e+9 
           2605      1.98484e+9 
           2615      1.96374e+9 
           2625      1.94241e+9 
           2635      1.91891e+9 
           2645      1.89883e+9 
           2655      1.87466e+9 
           2665      1.84837e+9 
           2675      1.82441e+9 
           2685      1.81785e+9 
           2695      1.78068e+9 
           2705      1.77768e+9 
           2715      1.75786e+9 
           2725      1.72068e+9 
           2735      1.71991e+9 
           2745      1.69645e+9 
           2755      1.67915e+9 
           2765      1.64633e+9 
           2775      1.64686e+9 
           2785      1.62874e+9 
           2795      1.59502e+9 
           2805      1.58793e+9 
           2815      1.57757e+9 
           2825      1.53947e+9 
           2835      1.52769e+9 
           2845      1.52767e+9 
           2855      1.51177e+9 
           2865      1.49618e+9 
           2875      1.48041e+9 
           2885      1.46505e+9 
           2895      1.44983e+9 
           2910      1.42736e+9 
           2930       1.3978e+9 
           2950      1.35636e+9 
           2970      1.34199e+9 
           2990      1.31479e+9 
           3010      1.28864e+9 
           3030      1.26315e+9 
           3050      1.23818e+9 
           3070      1.21386e+9 
           3090      1.18995e+9 
           3110      1.16698e+9 
           3130      1.14574e+9 
           3150      1.12371e+9 
           3170      1.10208e+9 
           3190      1.06972e+9 
           3210      1.06016e+9 
           3230      1.03992e+9 
           3250      1.02025e+9 
           3270      1.00248e+9 
           3290      9.82467e+8 
           3310      9.65885e+8 
           3330      9.48168e+8 
           3350      9.29126e+8 
           3370       9.1405e+8 
           3390      8.97593e+8 
           3410       8.8149e+8 
           3430      8.62402e+8 
           3450      8.44076e+8 
           3470       8.3159e+8 
           3490      8.17045e+8 
           3510      8.03693e+8 
           3530      7.90712e+8 
           3550      7.77493e+8 
           3570       7.6919e+8 
           3590      7.49975e+8 
           3610      7.40416e+8 
           3630      7.24903e+8 
           3640       7.2465e+8 
           3650      7.14125e+8 
           3670      7.05467e+8 
           3690      6.93884e+8 
           3710      6.71041e+8 
           3730      6.43177e+8 
           3750      6.44934e+8 
           3770      6.33868e+8 
           3790      6.75979e+8 
           3810      7.15433e+8 
           3830      6.10568e+8 
           3850      7.52722e+8 
           3870      7.82768e+8 
           3890      5.69597e+8 
           3910       7.7509e+8 
           3930      7.84295e+8 
           3950      7.53773e+8 
           3970      5.32052e+8 
           3990      7.17154e+8 
           4010      7.34501e+8 
           4030      6.75593e+8 
           4050      7.24703e+8 
           4070       7.0468e+8 
           4090      6.06889e+8 
           4110      5.14688e+8 
           4130      6.54736e+8 
           4150      6.58131e+8 
           4170      6.56426e+8 
           4190      6.49058e+8 
           4210      6.38953e+8 
           4230      6.28314e+8 
           4250      6.17534e+8 
           4270       6.0513e+8 
           4290      5.94035e+8 
           4310      5.75252e+8 
           4330      4.86381e+8 
           4350       4.3796e+8 
           4370      5.43782e+8 
           4390      5.22887e+8 
           4410      5.40258e+8 
           4430      5.29919e+8 
           4450       5.2393e+8 
           4470      4.79017e+8 
           4490      5.06826e+8 
           4510      5.01322e+8 
           4530      4.93527e+8 
           4550      4.85886e+8 
           4570      4.78395e+8 
           4590      4.71106e+8 
           4610      4.63908e+8 
           4630      4.56833e+8 
           4650      4.49793e+8 
           4670      4.43133e+8 
           4690      4.36467e+8 
           4710       4.2246e+8 
           4730       4.2334e+8 
           4750      4.16911e+8 
           4770      4.10757e+8 
           4790      4.03705e+8 
           4810      3.96154e+8 
           4830      3.84272e+8 
           4850      3.34424e+8 
           4870      2.93767e+8 
           4890      3.63699e+8 
           4910      3.66305e+8 
           4930      3.50334e+8 
           4950      3.59609e+8 
           4970      3.55211e+8 
           4990       3.5016e+8 
           5010       3.3925e+8 
           5030      3.40191e+8 
           5050      3.32745e+8 
           5070      3.30858e+8 
           5090      3.26242e+8 
           5110      3.21702e+8 
           5130      3.17252e+8 
           5150       3.1286e+8 
           5170       3.0857e+8 
           5190       3.0435e+8 
           5210      3.00158e+8 
           5230      2.96104e+8 
           5250      2.92089e+8 
           5270       2.8814e+8 
           5290      2.84269e+8 
           5310      2.80448e+8 
           5330      2.76703e+8 
           5350      2.73006e+8 
           5370      2.69396e+8 
           5390      2.65831e+8 
           5410      2.62325e+8 
           5430      2.58863e+8 
           5450      2.55482e+8 
           5470      2.52157e+8 
           5490      2.48873e+8 
           5510      2.45643e+8 
           5530      2.42477e+8 
           5550      2.39351e+8 
           5570      2.36275e+8 
           5590      2.33249e+8 
           5610      2.30272e+8 
           5630      2.27343e+8 
           5650       2.2445e+8 
           5670      2.21616e+8 
           5690      2.18827e+8 
           5710      2.16095e+8 
           5730      2.13396e+8 
           5750      2.10729e+8 
           5770      2.08117e+8 
           5790      2.05535e+8 
           5810      2.02995e+8 
           5830      2.00497e+8 
           5850      1.98038e+8 
           5870      1.87452e+8 
           5890      1.92404e+8 
           5910      1.90888e+8 
           5930      1.88574e+8 
           5950      1.86287e+8 
           5970      1.84058e+8 
           5990      1.81844e+8 
           6010      1.79666e+8 
           6030      1.77523e+8 
           6050      1.75414e+8 
           6070       1.7334e+8 
           6090      1.71289e+8 
           6110      1.69271e+8 
           6130      1.67286e+8 
           6150      1.65324e+8 
           6170      1.63393e+8 
           6190      1.61493e+8 
           6210      1.59624e+8 
           6230      1.57776e+8 
           6250      1.55958e+8 
           6270      1.54159e+8 
           6290       1.5239e+8 
           6310       1.5065e+8 
           6330      1.48938e+8 
           6350      1.47216e+8 
           6370       1.4556e+8 
           6390       1.4393e+8 
           6410        1.423e+8 
           6430      1.40706e+8 
           6450      1.39128e+8 
           6470      1.37558e+8 
           6490      1.35728e+8 
           6510      1.33828e+8 
           6530      1.31057e+8 
           6550      1.21126e+8 
           6570      1.05858e+8 
           6590      1.24917e+8 
           6610      1.26292e+8 
           6630      1.25471e+8 
           6650      1.24385e+8 
           6670       1.2132e+8 
           6690      1.20133e+8 
           6710      1.20606e+8 
           6730      1.19308e+8 
           6750      1.18023e+8 
           6770       1.1676e+8 
           6790      1.15501e+8 
           6810      1.14279e+8 
           6830       1.1307e+8 
           6850      1.11873e+8 
           6870      1.10687e+8 
           6890      1.09522e+8 
           6910      1.08368e+8 
           6930      1.07234e+8 
           6950      1.06111e+8 
           6970      1.05006e+8 
           6990      1.03913e+8 
           7010      1.02838e+8 
           7030      1.01773e+8 
           7050      1.00726e+8 
           7070      9.78511e+7 
           7090      9.86638e+7 
           7110      9.76549e+7 
           7130      9.66632e+7 
           7150      9.56737e+7 
           7170      9.46937e+7 
           7190      9.37449e+7 
           7210       9.2798e+7 
           7230      9.18024e+7 
           7250      9.09454e+7 
           7270      9.00323e+7 
           7290      8.83268e+7 
           7310      8.82319e+7 
           7330      8.73654e+7 
           7350      8.65001e+7 
           7370      8.56429e+7 
           7390      8.47936e+7 
           7410      8.39592e+7 
           7430      8.31393e+7 
           7450      8.23337e+7 
           7470      8.15289e+7 
           7490      8.07314e+7 
           7510      7.99213e+7 
           7530      7.91717e+7 
           7550      7.84092e+7 
           7570      7.76535e+7 
           7590      7.69048e+7 
           7610      7.61628e+7 
           7630       7.5434e+7 
           7650      7.47118e+7 
           7670      7.40025e+7 
           7690      7.32995e+7 
           7710      7.26029e+7 
           7730      7.19124e+7 
           7750      7.12344e+7 
           7770      7.05562e+7 
           7790      6.99025e+7 
           7810      6.92115e+7 
           7830      6.86003e+7 
           7850       6.8025e+7 
           7870      6.73877e+7 
           7890      6.67379e+7 
           7910      6.61539e+7 
           7930      6.55391e+7 
           7950      6.49296e+7 
           7970       6.4278e+7 
           7990      6.37323e+7 
           8010       6.3115e+7 
           8030      6.25089e+7 
           8050       6.1908e+7 
           8070      6.13701e+7 
           8090      6.07159e+7 
           8110       6.0245e+7 
           8130      5.97153e+7 
           8150       5.9139e+7 
           8170      5.86579e+7 
           8190      5.80628e+7 
           8210      5.74561e+7 
           8230      5.70715e+7 
           8250      5.65848e+7 
           8270      5.58653e+7 
           8290      5.55796e+7 
           8310      5.51215e+7 
           8330      5.46019e+7 
           8350      5.38998e+7 
           8370      5.35936e+7 
           8390      5.32035e+7 
           8410      5.27371e+7 
           8430      5.22439e+7 
           8450      5.14698e+7 
           8470      5.13331e+7 
           8490      5.07784e+7 
           8510      5.03861e+7 
           8530      4.98684e+7 
           8550      4.92602e+7 
           8570      4.92793e+7 
           8590       4.7785e+7 
