# Kurucz ODFNEW /NOVER (2003)
# teff = 19000 K (value for the effective temperature for the model. Temperatures are given in K)
# logg = 4.5 log(cm/s2) (value for Log(G) for the model.)
# meta = 0.2  (value for the Metallicity for the model.)
# lh = 1.25  (l/Hp where l is the  mixing length of the convective element and Hp is the pressure scale height)
# vtur = 2 km/s (Microturbulence velocity)
# alpha = 0  (Alpha)
#
# column 1: WAVELENGTH (ANGSTROM), Wavelength in Angstrom
# column 2: FLUX (ERG/CM2/S/A), Flux in erg/cm2/s/A
          147.2     9.08622e-21 
            151     5.84731e-20 
          155.2     4.11497e-19 
          158.8      2.0153e-18 
            162     7.79901e-18 
            166     3.93614e-17 
          170.3     2.05757e-16 
          173.4     6.45905e-16 
          176.8     2.15975e-15 
          180.2     6.90252e-15 
          181.7     1.13622e-14 
          186.1      4.6897e-14 
            191     2.10665e-13 
          193.9     4.93171e-13 
          198.4     1.75968e-12 
          201.8     4.44417e-12 
            205     1.03566e-11 
          210.5     4.15794e-11 
          216.2     1.63241e-10 
          219.8     3.73626e-10 
            223     7.61428e-10 
          226.8      1.73064e-9 
            230      5.90433e-9 
            234      1.50558e-8 
            240      4.87747e-8 
          246.5      1.61573e-7 
          252.4      4.55405e-7 
          256.8      9.42077e-7 
            260      1.61275e-6 
            264       3.0452e-6 
          268.5      6.07274e-6 
          273.5      1.27152e-5 
          278.5      2.60245e-5 
            284      5.56575e-5 
            290     0.000122775 
            296     0.000261676 
            301     0.000481094 
            308      0.00108284 
            318      0.00330773 
            328       0.0092533 
            338       0.0246504 
            348       0.0615595 
            357        0.136185 
            366        0.286915 
            375        0.574906 
            385         1.20322 
            395         2.41551 
            405         4.68359 
            414          8.2722 
            422         13.3555 
            430         21.1633 
            441         38.9958 
            451         65.9996 
            460         103.481 
            470           167.4 
            480         264.528 
            490          410.48 
            500         624.226 
            506         5284.06 
            512         29861.7 
            520         38382.1 
            530         54509.8 
            540         65033.6 
            550         97548.6 
            560          122521 
            570          161858 
            580          174736 
            590          245453 
            600          311524 
            610          396705 
            620          471196 
            630          568084 
            640          638242 
            650          666976 
            658          897526 
            665      1.00174e+6 
            675      1.15096e+6 
            685      1.32314e+6 
            695      1.60987e+6 
            705      1.82473e+6 
            716      2.12778e+6 
            726      2.40314e+6 
            735      2.67136e+6 
            745      3.10411e+6 
            755      3.52438e+6 
            765      3.98459e+6 
            775       4.4961e+6 
            785      5.04609e+6 
            795      5.53079e+6 
            805      6.11173e+6 
            815      6.69092e+6 
            825      7.49225e+6 
            835      7.91147e+6 
            845      8.78002e+6 
            855      9.60498e+6 
            865      1.05679e+7 
            875      1.16356e+7 
            885      1.28691e+7 
            895      1.39508e+7 
            905      1.44721e+7 
            915      2.47112e+7 
            925       1.0129e+8 
            935      2.56657e+8 
            945      8.88812e+8 
            955      2.07249e+9 
            965      2.93648e+9 
            975      5.60244e+8 
            985       3.9959e+9 
            995      4.05412e+9 
           1005      5.08125e+9 
           1015       4.3223e+9 
           1025      7.47883e+8 
           1035      2.62551e+9 
           1045      6.57709e+9 
           1055       6.6439e+9 
           1065      5.14164e+9 
           1075      6.51634e+9 
           1085      5.72154e+9 
           1095      6.70778e+9 
           1105      5.81558e+9 
           1115      5.52901e+9 
           1125       5.2341e+9 
           1135      6.76591e+9 
           1145      5.75112e+9 
           1155      6.28793e+9 
           1165      6.63095e+9 
           1175      4.82841e+9 
           1185      6.69446e+9 
           1195      4.22072e+9 
           1205      2.37566e+9 
           1215      8.06502e+8 
           1225      3.07484e+9 
           1235      6.23105e+9 
           1245      6.76619e+9 
           1255      6.63727e+9 
           1265      5.96585e+9 
           1275      6.56323e+9 
           1285      6.93215e+9 
           1295      4.34412e+9 
           1305      3.86059e+9 
           1315      6.44344e+9 
           1325      6.05771e+9 
           1335      5.29447e+9 
           1345      6.25041e+9 
           1355      6.00769e+9 
           1365      5.26529e+9 
           1375      5.39621e+9 
           1385      5.49434e+9 
           1395      4.75649e+9 
           1405      5.00238e+9 
           1415      4.88734e+9 
           1425      5.05794e+9 
           1435      5.04733e+9 
           1442      5.31242e+9 
           1447      5.24752e+9 
           1455      5.11186e+9 
           1465      4.73232e+9 
           1475      4.70889e+9 
           1485      4.61186e+9 
           1495      4.64122e+9 
           1505      4.25242e+9 
           1512      3.81353e+9 
           1517      4.04544e+9 
           1525      4.11942e+9 
           1535       3.6523e+9 
           1545      3.76694e+9 
           1555      3.56425e+9 
           1565      3.63497e+9 
           1575      3.85063e+9 
           1585      3.90222e+9 
           1595      3.93578e+9 
           1605      3.86861e+9 
           1615      3.87775e+9 
           1625       3.6858e+9 
           1635      3.88592e+9 
           1645      3.86513e+9 
           1655      3.59217e+9 
           1665       3.9018e+9 
           1672      3.72204e+9 
           1677      3.81494e+9 
           1685      3.89517e+9 
           1695      3.66643e+9 
           1705      3.47542e+9 
           1715       3.2498e+9 
           1725      3.20602e+9 
           1735      3.38718e+9 
           1745       3.2516e+9 
           1755      3.38381e+9 
           1765      3.12342e+9 
           1775      3.12719e+9 
           1785      3.17797e+9 
           1795      3.32366e+9 
           1805      3.31954e+9 
           1815      2.97955e+9 
           1825      3.10138e+9 
           1835      2.93576e+9 
           1845      2.70072e+9 
           1855      2.60391e+9 
           1865      2.66531e+9 
           1875      2.92725e+9 
           1885      2.62135e+9 
           1895      2.45486e+9 
           1905      2.66719e+9 
           1915      2.48645e+9 
           1925      2.41696e+9 
           1935      2.52637e+9 
           1945      2.55991e+9 
           1955      2.35223e+9 
           1967      2.56967e+9 
           1976      2.66624e+9 
           1984      2.46265e+9 
           1995      2.39562e+9 
           2005      2.47815e+9 
           2015      2.35925e+9 
           2025      2.52958e+9 
           2035      2.31374e+9 
           2045      2.35927e+9 
           2055       2.2609e+9 
           2065       2.2956e+9 
           2074      2.39465e+9 
           2078       2.2065e+9 
           2085      2.30784e+9 
           2095      2.16208e+9 
           2105      2.21437e+9 
           2115      2.21184e+9 
           2125       2.2438e+9 
           2135      2.14795e+9 
           2145      2.09849e+9 
           2155      2.17397e+9 
           2165       2.1254e+9 
           2175      2.09873e+9 
           2185      2.02851e+9 
           2195      2.07419e+9 
           2205      2.02365e+9 
           2215      1.96733e+9 
           2225      1.88706e+9 
           2235      1.95099e+9 
           2245      1.91271e+9 
           2255      1.83141e+9 
           2265      1.87622e+9 
           2275      1.88073e+9 
           2285      1.88854e+9 
           2295      1.80246e+9 
           2305      1.78139e+9 
           2315      1.71619e+9 
           2325      1.69317e+9 
           2335      1.61782e+9 
           2345      1.59604e+9 
           2355      1.61804e+9 
           2365      1.56135e+9 
           2375      1.56893e+9 
           2385      1.51176e+9 
           2395      1.57101e+9 
           2405      1.49844e+9 
           2415      1.51358e+9 
           2425      1.52783e+9 
           2435      1.45851e+9 
           2445      1.49847e+9 
           2455      1.47847e+9 
           2465      1.45664e+9 
           2475      1.41956e+9 
           2485      1.45696e+9 
           2495      1.40119e+9 
           2505      1.43853e+9 
           2513      1.35846e+9 
           2518      1.40874e+9 
           2525      1.34888e+9 
           2535      1.34073e+9 
           2545       1.3013e+9 
           2555      1.33857e+9 
           2565      1.31997e+9 
           2575      1.34894e+9 
           2585      1.34343e+9 
           2595      1.33589e+9 
           2605      1.30606e+9 
           2615      1.29521e+9 
           2625      1.28672e+9 
           2635      1.28392e+9 
           2645      1.30245e+9 
           2655      1.29105e+9 
           2665      1.24202e+9 
           2675       1.2585e+9 
           2685      1.24486e+9 
           2695      1.21395e+9 
           2705      1.21236e+9 
           2715      1.18842e+9 
           2725      1.17164e+9 
           2735      1.18994e+9 
           2745      1.12608e+9 
           2755      1.12264e+9 
           2765      1.12503e+9 
           2775      1.14115e+9 
           2785      1.12996e+9 
           2795      1.07304e+9 
           2805      1.09992e+9 
           2815      1.10677e+9 
           2825      1.08643e+9 
           2835      1.04039e+9 
           2845       1.0384e+9 
           2855      1.04098e+9 
           2865      1.05305e+9 
           2875      1.03361e+9 
           2885      1.02814e+9 
           2895      1.02001e+9 
           2910       1.0133e+9 
           2930      9.87758e+8 
           2950      9.63025e+8 
           2970       9.5407e+8 
           2990      9.32711e+8 
           3010      9.21355e+8 
           3030      9.11407e+8 
           3050      8.91799e+8 
           3070      8.74821e+8 
           3090      8.58522e+8 
           3110       8.4179e+8 
           3130      8.29105e+8 
           3150      8.14168e+8 
           3170      7.97292e+8 
           3190      7.73591e+8 
           3210      7.68917e+8 
           3230      7.56716e+8 
           3250      7.44292e+8 
           3270      7.32292e+8 
           3290      7.19413e+8 
           3310      7.08717e+8 
           3330      6.95711e+8 
           3350      6.82057e+8 
           3370      6.71365e+8 
           3390      6.60418e+8 
           3410      6.49908e+8 
           3430      6.36779e+8 
           3450      6.24512e+8 
           3470      6.15112e+8 
           3490      6.05051e+8 
           3510      5.96066e+8 
           3530      5.87668e+8 
           3550      5.78255e+8 
           3570      5.71143e+8 
           3590      5.57431e+8 
           3610      5.49682e+8 
           3630      5.40983e+8 
           3640      5.39976e+8 
           3650      5.32893e+8 
           3670      5.26737e+8 
           3690       5.1692e+8 
           3710      4.98963e+8 
           3730      4.76486e+8 
           3750      5.03753e+8 
           3770       5.0754e+8 
           3790      5.53288e+8 
           3810      5.89693e+8 
           3830      4.99621e+8 
           3850      6.16644e+8 
           3870      6.38988e+8 
           3890       4.6578e+8 
           3910      6.37267e+8 
           3930      6.27919e+8 
           3950      6.17665e+8 
           3970      4.35461e+8 
           3990      5.87808e+8 
           4010      5.99765e+8 
           4030      5.56619e+8 
           4050      5.88963e+8 
           4070      5.67565e+8 
           4090      5.00952e+8 
           4110      4.23272e+8 
           4130      5.29858e+8 
           4150      5.32463e+8 
           4170      5.30683e+8 
           4190      5.26744e+8 
           4210      5.20391e+8 
           4230      5.10513e+8 
           4250       5.0061e+8 
           4270      4.84319e+8 
           4290      4.83109e+8 
           4310      4.68983e+8 
           4330      4.01788e+8 
           4350      3.60513e+8 
           4370      4.43232e+8 
           4390      4.30406e+8 
           4410      4.39393e+8 
           4430      4.31153e+8 
           4450      4.28599e+8 
           4470      3.98075e+8 
           4490      4.10831e+8 
           4510      4.10474e+8 
           4530      4.02323e+8 
           4550      3.96847e+8 
           4570      3.91667e+8 
           4590      3.85615e+8 
           4610      3.78979e+8 
           4630      3.71881e+8 
           4650      3.66424e+8 
           4670      3.62635e+8 
           4690      3.58333e+8 
           4710      3.44326e+8 
           4730      3.44519e+8 
           4750      3.39319e+8 
           4770      3.38401e+8 
           4790      3.31968e+8 
           4810      3.24377e+8 
           4830      3.16561e+8 
           4850      2.79042e+8 
           4870      2.43683e+8 
           4890      3.01767e+8 
           4910      3.02157e+8 
           4930      2.90023e+8 
           4950       2.9611e+8 
           4970      2.92938e+8 
           4990      2.88189e+8 
           5010      2.76377e+8 
           5030      2.78859e+8 
           5050      2.70642e+8 
           5070       2.7241e+8 
           5090      2.68412e+8 
           5110      2.63834e+8 
           5130      2.59347e+8 
           5150      2.55476e+8 
           5170      2.53968e+8 
           5190      2.50616e+8 
           5210      2.44421e+8 
           5230       2.4385e+8 
           5250      2.40861e+8 
           5270      2.37137e+8 
           5290      2.35011e+8 
           5310      2.31507e+8 
           5330      2.28208e+8 
           5350      2.24517e+8 
           5370      2.22874e+8 
           5390      2.19927e+8 
           5410      2.16785e+8 
           5430      2.13312e+8 
           5450      2.10925e+8 
           5470       2.0795e+8 
           5490      2.06076e+8 
           5510      2.03217e+8 
           5530      2.00728e+8 
           5550      1.98391e+8 
           5570       1.9573e+8 
           5590       1.9344e+8 
           5610      1.90758e+8 
           5630      1.88966e+8 
           5650      1.84597e+8 
           5670      1.82559e+8 
           5690      1.81057e+8 
           5710      1.79455e+8 
           5730      1.77356e+8 
           5750       1.7511e+8 
           5770      1.73151e+8 
           5790      1.70968e+8 
           5810      1.68822e+8 
           5830      1.66735e+8 
           5850      1.64804e+8 
           5870      1.57287e+8 
           5890        1.595e+8 
           5910      1.58768e+8 
           5930      1.57024e+8 
           5950      1.54438e+8 
           5970       1.5333e+8 
           5990      1.51185e+8 
           6010      1.49867e+8 
           6030      1.48015e+8 
           6050      1.46338e+8 
           6070      1.44629e+8 
           6090      1.42827e+8 
           6110      1.41329e+8 
           6130      1.39726e+8 
           6150      1.37285e+8 
           6170      1.36387e+8 
           6190      1.34956e+8 
           6210      1.33395e+8 
           6230      1.31782e+8 
           6250       1.2986e+8 
           6270      1.28793e+8 
           6290      1.27319e+8 
           6310      1.25709e+8 
           6330       1.2453e+8 
           6350      1.22224e+8 
           6370      1.21216e+8 
           6390      1.20283e+8 
           6410      1.18883e+8 
           6430      1.17826e+8 
           6450      1.16372e+8 
           6470      1.14978e+8 
           6490      1.13645e+8 
           6510       1.1205e+8 
           6530      1.10021e+8 
           6550      1.02194e+8 
           6570       8.8647e+7 
           6590      1.04661e+8 
           6610      1.06012e+8 
           6630      1.05296e+8 
           6650      1.04417e+8 
           6670       1.0214e+8 
           6690      1.01152e+8 
           6710      1.01135e+8 
           6730      1.00053e+8 
           6750      9.90555e+7 
           6770      9.80437e+7 
           6790      9.65682e+7 
           6810      9.58881e+7 
           6830      9.48347e+7 
           6850      9.39525e+7 
           6870      9.29912e+7 
           6890      9.20157e+7 
           6910      9.10656e+7 
           6930      8.99681e+7 
           6950      8.92171e+7 
           6970      8.83181e+7 
           6990      8.73816e+7 
           7010      8.64697e+7 
           7030      8.55897e+7 
           7050      8.45817e+7 
           7070      8.25437e+7 
           7090      8.30605e+7 
           7110      8.20945e+7 
           7130       8.1316e+7 
           7150      8.05153e+7 
           7170      7.97444e+7 
           7190      7.89807e+7 
           7210      7.81953e+7 
           7230      7.65669e+7 
           7250      7.65751e+7 
           7270      7.58977e+7 
           7290       7.4617e+7 
           7310      7.44067e+7 
           7330      7.36786e+7 
           7350      7.29784e+7 
           7370      7.22638e+7 
           7390      7.15627e+7 
           7410      7.08682e+7 
           7430      7.00709e+7 
           7450      6.94576e+7 
           7470      6.86946e+7 
           7490      6.80932e+7 
           7510      6.74638e+7 
           7530      6.68335e+7 
           7550      6.62222e+7 
           7570      6.56005e+7 
           7590      6.49492e+7 
           7610      6.43715e+7 
           7630      6.37575e+7 
           7650      6.31536e+7 
           7670      6.25614e+7 
           7690      6.19708e+7 
           7710         6.14e+7 
           7730      6.08097e+7 
           7750      6.02529e+7 
           7770      5.91487e+7 
           7790      5.91422e+7 
           7810      5.85852e+7 
           7830      5.80657e+7 
           7850      5.73545e+7 
           7870      5.68644e+7 
           7890      5.62213e+7 
           7910      5.59572e+7 
           7930      5.54878e+7 
           7950      5.47834e+7 
           7970      5.44411e+7 
           7990      5.37075e+7 
           8010      5.34907e+7 
           8030       5.2978e+7 
           8050      5.24913e+7 
           8070      5.20446e+7 
           8090      5.15182e+7 
           8110      5.10696e+7 
           8130      5.06323e+7 
           8150      5.01657e+7 
           8170      4.97743e+7 
           8190      4.92607e+7 
           8210      4.86672e+7 
           8230      4.82141e+7 
           8250       4.8011e+7 
           8270      4.74458e+7 
           8290      4.71443e+7 
           8310        4.676e+7 
           8330      4.63641e+7 
           8350      4.58122e+7 
           8370      4.54962e+7 
           8390      4.52099e+7 
           8410      4.48023e+7 
           8430      4.43631e+7 
           8450      4.35519e+7 
           8470      4.35386e+7 
           8490       4.3097e+7 
           8510      4.26007e+7 
           8530      4.24354e+7 
           8550      4.13615e+7 
           8570       4.2111e+7 
