# Kurucz ODFNEW /NOVER (2003)
# teff = 29000 K (value for the effective temperature for the model. Temperatures are given in K)
# logg = 4.5 log(cm/s2) (value for Log(G) for the model.)
# meta = -2.5  (value for the Metallicity for the model.)
# lh = 1.25  (l/Hp where l is the  mixing length of the convective element and Hp is the pressure scale height)
# vtur = 2 km/s (Microturbulence velocity)
# alpha = 0.4  (Alpha)
#
# column 1: WAVELENGTH (ANGSTROM), Wavelength in Angstrom
# column 2: FLUX (ERG/CM2/S/A), Flux in erg/cm2/s/A
          147.2      1.03207e-9 
            151      3.78795e-9 
          155.2      1.47784e-8 
          158.8      4.48461e-8 
            162      1.15392e-7 
            166      3.56755e-7 
          170.3      1.13216e-6 
          173.4      2.50864e-6 
          176.8      5.81107e-6 
          180.2       1.3031e-5 
          181.7       1.8432e-5 
          186.1      4.93347e-5 
            191     0.000139772 
          193.9     0.000252468 
          198.4     0.000610011 
          201.8        0.001156 
            205      0.00206809 
          210.5      0.00539491 
          216.2       0.0138079 
          219.8       0.0243526 
            223       0.0396994 
          226.8        0.069657 
            230          3.0211 
            234         7.57023 
            240         15.1051 
          246.5         30.9637 
          252.4         57.9389 
          256.8         80.5259 
            260         121.077 
            264         173.354 
          268.5         261.043 
          273.5         401.653 
          278.5         608.355 
            284         947.195 
            290         1496.12 
            296         2310.27 
            301          3215.8 
            308         4787.75 
            318         9947.99 
            328         17892.8 
            338         31345.2 
            348         52718.6 
            357         82029.8 
            366          125354 
            375          184439 
            385          280695 
            395          413781 
            405          597622 
            414          820955 
            422      1.06712e+6 
            430      1.37224e+6 
            441      1.92029e+6 
            451      2.56671e+6 
            460      3.27039e+6 
            470      4.25215e+6 
            480      5.44116e+6 
            490      6.88469e+6 
            500       8.6271e+6 
            506      4.97051e+7 
            512      1.69622e+8 
            520      1.81287e+8 
            530       2.1107e+8 
            540      2.06917e+8 
            550      2.47907e+8 
            560      2.64491e+8 
            570      2.87353e+8 
            580      2.80083e+8 
            590      3.24176e+8 
            600      3.47407e+8 
            610      3.74735e+8 
            620      3.96046e+8 
            630      4.25308e+8 
            640      4.44083e+8 
            650      4.78665e+8 
            658       5.0104e+8 
            665      5.20644e+8 
            675      5.42408e+8 
            685      5.63298e+8 
            695      6.14864e+8 
            705      6.33344e+8 
            716      6.77613e+8 
            726      7.09064e+8 
            735       7.4666e+8 
            745      7.82612e+8 
            755      8.16872e+8 
            765      8.51403e+8 
            775      8.92171e+8 
            785      9.31331e+8 
            795      9.64198e+8 
            805      1.00399e+9 
            815      1.03923e+9 
            825         1.08e+9 
            835      1.08303e+9 
            845      1.15299e+9 
            855       1.1888e+9 
            865      1.22949e+9 
            875       1.2694e+9 
            885      1.30822e+9 
            895      1.34598e+9 
            905        1.375e+9 
            915      1.73447e+9 
            925      9.47036e+9 
            935     2.07704e+10 
            945     4.49278e+10 
            955     5.45954e+10 
            965     6.99674e+10 
            975       3.578e+10 
            985     7.24356e+10 
            995     6.73682e+10 
           1005     7.04168e+10 
           1015     6.55073e+10 
           1025     3.05012e+10 
           1035     6.09815e+10 
           1045     6.55191e+10 
           1055     6.40663e+10 
           1065     6.04773e+10 
           1075     5.99964e+10 
           1085     5.54746e+10 
           1095     5.80666e+10 
           1105     5.57091e+10 
           1115     5.43932e+10 
           1125     5.16504e+10 
           1135     5.23995e+10 
           1145     5.03561e+10 
           1155     4.96827e+10 
           1165     4.87363e+10 
           1175     4.34107e+10 
           1185     4.60937e+10 
           1195     4.41515e+10 
           1205     4.04718e+10 
           1215     1.99332e+10 
           1225     3.91987e+10 
           1235     4.09204e+10 
           1245      3.9833e+10 
           1255     3.94471e+10 
           1265     3.85316e+10 
           1275     3.77627e+10 
           1285     3.69149e+10 
           1295      3.4907e+10 
           1305     3.46197e+10 
           1315      3.4472e+10 
           1325     3.35116e+10 
           1335     3.24027e+10 
           1345     3.21475e+10 
           1355      3.1564e+10 
           1365     3.07514e+10 
           1375     3.01523e+10 
           1385     2.95339e+10 
           1395     2.80317e+10 
           1405     2.76265e+10 
           1415     2.75911e+10 
           1425     2.70234e+10 
           1435     2.65182e+10 
           1442     2.61798e+10 
           1447     2.58949e+10 
           1455     2.54543e+10 
           1465     2.49237e+10 
           1475      2.4412e+10 
           1485     2.39254e+10 
           1495     2.34278e+10 
           1505      2.2838e+10 
           1512     2.25925e+10 
           1517      2.2375e+10 
           1525     2.19935e+10 
           1535     2.13705e+10 
           1545     2.07822e+10 
           1555     2.03678e+10 
           1565     2.02191e+10 
           1575     1.98963e+10 
           1585     1.95306e+10 
           1595      1.9168e+10 
           1605     1.86681e+10 
           1615     1.83004e+10 
           1625     1.79931e+10 
           1635     1.75919e+10 
           1645     1.68134e+10 
           1655      1.7084e+10 
           1665     1.67666e+10 
           1672     1.65389e+10 
           1677     1.64579e+10 
           1685     1.62025e+10 
           1695     1.58912e+10 
           1705     1.55835e+10 
           1715     1.52486e+10 
           1725     1.49647e+10 
           1735     1.47777e+10 
           1745     1.45037e+10 
           1755      1.4252e+10 
           1765     1.39591e+10 
           1775     1.37318e+10 
           1785     1.35074e+10 
           1795      1.3293e+10 
           1805     1.30744e+10 
           1815     1.28335e+10 
           1825     1.26164e+10 
           1835     1.24043e+10 
           1845     1.21285e+10 
           1855     1.18262e+10 
           1865     1.16748e+10 
           1875     1.15678e+10 
           1885     1.13033e+10 
           1895      1.1028e+10 
           1905     1.09727e+10 
           1915      1.0692e+10 
           1925     1.05121e+10 
           1935     1.04007e+10 
           1945     1.02851e+10 
           1955     1.00204e+10 
           1967       9.9219e+9 
           1976       9.8105e+9 
           1984      9.63966e+9 
           1995      9.40795e+9 
           2005      9.35333e+9 
           2015      9.22333e+9 
           2025        9.089e+9 
           2035      8.92839e+9 
           2045       8.7894e+9 
           2055      8.31735e+9 
           2065      8.14007e+9 
           2074      8.10916e+9 
           2078      8.00696e+9 
           2085      8.04714e+9 
           2095      8.02801e+9 
           2105      8.01823e+9 
           2115      7.92077e+9 
           2125      7.80394e+9 
           2135      7.68472e+9 
           2145      7.56501e+9 
           2155      7.46251e+9 
           2165      7.34213e+9 
           2175      7.24682e+9 
           2185      7.12667e+9 
           2195      7.03936e+9 
           2205      6.93723e+9 
           2215      6.82067e+9 
           2225      6.73751e+9 
           2235      6.63994e+9 
           2245      6.54661e+9 
           2255      6.43563e+9 
           2265      6.36175e+9 
           2275      6.27195e+9 
           2285      6.18297e+9 
           2295      6.03909e+9 
           2305      5.99481e+9 
           2315      5.92697e+9 
           2325      5.84501e+9 
           2335      5.76334e+9 
           2345      5.68544e+9 
           2355      5.60765e+9 
           2365      5.53109e+9 
           2375      5.45543e+9 
           2385      5.36752e+9 
           2395      5.30814e+9 
           2405      5.23752e+9 
           2415      5.16678e+9 
           2425       5.0985e+9 
           2435      5.02965e+9 
           2445      4.96344e+9 
           2455      4.89809e+9 
           2465      4.83387e+9 
           2475      4.77017e+9 
           2485        4.708e+9 
           2495      4.55759e+9 
           2505      4.58539e+9 
           2513      4.50834e+9 
           2518      4.50644e+9 
           2525      4.46861e+9 
           2535      4.41161e+9 
           2545      4.34863e+9 
           2555      4.29786e+9 
           2565       4.2446e+9 
           2575      4.19136e+9 
           2585       4.1387e+9 
           2595      4.08667e+9 
           2605       4.0574e+9 
           2615       4.0066e+9 
           2625       3.9565e+9 
           2635       3.9039e+9 
           2645      3.85398e+9 
           2655      3.80223e+9 
           2665       3.7493e+9 
           2675      3.69868e+9 
           2685      3.67291e+9 
           2695      3.60426e+9 
           2705      3.58389e+9 
           2715      3.54046e+9 
           2725      3.47191e+9 
           2735      3.44883e+9 
           2745       3.4141e+9 
           2755      3.37338e+9 
           2765       3.3066e+9 
           2775      3.29386e+9 
           2785      3.25471e+9 
           2795      3.20759e+9 
           2805      3.17653e+9 
           2815      3.14145e+9 
           2825      3.07341e+9 
           2835      3.05247e+9 
           2845        3.033e+9 
           2855       2.9977e+9 
           2865      2.96308e+9 
           2875      2.92911e+9 
           2885      2.89566e+9 
           2895      2.86252e+9 
           2910      2.81365e+9 
           2930      2.75022e+9 
           2950      2.66929e+9 
           2970      2.62889e+9 
           2990      2.57066e+9 
           3010        2.514e+9 
           3030      2.45925e+9 
           3050       2.4058e+9 
           3070      2.35381e+9 
           3090      2.30186e+9 
           3110      2.25397e+9 
           3130      2.20776e+9 
           3150      2.16121e+9 
           3170      2.11565e+9 
           3190      2.05352e+9 
           3210      2.02611e+9 
           3230      1.98513e+9 
           3250      1.94412e+9 
           3270      1.90639e+9 
           3290      1.86515e+9 
           3310      1.83002e+9 
           3330      1.79319e+9 
           3350      1.75425e+9 
           3370      1.72238e+9 
           3390      1.68838e+9 
           3410      1.65519e+9 
           3430      1.61609e+9 
           3450      1.57908e+9 
           3470      1.55289e+9 
           3490      1.52283e+9 
           3510      1.49626e+9 
           3530      1.47056e+9 
           3550      1.44253e+9 
           3570       1.4236e+9 
           3590      1.38706e+9 
           3610      1.36566e+9 
           3630      1.33585e+9 
           3640      1.33346e+9 
           3650      1.31732e+9 
           3670      1.29835e+9 
           3690      1.27356e+9 
           3710      1.23052e+9 
           3730       1.1821e+9 
           3750      1.19088e+9 
           3770      1.17149e+9 
           3790      1.21914e+9 
           3810      1.26469e+9 
           3830      1.11016e+9 
           3850      1.28898e+9 
           3870      1.30079e+9 
           3890      1.04613e+9 
           3910      1.27335e+9 
           3930      1.25906e+9 
           3950      1.23106e+9 
           3970      9.70118e+8 
           3990      1.17954e+9 
           4010      1.17308e+9 
           4030       1.1057e+9 
           4050      1.14428e+9 
           4070      1.11898e+9 
           4090      1.02951e+9 
           4110      9.03458e+8 
           4130      1.04876e+9 
           4150      1.03874e+9 
           4170       1.0296e+9 
           4190      1.01392e+9 
           4210      9.96508e+8 
           4230      9.79843e+8 
           4250      9.62884e+8 
           4270      9.45971e+8 
           4290      9.29311e+8 
           4310      9.08457e+8 
           4330      8.23368e+8 
           4350      7.53021e+8 
           4370      8.61627e+8 
           4390      8.30826e+8 
           4410      8.40934e+8 
           4430      8.24682e+8 
           4450       8.1428e+8 
           4470      7.65492e+8 
           4490      7.87447e+8 
           4510      7.75533e+8 
           4530      7.63101e+8 
           4550       7.5042e+8 
           4570      7.38743e+8 
           4590      7.27009e+8 
           4610      7.15662e+8 
           4630      7.04431e+8 
           4650      6.92391e+8 
           4670      6.82414e+8 
           4690      6.70098e+8 
           4710       6.5333e+8 
           4730      6.51369e+8 
           4750      6.41304e+8 
           4770        6.316e+8 
           4790      6.21969e+8 
           4810      6.11564e+8 
           4830      5.98774e+8 
           4850       5.5251e+8 
           4870      4.95467e+8 
           4890      5.70039e+8 
           4910      5.65639e+8 
           4930      5.45218e+8 
           4950      5.51076e+8 
           4970      5.43111e+8 
           4990      5.35135e+8 
           5010      5.20995e+8 
           5030       5.1963e+8 
           5050      5.09273e+8 
           5070      5.04692e+8 
           5090      4.97418e+8 
           5110      4.90286e+8 
           5130      4.83278e+8 
           5150      4.76379e+8 
           5170      4.69613e+8 
           5190       4.6298e+8 
           5210      4.56448e+8 
           5230       4.5003e+8 
           5250      4.43738e+8 
           5270      4.37541e+8 
           5290      4.31466e+8 
           5310      4.25483e+8 
           5330      4.19617e+8 
           5350       4.1384e+8 
           5370      4.08163e+8 
           5390      4.02585e+8 
           5410      3.96975e+8 
           5430      3.91718e+8 
           5450      3.86426e+8 
           5470      3.81226e+8 
           5490      3.76103e+8 
           5510       3.7107e+8 
           5530      3.66124e+8 
           5550      3.61264e+8 
           5570      3.56476e+8 
           5590      3.51772e+8 
           5610      3.47138e+8 
           5630      3.42584e+8 
           5650      3.38109e+8 
           5670      3.33701e+8 
           5690      3.29346e+8 
           5710      3.25102e+8 
           5730       3.2092e+8 
           5750      3.16766e+8 
           5770      3.12729e+8 
           5790      3.08741e+8 
           5810      3.04811e+8 
           5830      3.00939e+8 
           5850      2.97134e+8 
           5870      2.84475e+8 
           5890      2.89236e+8 
           5910      2.86062e+8 
           5930      2.82497e+8 
           5950      2.78973e+8 
           5970      2.75521e+8 
           5990       2.7211e+8 
           6010      2.68748e+8 
           6030      2.65445e+8 
           6050       2.6219e+8 
           6070      2.58982e+8 
           6090      2.55832e+8 
           6110      2.52727e+8 
           6130      2.49666e+8 
           6150      2.46651e+8 
           6170      2.43679e+8 
           6190       2.4076e+8 
           6210      2.37883e+8 
           6230      2.35038e+8 
           6250      2.32244e+8 
           6270       2.2949e+8 
           6290      2.26776e+8 
           6310      2.24111e+8 
           6330      2.21474e+8 
           6350      2.18876e+8 
           6370      2.16325e+8 
           6390      2.13801e+8 
           6410      2.11323e+8 
           6430      2.08871e+8 
           6450      2.06464e+8 
           6470      2.04083e+8 
           6490      2.01745e+8 
           6510      1.99307e+8 
           6530       1.9618e+8 
           6550      1.87405e+8 
           6570      1.67065e+8 
           6590       1.8852e+8 
           6610      1.87968e+8 
           6630      1.86253e+8 
           6650      1.84265e+8 
           6670      1.80291e+8 
           6690      1.78322e+8 
           6710      1.78173e+8 
           6730      1.76192e+8 
           6750      1.74248e+8 
           6770      1.72325e+8 
           6790      1.70428e+8 
           6810       1.6856e+8 
           6830      1.66718e+8 
           6850      1.64895e+8 
           6870      1.63106e+8 
           6890      1.61335e+8 
           6910       1.5959e+8 
           6930       1.5787e+8 
           6950      1.56167e+8 
           6970      1.54497e+8 
           6990      1.52835e+8 
           7010      1.51205e+8 
           7030      1.49599e+8 
           7050      1.48009e+8 
           7070      1.44082e+8 
           7090      1.44897e+8 
           7110      1.43367e+8 
           7130       1.4186e+8 
           7150      1.40375e+8 
           7170      1.38889e+8 
           7190      1.37462e+8 
           7210      1.36034e+8 
           7230       1.3459e+8 
           7250      1.33225e+8 
           7270      1.31852e+8 
           7290      1.29414e+8 
           7310      1.29144e+8 
           7330      1.27837e+8 
           7350      1.26528e+8 
           7370      1.25239e+8 
           7390      1.23969e+8 
           7410      1.22717e+8 
           7430      1.21471e+8 
           7450      1.20263e+8 
           7470      1.19053e+8 
           7490       1.1786e+8 
           7510      1.16646e+8 
           7530      1.15515e+8 
           7550      1.14369e+8 
           7570      1.13233e+8 
           7590      1.12107e+8 
           7610      1.10998e+8 
           7630      1.09906e+8 
           7650       1.0883e+8 
           7670      1.07757e+8 
           7690      1.06707e+8 
           7710      1.05666e+8 
           7730      1.04634e+8 
           7750      1.03618e+8 
           7770      1.02617e+8 
           7790      1.01626e+8 
           7810      1.00593e+8 
           7830      9.96744e+7 
           7850      9.88126e+7 
           7870      9.78609e+7 
           7890      9.68873e+7 
           7910      9.60126e+7 
           7930      9.50976e+7 
           7950      9.41965e+7 
           7970      9.31846e+7 
           7990      9.23115e+7 
           8010      9.13697e+7 
           8030      9.04827e+7 
           8050      8.96733e+7 
           8070      8.88765e+7 
           8090      8.78907e+7 
           8110         8.72e+7 
           8130      8.64352e+7 
           8150      8.55521e+7 
           8170      8.48685e+7 
           8190      8.39827e+7 
           8210      8.31158e+7 
           8230      8.25566e+7 
           8250      8.18357e+7 
           8270      8.07188e+7 
           8290      8.02969e+7 
           8310      7.95999e+7 
           8330      7.88381e+7 
           8350      7.77638e+7 
           8370       7.7312e+7 
           8390      7.67244e+7 
           8410       7.6035e+7 
           8430      7.52983e+7 
           8450      7.41245e+7 
           8470      7.39271e+7 
           8490      7.31036e+7 
           8510      7.25055e+7 
           8530      7.17931e+7 
           8550      7.07671e+7 
           8570      7.10681e+7 
