# Kurucz ODFNEW /NOVER (2003)
# teff = 27000 K (value for the effective temperature for the model. Temperatures are given in K)
# logg = 4.5 log(cm/s2) (value for Log(G) for the model.)
# meta = -2.5  (value for the Metallicity for the model.)
# lh = 1.25  (l/Hp where l is the  mixing length of the convective element and Hp is the pressure scale height)
# vtur = 2 km/s (Microturbulence velocity)
# alpha = 0.4  (Alpha)
#
# column 1: WAVELENGTH (ANGSTROM), Wavelength in Angstrom
# column 2: FLUX (ERG/CM2/S/A), Flux in erg/cm2/s/A
          147.2     6.80684e-12 
            151     2.90168e-11 
          155.2     1.32594e-10 
          158.8     4.57425e-10 
            162      1.31241e-9 
            166      4.62299e-9 
          170.3      1.67373e-8 
          173.4      4.06355e-8 
          176.8      1.03557e-7 
          180.2      2.54529e-7 
          181.7      3.74426e-7 
          186.1      1.11942e-6 
            191      3.56334e-6 
          193.9      6.87191e-6 
          198.4      1.82983e-5 
          201.8      3.71991e-5 
            205      7.09219e-5 
          210.5     0.000205215 
          216.2     0.000581136 
          219.8      0.00108905 
            223      0.00186967 
          226.8      0.00347901 
            230       0.0475733 
            234        0.107798 
            240        0.240485 
          246.5        0.549089 
          252.4         1.12991 
          256.8         1.77127 
            260         2.66937 
            264         4.10421 
          268.5         6.56081 
          273.5         10.8271 
          278.5         17.5614 
            284         29.2804 
            290         49.8842 
            296         82.9556 
            301         123.991 
            308         205.342 
            318         451.894 
            328         898.542 
            338         1716.46 
            348         3144.08 
            357         5254.45 
            366         8565.25 
            375         13526.9 
            385         21969.1 
            395         34617.3 
            405         53246.3 
            414         77031.3 
            422          105071 
            430          141299 
            441          209536 
            451          293936 
            460          392094 
            470          533015 
            480          713317 
            490          942216 
            500      1.22865e+6 
            506      7.02207e+6 
            512      2.28558e+7 
            520      2.59796e+7 
            530      3.25041e+7 
            540      3.34638e+7 
            550      4.23531e+7 
            560      4.70948e+7 
            570      5.33868e+7 
            580      5.31699e+7 
            590      6.44672e+7 
            600       7.2691e+7 
            610      8.08981e+7 
            620      8.83364e+7 
            630      9.75947e+7 
            640      1.05155e+8 
            650      1.16291e+8 
            658       1.2467e+8 
            665      1.31839e+8 
            675      1.40662e+8 
            685      1.50379e+8 
            695      1.66766e+8 
            705      1.76971e+8 
            716      1.92195e+8 
            726      2.05306e+8 
            735      2.19793e+8 
            745      2.34912e+8 
            755      2.49999e+8 
            765      2.64961e+8 
            775      2.81952e+8 
            785      2.98651e+8 
            795      3.14479e+8 
            805      3.32236e+8 
            815      3.49275e+8 
            825      3.67788e+8 
            835      3.78261e+8 
            845      4.03609e+8 
            855      4.21381e+8 
            865      4.41587e+8 
            875      4.61503e+8 
            885      4.81431e+8 
            895       5.0102e+8 
            905      5.17056e+8 
            915      6.99169e+8 
            925      4.11929e+9 
            935     1.05974e+10 
            945      2.7959e+10 
            955     3.70238e+10 
            965     4.88214e+10 
            975     2.20246e+10 
            985     5.34405e+10 
            995     5.04044e+10 
           1005     5.24723e+10 
           1015     4.74795e+10 
           1025     1.76025e+10 
           1035     4.34467e+10 
           1045     4.90979e+10 
           1055     4.80598e+10 
           1065     4.51288e+10 
           1075     4.51277e+10 
           1085     4.17107e+10 
           1095     4.36607e+10 
           1105     4.18127e+10 
           1115      4.0857e+10 
           1125     3.86962e+10 
           1135     3.92894e+10 
           1145     3.75831e+10 
           1155     3.73362e+10 
           1165     3.66036e+10 
           1175     3.26051e+10 
           1185     3.46112e+10 
           1195     3.27628e+10 
           1205       2.903e+10 
           1215     1.17335e+10 
           1225     2.80321e+10 
           1235     3.05192e+10 
           1245     2.98729e+10 
           1255     2.95423e+10 
           1265     2.87875e+10 
           1275     2.83632e+10 
           1285     2.77204e+10 
           1295         2.6e+10 
           1305     2.58906e+10 
           1315     2.58883e+10 
           1325     2.50999e+10 
           1335     2.42793e+10 
           1345     2.41237e+10 
           1355     2.37299e+10 
           1365     2.30883e+10 
           1375      2.2662e+10 
           1385     2.22123e+10 
           1395     2.10974e+10 
           1405     2.08172e+10 
           1415     2.07517e+10 
           1425     2.03594e+10 
           1435     1.99723e+10 
           1442     1.97282e+10 
           1447     1.95165e+10 
           1455     1.91886e+10 
           1465     1.87889e+10 
           1475      1.8412e+10 
           1485     1.80436e+10 
           1495     1.76783e+10 
           1505     1.72079e+10 
           1512     1.70358e+10 
           1517     1.68811e+10 
           1525     1.66008e+10 
           1535     1.61198e+10 
           1545     1.57628e+10 
           1555     1.54271e+10 
           1565     1.53142e+10 
           1575     1.50671e+10 
           1585     1.47879e+10 
           1595      1.4522e+10 
           1605     1.41464e+10 
           1615     1.38752e+10 
           1625     1.36769e+10 
           1635     1.34157e+10 
           1645     1.29031e+10 
           1655     1.29823e+10 
           1665     1.27522e+10 
           1672     1.25811e+10 
           1677     1.25125e+10 
           1685     1.23237e+10 
           1695     1.20879e+10 
           1705     1.18586e+10 
           1715     1.16157e+10 
           1725     1.14126e+10 
           1735     1.12535e+10 
           1745     1.10509e+10 
           1755     1.08722e+10 
           1765     1.06237e+10 
           1775     1.04685e+10 
           1785     1.03074e+10 
           1795      1.0155e+10 
           1805      9.99343e+9 
           1815      9.80916e+9 
           1825      9.65038e+9 
           1835      9.49055e+9 
           1845      9.26843e+9 
           1855      9.02688e+9 
           1865       8.9207e+9 
           1875      8.86459e+9 
           1885      8.64302e+9 
           1895      8.42584e+9 
           1905      8.41038e+9 
           1915      8.18471e+9 
           1925      8.05252e+9 
           1935      7.97785e+9 
           1945      7.90081e+9 
           1955      7.68121e+9 
           1967      7.63023e+9 
           1976      7.55538e+9 
           1984      7.41494e+9 
           1995      7.22918e+9 
           2005      7.20804e+9 
           2015      7.11729e+9 
           2025       7.0196e+9 
           2035      6.89384e+9 
           2045      6.78911e+9 
           2055      6.56851e+9 
           2065         6.45e+9 
           2074      6.43312e+9 
           2078      6.32942e+9 
           2085      6.33275e+9 
           2095      6.24471e+9 
           2105      6.21332e+9 
           2115      6.13778e+9 
           2125      6.05495e+9 
           2135      5.96522e+9 
           2145      5.87354e+9 
           2155      5.79547e+9 
           2165      5.71288e+9 
           2175      5.63156e+9 
           2185      5.55086e+9 
           2195      5.47662e+9 
           2205       5.3994e+9 
           2215       5.3215e+9 
           2225      5.24897e+9 
           2235      5.17518e+9 
           2245      5.10548e+9 
           2255      5.03104e+9 
           2265      4.96622e+9 
           2275      4.89842e+9 
           2285      4.83176e+9 
           2295      4.72773e+9 
           2305      4.69821e+9 
           2315      4.63753e+9 
           2325      4.57557e+9 
           2335      4.51317e+9 
           2345      4.45428e+9 
           2355      4.39609e+9 
           2365      4.33791e+9 
           2375      4.28021e+9 
           2385      4.22108e+9 
           2395       4.1689e+9 
           2405      4.11502e+9 
           2415       4.0608e+9 
           2425       4.0095e+9 
           2435        3.957e+9 
           2445      3.90674e+9 
           2455      3.85716e+9 
           2465      3.80808e+9 
           2475      3.75959e+9 
           2485      3.71207e+9 
           2495       3.6109e+9 
           2505      3.61875e+9 
           2513      3.57188e+9 
           2518       3.5589e+9 
           2525      3.52921e+9 
           2535      3.48553e+9 
           2545      3.43598e+9 
           2555      3.39863e+9 
           2565      3.35752e+9 
           2575      3.31724e+9 
           2585      3.27685e+9 
           2595      3.23704e+9 
           2605      3.21845e+9 
           2615      3.17951e+9 
           2625      3.14079e+9 
           2635      3.09974e+9 
           2645      3.06121e+9 
           2655      3.02067e+9 
           2665      2.97878e+9 
           2675      2.93976e+9 
           2685      2.92281e+9 
           2695      2.86683e+9 
           2705      2.85416e+9 
           2715      2.82071e+9 
           2725      2.76494e+9 
           2735      2.75362e+9 
           2745      2.72274e+9 
           2755      2.69145e+9 
           2765      2.63727e+9 
           2775      2.63014e+9 
           2785      2.59982e+9 
           2795      2.55912e+9 
           2805      2.53789e+9 
           2815      2.51209e+9 
           2825      2.45606e+9 
           2835      2.44059e+9 
           2845      2.42797e+9 
           2855       2.4006e+9 
           2865      2.37377e+9 
           2875       2.3473e+9 
           2885      2.32133e+9 
           2895      2.29557e+9 
           2910       2.2575e+9 
           2930      2.20809e+9 
           2950      2.14349e+9 
           2970      2.11361e+9 
           2990      2.06815e+9 
           3010      2.02396e+9 
           3030      1.98121e+9 
           3050      1.93943e+9 
           3070      1.89878e+9 
           3090      1.85818e+9 
           3110      1.82061e+9 
           3130      1.78465e+9 
           3150      1.74816e+9 
           3170      1.71204e+9 
           3190      1.66221e+9 
           3210      1.64269e+9 
           3230      1.60959e+9 
           3250      1.57725e+9 
           3270       1.5478e+9 
           3290      1.51498e+9 
           3310      1.48751e+9 
           3330      1.45845e+9 
           3350      1.42739e+9 
           3370      1.40247e+9 
           3390      1.37552e+9 
           3410      1.34922e+9 
           3430      1.31759e+9 
           3450      1.28786e+9 
           3470      1.26742e+9 
           3490       1.2436e+9 
           3510      1.22298e+9 
           3530       1.2027e+9 
           3550      1.18078e+9 
           3570       1.1662e+9 
           3590      1.13664e+9 
           3610      1.11974e+9 
           3630      1.09592e+9 
           3640      1.09442e+9 
           3650      1.08207e+9 
           3670      1.06738e+9 
           3690      1.04707e+9 
           3710      1.01109e+9 
           3730      9.69355e+8 
           3750        9.846e+8 
           3770      9.72935e+8 
           3790      1.02087e+9 
           3810      1.06418e+9 
           3830      9.26742e+8 
           3850      1.09274e+9 
           3870      1.10705e+9 
           3890      8.73478e+8 
           3910      1.08674e+9 
           3930      1.07673e+9 
           3950       1.0517e+9 
           3970      8.11165e+8 
           3990      1.00701e+9 
           4010      1.00454e+9 
           4030      9.42351e+8 
           4050      9.81782e+8 
           4070      9.59807e+8 
           4090      8.75111e+8 
           4110      7.61862e+8 
           4130       8.9855e+8 
           4150      8.91529e+8 
           4170      8.84753e+8 
           4190      8.71949e+8 
           4210      8.57371e+8 
           4230      8.42903e+8 
           4250      8.28523e+8 
           4270      8.13962e+8 
           4290       7.9941e+8 
           4310      7.81077e+8 
           4330      7.00698e+8 
           4350      6.38185e+8 
           4370      7.40877e+8 
           4390      7.13128e+8 
           4410       7.2465e+8 
           4430      7.10367e+8 
           4450      7.01941e+8 
           4470      6.56607e+8 
           4490      6.78932e+8 
           4510       6.6909e+8 
           4530      6.58477e+8 
           4550      6.47933e+8 
           4570       6.3771e+8 
           4590      6.27748e+8 
           4610      6.18041e+8 
           4630       6.0846e+8 
           4650      5.98394e+8 
           4670      5.89669e+8 
           4690      5.80112e+8 
           4710      5.64141e+8 
           4730      5.63101e+8 
           4750      5.54496e+8 
           4770      5.46229e+8 
           4790      5.37983e+8 
           4810      5.28585e+8 
           4830      5.17353e+8 
           4850      4.73312e+8 
           4870      4.22129e+8 
           4890      4.92384e+8 
           4910      4.89381e+8 
           4930      4.70894e+8 
           4950      4.77352e+8 
           4970      4.70513e+8 
           4990      4.63693e+8 
           5010      4.51023e+8 
           5030      4.50406e+8 
           5050      4.41203e+8 
           5070      4.37612e+8 
           5090      4.31373e+8 
           5110      4.25262e+8 
           5130      4.19247e+8 
           5150      4.13326e+8 
           5170      4.07527e+8 
           5190      4.01833e+8 
           5210      3.96228e+8 
           5230      3.90738e+8 
           5250       3.8532e+8 
           5270      3.80013e+8 
           5290       3.7479e+8 
           5310      3.69647e+8 
           5330      3.64597e+8 
           5350      3.59639e+8 
           5370       3.5477e+8 
           5390      3.49976e+8 
           5410      3.45244e+8 
           5430      3.40623e+8 
           5450      3.36073e+8 
           5470      3.31592e+8 
           5490      3.27194e+8 
           5510      3.22862e+8 
           5530      3.18609e+8 
           5550      3.14421e+8 
           5570      3.10297e+8 
           5590      3.06248e+8 
           5610      3.02261e+8 
           5630      2.98347e+8 
           5650       2.9448e+8 
           5670      2.90683e+8 
           5690      2.86933e+8 
           5710      2.83274e+8 
           5730      2.79659e+8 
           5750      2.76088e+8 
           5770      2.72604e+8 
           5790      2.69162e+8 
           5810      2.65772e+8 
           5830      2.62433e+8 
           5850      2.59156e+8 
           5870       2.4752e+8 
           5890      2.52282e+8 
           5910      2.49606e+8 
           5930      2.46522e+8 
           5950      2.43484e+8 
           5970      2.40492e+8 
           5990      2.37545e+8 
           6010      2.34652e+8 
           6030      2.31793e+8 
           6050      2.28986e+8 
           6070      2.26212e+8 
           6090      2.23489e+8 
           6110      2.20808e+8 
           6130      2.18156e+8 
           6150      2.15554e+8 
           6170      2.12981e+8 
           6190      2.10457e+8 
           6210       2.0797e+8 
           6230      2.05511e+8 
           6250      2.03089e+8 
           6270      2.00713e+8 
           6290      1.98362e+8 
           6310      1.96047e+8 
           6330      1.93767e+8 
           6350       1.9152e+8 
           6370      1.89308e+8 
           6390      1.87128e+8 
           6410      1.84981e+8 
           6430      1.82857e+8 
           6450      1.80765e+8 
           6470      1.78704e+8 
           6490      1.76674e+8 
           6510       1.7447e+8 
           6530       1.7168e+8 
           6550      1.63257e+8 
           6570      1.44775e+8 
           6590      1.64856e+8 
           6610      1.64592e+8 
           6630       1.6325e+8 
           6650      1.61536e+8 
           6670      1.57919e+8 
           6690      1.56235e+8 
           6710      1.56251e+8 
           6730      1.54525e+8 
           6750      1.52842e+8 
           6770      1.51167e+8 
           6790      1.49518e+8 
           6810      1.47902e+8 
           6830      1.46294e+8 
           6850      1.44718e+8 
           6870      1.43159e+8 
           6890      1.41622e+8 
           6910      1.40102e+8 
           6930      1.38604e+8 
           6950      1.37129e+8 
           6970      1.35676e+8 
           6990      1.34238e+8 
           7010      1.32821e+8 
           7030      1.31418e+8 
           7050      1.30037e+8 
           7070      1.26476e+8 
           7090       1.2733e+8 
           7110      1.26003e+8 
           7130       1.2469e+8 
           7150      1.23396e+8 
           7170      1.22101e+8 
           7190      1.20861e+8 
           7210      1.19612e+8 
           7230      1.18346e+8 
           7250       1.1717e+8 
           7270      1.15978e+8 
           7290       1.1379e+8 
           7310      1.13612e+8 
           7330      1.12474e+8 
           7350       1.1134e+8 
           7370      1.10216e+8 
           7390       1.0911e+8 
           7410      1.08014e+8 
           7430      1.06928e+8 
           7450       1.0588e+8 
           7470      1.04821e+8 
           7490      1.03785e+8 
           7510      1.02719e+8 
           7530      1.01735e+8 
           7550      1.00734e+8 
           7570      9.97426e+7 
           7590      9.87664e+7 
           7610      9.77991e+7 
           7630       9.6847e+7 
           7650      9.59035e+7 
           7670      9.49686e+7 
           7690      9.40484e+7 
           7710      9.31365e+7 
           7730      9.22391e+7 
           7750      9.13559e+7 
           7770      9.04744e+7 
           7790      8.96131e+7 
           7810      8.87038e+7 
           7830      8.79072e+7 
           7850      8.71663e+7 
           7870      8.63346e+7 
           7890      8.54617e+7 
           7910       8.4717e+7 
           7930      8.39188e+7 
           7950      8.31156e+7 
           7970      8.21771e+7 
           7990      8.13944e+7 
           8010      8.06186e+7 
           8030      7.98552e+7 
           8050      7.91218e+7 
           8070       7.8435e+7 
           8090      7.75872e+7 
           8110      7.69816e+7 
           8130      7.63184e+7 
           8150      7.55529e+7 
           8170      7.49633e+7 
           8190      7.41764e+7 
           8210      7.34131e+7 
           8230       7.2951e+7 
           8250      7.23099e+7 
           8270      7.12996e+7 
           8290      7.09615e+7 
           8310       7.0353e+7 
           8330      6.96844e+7 
           8350       6.8708e+7 
           8370      6.83316e+7 
           8390      6.78296e+7 
           8410      6.72251e+7 
           8430      6.65725e+7 
           8450      6.55085e+7 
           8470      6.53676e+7 
           8490      6.46366e+7 
           8510      6.40991e+7 
           8530      6.34933e+7 
           8550      6.25215e+7 
           8570      6.29174e+7 
