Wavelength,Transmission
37450.0,0.00101415
37460.0,0.00105713
37470.0,0.00110211
37480.0,0.00115002
37490.0,0.00120003
37500.0,0.00125204
37510.0,0.00130616
37520.0,0.00136234
37530.0,0.00141964
37540.0,0.00147832
37550.0,0.00153889
37560.0,0.00160221
37570.0,0.00166745
37580.0,0.00173453
37590.0,0.00180365
37600.0,0.00187496
37610.0,0.00194864
37620.0,0.00202506
37630.0,0.00210547
37640.0,0.0021894
37650.0,0.00227622
37660.0,0.00236599
37670.0,0.00246019
37680.0,0.00255839
37690.0,0.00266036
37700.0,0.00276622
37710.0,0.0028776
37720.0,0.00299229
37730.0,0.00311006
37740.0,0.00323104
37750.0,0.00335812
37760.0,0.00348933
37770.0,0.00362464
37780.0,0.00376438
37790.0,0.00390996
37800.0,0.0040597
37810.0,0.0042141
37820.0,0.0043747
37830.0,0.00454399
37840.0,0.00471963
37850.0,0.00490171
37860.0,0.00509163
37870.0,0.00528976
37880.0,0.00549466
37890.0,0.00570671
37900.0,0.00592963
37910.0,0.00616344
37920.0,0.00640624
37930.0,0.00665804
37940.0,0.0069233
37950.0,0.00720034
37960.0,0.00748833
37970.0,0.00778792
37980.0,0.0081069
37990.0,0.00844015
38000.0,0.00878715
38010.0,0.00914855
38020.0,0.00953283
38030.0,0.00993352
38040.0,0.0103515
38050.0,0.0107898
38060.0,0.011257
38070.0,0.0117453
38080.0,0.0122555
38090.0,0.0127928
38100.0,0.013364
38110.0,0.0139623
38120.0,0.0145886
38130.0,0.0152532
38140.0,0.0159597
38150.0,0.016701
38160.0,0.0174779
38170.0,0.0183063
38180.0,0.0191844
38190.0,0.0201064
38200.0,0.0210743
38210.0,0.0221142
38220.0,0.0232141
38230.0,0.0243712
38240.0,0.0255877
38250.0,0.0269016
38260.0,0.0282865
38270.0,0.0297446
38280.0,0.0312841
38290.0,0.0329473
38300.0,0.0347012
38310.0,0.0365498
38320.0,0.0385111
38330.0,0.0406227
38340.0,0.0428506
38350.0,0.0451983
38360.0,0.0477024
38370.0,0.0503878
38380.0,0.0532213
38390.0,0.0562075
38400.0,0.0594065
38410.0,0.0628223
38420.0,0.0664231
38430.0,0.0702165
38440.0,0.074295
38450.0,0.0786246
38460.0,0.0831837
38470.0,0.0879802
38480.0,0.0931487
38490.0,0.098603
38500.0,0.104335
38510.0,0.11036
38520.0,0.116843
38530.0,0.123643
38540.0,0.130769
38550.0,0.13826
38560.0,0.146251
38570.0,0.154601
38580.0,0.163312
38590.0,0.172457
38600.0,0.182111
38610.0,0.192145
38620.0,0.202555
38630.0,0.21344
38640.0,0.224804
38650.0,0.236533
38660.0,0.248626
38670.0,0.261191
38680.0,0.274152
38690.0,0.287432
38700.0,0.301019
38710.0,0.31501
38720.0,0.329271
38730.0,0.343759
38740.0,0.35846
38750.0,0.373411
38760.0,0.388491
38770.0,0.403675
38780.0,0.418938
38790.0,0.434234
38800.0,0.449514
38810.0,0.464748
38820.0,0.479901
38830.0,0.494897
38840.0,0.509751
38850.0,0.524435
38860.0,0.538881
38870.0,0.553033
38880.0,0.566936
38890.0,0.58058
38900.0,0.593869
38910.0,0.606794
38920.0,0.619416
38930.0,0.631729
38940.0,0.643597
38950.0,0.655087
38960.0,0.666248
38970.0,0.67708
38980.0,0.687417
38990.0,0.697401
39000.0,0.707062
39010.0,0.716394
39020.0,0.725235
39030.0,0.73377
39040.0,0.741999
39050.0,0.7499
39060.0,0.757375
39070.0,0.764574
39080.0,0.771499
39090.0,0.778113
39100.0,0.784372
39110.0,0.790383
39120.0,0.796152
39130.0,0.801622
39140.0,0.806791
39150.0,0.811738
39160.0,0.816467
39170.0,0.820917
39180.0,0.82512
39190.0,0.829125
39200.0,0.832938
39210.0,0.836489
39220.0,0.83984
39230.0,0.843018
39240.0,0.846029
39250.0,0.848808
39260.0,0.851431
39270.0,0.853906
39280.0,0.856228
39290.0,0.858352
39300.0,0.860348
39310.0,0.862217
39320.0,0.863947
39330.0,0.86552
39340.0,0.866986
39350.0,0.868349
39360.0,0.869588
39370.0,0.870708
39380.0,0.871745
39390.0,0.872701
39400.0,0.873554
39410.0,0.87432
39420.0,0.875023
39430.0,0.875665
39440.0,0.876224
39450.0,0.876721
39460.0,0.87717
39470.0,0.877574
39480.0,0.877915
39490.0,0.878213
39500.0,0.878478
39510.0,0.878713
39520.0,0.878908
39530.0,0.879077
39540.0,0.879224
39550.0,0.879354
39560.0,0.879463
39570.0,0.879557
39580.0,0.87964
39590.0,0.879713
39600.0,0.879778
39610.0,0.879836
39620.0,0.879886
39630.0,0.879931
39640.0,0.879977
39650.0,0.880022
39660.0,0.880064
39670.0,0.880103
39680.0,0.880147
39690.0,0.880194
39700.0,0.880243
39710.0,0.880295
39720.0,0.880354
39730.0,0.880419
39740.0,0.880489
39750.0,0.880563
39760.0,0.880644
39770.0,0.880731
39780.0,0.880828
39790.0,0.880925
39800.0,0.881028
39810.0,0.881137
39820.0,0.881252
39830.0,0.88137
39840.0,0.88149
39850.0,0.881614
39860.0,0.881744
39870.0,0.881879
39880.0,0.882014
39890.0,0.88215
39900.0,0.882294
39910.0,0.882441
39920.0,0.882588
39930.0,0.882735
39940.0,0.882885
39950.0,0.883037
39960.0,0.88319
39970.0,0.883342
39980.0,0.883492
39990.0,0.883647
40000.0,0.883801
40010.0,0.883955
40020.0,0.884104
40030.0,0.884257
40040.0,0.88441
40050.0,0.884563
40060.0,0.884714
40070.0,0.884867
40080.0,0.88502
40090.0,0.885176
40100.0,0.885325
40110.0,0.885473
40120.0,0.885619
40130.0,0.885768
40140.0,0.885911
40150.0,0.886053
40160.0,0.886193
40170.0,0.886333
40180.0,0.886471
40190.0,0.886606
40200.0,0.886737
40210.0,0.886869
40220.0,0.887004
40230.0,0.887137
40240.0,0.887265
40250.0,0.887395
40260.0,0.887524
40270.0,0.887651
40280.0,0.887775
40290.0,0.887894
40300.0,0.888013
40310.0,0.888132
40320.0,0.888248
40330.0,0.888357
40340.0,0.888466
40350.0,0.888575
40360.0,0.888681
40370.0,0.888781
40380.0,0.888879
40390.0,0.888976
40400.0,0.889074
40410.0,0.889168
40420.0,0.889258
40430.0,0.889346
40440.0,0.889435
40450.0,0.88952
40460.0,0.889602
40470.0,0.88968
40480.0,0.889755
40490.0,0.889831
40500.0,0.889902
40510.0,0.889966
40520.0,0.890026
40530.0,0.890084
40540.0,0.89014
40550.0,0.890192
40560.0,0.890238
40570.0,0.890282
40580.0,0.890326
40590.0,0.890368
40600.0,0.890403
40610.0,0.890437
40620.0,0.890471
40630.0,0.890503
40640.0,0.89053
40650.0,0.890552
40660.0,0.890571
40670.0,0.890589
40680.0,0.890605
40690.0,0.890615
40700.0,0.89062
40710.0,0.890623
40720.0,0.890624
40730.0,0.890621
40740.0,0.890616
40750.0,0.890609
40760.0,0.890605
40770.0,0.890601
40780.0,0.890593
40790.0,0.890582
40800.0,0.890574
40810.0,0.890568
40820.0,0.890563
40830.0,0.890554
40840.0,0.890544
40850.0,0.890534
40860.0,0.890525
40870.0,0.890512
40880.0,0.8905
40890.0,0.890488
40900.0,0.89048
40910.0,0.890474
40920.0,0.890467
40930.0,0.890461
40940.0,0.890459
40950.0,0.890464
40960.0,0.89047
40970.0,0.890476
40980.0,0.890483
40990.0,0.890494
41000.0,0.890506
41010.0,0.890519
41020.0,0.890529
41030.0,0.890542
41040.0,0.890557
41050.0,0.890574
41060.0,0.890591
41070.0,0.89061
41080.0,0.890633
41090.0,0.890661
41100.0,0.890692
41110.0,0.890722
41120.0,0.890754
41130.0,0.890791
41140.0,0.890831
41150.0,0.890871
41160.0,0.890911
41170.0,0.890949
41180.0,0.890989
41190.0,0.891026
41200.0,0.89106
41210.0,0.891091
41220.0,0.891124
41230.0,0.891156
41240.0,0.891188
41250.0,0.891215
41260.0,0.89124
41270.0,0.891267
41280.0,0.891297
41290.0,0.891324
41300.0,0.891352
41310.0,0.891378
41320.0,0.891406
41330.0,0.891433
41340.0,0.891457
41350.0,0.891476
41360.0,0.891493
41370.0,0.891506
41380.0,0.891515
41390.0,0.891518
41400.0,0.891511
41410.0,0.891501
41420.0,0.891488
41430.0,0.891473
41440.0,0.891452
41450.0,0.891429
41460.0,0.891406
41470.0,0.891383
41480.0,0.891358
41490.0,0.891329
41500.0,0.891298
41510.0,0.891267
41520.0,0.891232
41530.0,0.891191
41540.0,0.891144
41550.0,0.891091
41560.0,0.891035
41570.0,0.890973
41580.0,0.890906
41590.0,0.890834
41600.0,0.890759
41610.0,0.890685
41620.0,0.890611
41630.0,0.890534
41640.0,0.890456
41650.0,0.890379
41660.0,0.890304
41670.0,0.890228
41680.0,0.890148
41690.0,0.890066
41700.0,0.889983
41710.0,0.889899
41720.0,0.889811
41730.0,0.889719
41740.0,0.889624
41750.0,0.889528
41760.0,0.889431
41770.0,0.889332
41780.0,0.889229
41790.0,0.889129
41800.0,0.88903
41810.0,0.888934
41820.0,0.88884
41830.0,0.888746
41840.0,0.888655
41850.0,0.888567
41860.0,0.888483
41870.0,0.8884
41880.0,0.888317
41890.0,0.888236
41900.0,0.888158
41910.0,0.888081
41920.0,0.888002
41930.0,0.887921
41940.0,0.887843
41950.0,0.887769
41960.0,0.887696
41970.0,0.887623
41980.0,0.887553
41990.0,0.887487
42000.0,0.887426
42010.0,0.887368
42020.0,0.887315
42030.0,0.887266
42040.0,0.887222
42050.0,0.887184
42060.0,0.887148
42070.0,0.887113
42080.0,0.88708
42090.0,0.88705
42100.0,0.887025
42110.0,0.887
42120.0,0.886975
42130.0,0.886951
42140.0,0.886932
42150.0,0.886916
42160.0,0.886902
42170.0,0.88689
42180.0,0.886883
42190.0,0.886881
42200.0,0.886883
42210.0,0.88689
42220.0,0.886899
42230.0,0.886909
42240.0,0.886921
42250.0,0.886935
42260.0,0.886947
42270.0,0.886956
42280.0,0.886963
42290.0,0.886968
42300.0,0.886969
42310.0,0.886964
42320.0,0.886953
42330.0,0.886937
42340.0,0.886922
42350.0,0.886908
42360.0,0.886895
42370.0,0.886884
42380.0,0.886878
42390.0,0.886877
42400.0,0.886885
42410.0,0.8869
42420.0,0.88692
42430.0,0.886946
42440.0,0.886979
42450.0,0.887015
42460.0,0.88705
42470.0,0.887085
42480.0,0.887118
42490.0,0.887151
42500.0,0.887182
42510.0,0.88721
42520.0,0.887234
42530.0,0.887261
42540.0,0.887289
42550.0,0.887321
42560.0,0.887355
42570.0,0.887391
42580.0,0.88743
42590.0,0.887474
42600.0,0.887521
42610.0,0.88757
42620.0,0.887618
42630.0,0.887666
42640.0,0.887713
42650.0,0.887759
42660.0,0.887803
42670.0,0.887841
42680.0,0.887876
42690.0,0.88791
42700.0,0.887942
42710.0,0.887971
42720.0,0.887997
42730.0,0.888022
42740.0,0.888048
42750.0,0.888076
42760.0,0.888105
42770.0,0.888134
42780.0,0.888164
42790.0,0.888198
42800.0,0.888234
42810.0,0.888269
42820.0,0.888302
42830.0,0.888332
42840.0,0.888359
42850.0,0.888385
42860.0,0.888406
42870.0,0.888421
42880.0,0.888433
42890.0,0.888442
42900.0,0.88845
42910.0,0.888454
42920.0,0.888457
42930.0,0.88846
42940.0,0.888465
42950.0,0.888472
42960.0,0.888482
42970.0,0.888492
42980.0,0.888502
42990.0,0.888513
43000.0,0.888524
43010.0,0.888535
43020.0,0.888543
43030.0,0.888549
43040.0,0.888553
43050.0,0.888556
43060.0,0.888554
43070.0,0.888548
43080.0,0.888539
43090.0,0.888528
43100.0,0.888519
43110.0,0.888509
43120.0,0.8885
43130.0,0.888489
43140.0,0.888478
43150.0,0.888467
43160.0,0.888458
43170.0,0.888449
43180.0,0.88844
43190.0,0.88843
43200.0,0.88842
43210.0,0.888407
43220.0,0.888389
43230.0,0.888368
43240.0,0.888344
43250.0,0.888316
43260.0,0.888285
43270.0,0.888252
43280.0,0.888214
43290.0,0.888171
43300.0,0.888126
43310.0,0.888079
43320.0,0.888033
43330.0,0.887985
43340.0,0.887936
43350.0,0.887886
43360.0,0.887836
43370.0,0.887783
43380.0,0.887727
43390.0,0.887669
43400.0,0.887608
43410.0,0.887544
43420.0,0.887477
43430.0,0.887404
43440.0,0.887326
43450.0,0.887241
43460.0,0.887152
43470.0,0.887061
43480.0,0.886964
43490.0,0.886862
43500.0,0.886757
43510.0,0.886648
43520.0,0.886536
43530.0,0.886421
43540.0,0.886304
43550.0,0.886183
43560.0,0.886058
43570.0,0.885929
43580.0,0.885797
43590.0,0.88566
43600.0,0.885517
43610.0,0.885368
43620.0,0.885214
43630.0,0.885052
43640.0,0.88488
43650.0,0.884703
43660.0,0.884519
43670.0,0.884329
43680.0,0.884133
43690.0,0.883933
43700.0,0.883728
43710.0,0.883519
43720.0,0.883307
43730.0,0.883094
43740.0,0.882881
43750.0,0.882666
43760.0,0.88245
43770.0,0.882232
43780.0,0.882015
43790.0,0.881793
43800.0,0.88157
43810.0,0.881345
43820.0,0.881115
43830.0,0.880883
43840.0,0.88065
43850.0,0.880415
43860.0,0.880181
43870.0,0.879946
43880.0,0.879711
43890.0,0.879479
43900.0,0.879248
43910.0,0.879023
43920.0,0.878802
43930.0,0.878585
43940.0,0.878373
43950.0,0.878166
43960.0,0.877962
43970.0,0.877762
43980.0,0.877568
43990.0,0.87738
44000.0,0.877196
44010.0,0.877016
44020.0,0.876841
44030.0,0.876671
44040.0,0.876505
44050.0,0.876344
44060.0,0.876193
44070.0,0.876046
44080.0,0.875905
44090.0,0.875772
44100.0,0.875646
44110.0,0.875527
44120.0,0.875416
44130.0,0.875315
44140.0,0.875224
44150.0,0.875142
44160.0,0.875067
44170.0,0.875002
44180.0,0.874945
44190.0,0.874894
44200.0,0.874849
44210.0,0.874811
44220.0,0.874778
44230.0,0.874749
44240.0,0.874724
44250.0,0.874702
44260.0,0.874685
44270.0,0.874672
44280.0,0.874661
44290.0,0.874659
44300.0,0.874661
44310.0,0.874668
44320.0,0.87468
44330.0,0.874698
44340.0,0.874721
44350.0,0.87475
44360.0,0.874784
44370.0,0.874822
44380.0,0.874863
44390.0,0.874906
44400.0,0.874951
44410.0,0.874998
44420.0,0.875046
44430.0,0.875094
44440.0,0.875143
44450.0,0.875192
44460.0,0.875242
44470.0,0.875292
44480.0,0.87534
44490.0,0.875389
44500.0,0.875438
44510.0,0.875486
44520.0,0.875537
44530.0,0.875587
44540.0,0.875638
44550.0,0.875689
44560.0,0.875741
44570.0,0.875793
44580.0,0.875845
44590.0,0.875896
44600.0,0.875945
44610.0,0.875993
44620.0,0.87604
44630.0,0.876084
44640.0,0.876127
44650.0,0.876166
44660.0,0.876202
44670.0,0.876236
44680.0,0.876265
44690.0,0.876293
44700.0,0.876319
44710.0,0.87634
44720.0,0.87636
44730.0,0.876379
44740.0,0.876396
44750.0,0.87641
44760.0,0.87642
44770.0,0.876429
44780.0,0.876435
44790.0,0.876441
44800.0,0.876443
44810.0,0.876443
44820.0,0.87644
44830.0,0.876431
44840.0,0.876419
44850.0,0.876404
44860.0,0.876384
44870.0,0.87636
44880.0,0.876332
44890.0,0.876302
44900.0,0.876268
44910.0,0.876233
44920.0,0.876194
44930.0,0.876152
44940.0,0.876108
44950.0,0.876061
44960.0,0.876013
44970.0,0.875964
44980.0,0.87591
44990.0,0.875853
45000.0,0.875792
45010.0,0.875728
45020.0,0.875661
45030.0,0.87559
45040.0,0.875515
45050.0,0.875437
45060.0,0.875355
45070.0,0.875269
45080.0,0.87518
45090.0,0.875088
45100.0,0.874987
45110.0,0.874884
45120.0,0.874779
45130.0,0.87467
45140.0,0.874557
45150.0,0.874441
45160.0,0.874321
45170.0,0.874197
45180.0,0.87407
45190.0,0.873942
45200.0,0.87381
45210.0,0.873674
45220.0,0.873534
45230.0,0.873392
45240.0,0.873248
45250.0,0.873099
45260.0,0.872945
45270.0,0.872788
45280.0,0.872627
45290.0,0.872464
45300.0,0.872298
45310.0,0.87213
45320.0,0.871958
45330.0,0.871783
45340.0,0.871605
45350.0,0.871427
45360.0,0.871252
45370.0,0.871073
45380.0,0.870894
45390.0,0.870715
45400.0,0.870534
45410.0,0.870355
45420.0,0.870176
45430.0,0.869996
45440.0,0.869813
45450.0,0.869629
45460.0,0.869444
45470.0,0.869256
45480.0,0.869069
45490.0,0.868878
45500.0,0.868685
45510.0,0.868491
45520.0,0.868297
45530.0,0.868104
45540.0,0.867911
45550.0,0.867719
45560.0,0.867528
45570.0,0.867341
45580.0,0.867157
45590.0,0.866974
45600.0,0.866796
45610.0,0.866617
45620.0,0.86644
45630.0,0.866267
45640.0,0.8661
45650.0,0.865935
45660.0,0.865772
45670.0,0.86561
45680.0,0.86545
45690.0,0.865293
45700.0,0.86514
45710.0,0.864988
45720.0,0.864839
45730.0,0.864689
45740.0,0.864539
45750.0,0.864392
45760.0,0.864248
45770.0,0.864106
45780.0,0.863965
45790.0,0.863827
45800.0,0.863691
45810.0,0.863558
45820.0,0.863432
45830.0,0.863309
45840.0,0.863189
45850.0,0.863071
45860.0,0.862956
45870.0,0.862846
45880.0,0.862739
45890.0,0.862633
45900.0,0.862526
45910.0,0.86242
45920.0,0.862314
45930.0,0.86221
45940.0,0.86211
45950.0,0.86201
45960.0,0.86191
45970.0,0.861811
45980.0,0.861716
45990.0,0.861624
46000.0,0.861534
46010.0,0.861448
46020.0,0.86136
46030.0,0.861275
46040.0,0.861193
46050.0,0.861112
46060.0,0.861034
46070.0,0.860955
46080.0,0.860875
46090.0,0.860791
46100.0,0.860711
46110.0,0.86063
46120.0,0.860549
46130.0,0.860469
46140.0,0.860385
46150.0,0.860301
46160.0,0.860218
46170.0,0.860137
46180.0,0.860056
46190.0,0.859973
46200.0,0.85989
46210.0,0.859804
46220.0,0.85972
46230.0,0.859637
46240.0,0.859554
46250.0,0.859468
46260.0,0.85938
46270.0,0.85929
46280.0,0.8592
46290.0,0.859114
46300.0,0.859025
46310.0,0.858935
46320.0,0.858845
46330.0,0.858752
46340.0,0.85866
46350.0,0.858569
46360.0,0.858477
46370.0,0.85838
46380.0,0.858282
46390.0,0.858183
46400.0,0.858082
46410.0,0.857983
46420.0,0.857882
46430.0,0.85778
46440.0,0.857674
46450.0,0.857568
46460.0,0.857464
46470.0,0.85736
46480.0,0.85726
46490.0,0.857157
46500.0,0.857055
46510.0,0.856953
46520.0,0.856853
46530.0,0.856755
46540.0,0.856658
46550.0,0.85656
46560.0,0.85646
46570.0,0.856361
46580.0,0.856264
46590.0,0.856169
46600.0,0.856075
46610.0,0.855981
46620.0,0.855885
46630.0,0.85579
46640.0,0.855699
46650.0,0.85561
46660.0,0.855523
46670.0,0.855439
46680.0,0.855355
46690.0,0.855274
46700.0,0.855198
46710.0,0.855127
46720.0,0.855059
46730.0,0.854992
46740.0,0.854926
46750.0,0.854862
46760.0,0.854804
46770.0,0.85475
46780.0,0.854699
46790.0,0.854649
46800.0,0.854602
46810.0,0.854559
46820.0,0.854519
46830.0,0.854489
46840.0,0.854464
46850.0,0.854442
46860.0,0.854423
46870.0,0.854409
46880.0,0.8544
46890.0,0.854396
46900.0,0.854399
46910.0,0.854403
46920.0,0.854408
46930.0,0.854415
46940.0,0.854427
46950.0,0.854446
46960.0,0.85447
46970.0,0.854497
46980.0,0.854526
46990.0,0.85456
47000.0,0.854598
47010.0,0.854641
47020.0,0.854692
47030.0,0.854746
47040.0,0.854801
47050.0,0.854856
47060.0,0.854918
47070.0,0.854984
47080.0,0.855054
47090.0,0.855128
47100.0,0.855204
47110.0,0.855281
47120.0,0.855362
47130.0,0.855448
47140.0,0.855541
47150.0,0.855638
47160.0,0.855736
47170.0,0.855836
47180.0,0.855938
47190.0,0.856045
47200.0,0.856155
47210.0,0.856266
47220.0,0.856378
47230.0,0.856488
47240.0,0.856598
47250.0,0.85671
47260.0,0.856824
47270.0,0.856938
47280.0,0.857048
47290.0,0.857157
47300.0,0.857263
47310.0,0.85737
47320.0,0.85748
47330.0,0.857592
47340.0,0.857702
47350.0,0.857811
47360.0,0.857919
47370.0,0.858027
47380.0,0.858138
47390.0,0.858251
47400.0,0.858363
47410.0,0.858471
47420.0,0.858577
47430.0,0.858682
47440.0,0.858785
47450.0,0.858888
47460.0,0.858989
47470.0,0.859085
47480.0,0.859175
47490.0,0.859263
47500.0,0.85935
47510.0,0.859436
47520.0,0.859522
47530.0,0.859602
47540.0,0.859679
47550.0,0.859753
47560.0,0.859826
47570.0,0.859899
47580.0,0.859971
47590.0,0.860041
47600.0,0.860104
47610.0,0.860165
47620.0,0.860224
47630.0,0.860283
47640.0,0.860341
47650.0,0.860396
47660.0,0.860448
47670.0,0.860494
47680.0,0.860538
47690.0,0.860583
47700.0,0.860628
47710.0,0.860671
47720.0,0.86071
47730.0,0.860745
47740.0,0.860777
47750.0,0.860807
47760.0,0.860839
47770.0,0.860869
47780.0,0.860898
47790.0,0.860922
47800.0,0.860944
47810.0,0.860966
47820.0,0.860991
47830.0,0.861018
47840.0,0.861046
47850.0,0.861073
47860.0,0.8611
47870.0,0.861127
47880.0,0.861156
47890.0,0.861187
47900.0,0.861219
47910.0,0.861247
47920.0,0.861272
47930.0,0.861297
47940.0,0.861321
47950.0,0.861347
47960.0,0.861374
47970.0,0.8614
47980.0,0.861423
47990.0,0.861445
48000.0,0.861468
48010.0,0.861494
48020.0,0.861524
48030.0,0.861554
48040.0,0.861584
48050.0,0.861612
48060.0,0.861642
48070.0,0.861676
48080.0,0.861713
48090.0,0.861752
48100.0,0.861792
48110.0,0.861829
48120.0,0.861866
48130.0,0.861904
48140.0,0.861944
48150.0,0.861984
48160.0,0.862023
48170.0,0.862057
48180.0,0.862084
48190.0,0.862109
48200.0,0.862134
48210.0,0.862158
48220.0,0.862178
48230.0,0.862195
48240.0,0.862206
48250.0,0.862212
48260.0,0.862218
48270.0,0.862223
48280.0,0.862228
48290.0,0.862228
48300.0,0.862223
48310.0,0.862213
48320.0,0.862199
48330.0,0.862185
48340.0,0.86217
48350.0,0.862152
48360.0,0.862126
48370.0,0.86209
48380.0,0.862046
48390.0,0.861996
48400.0,0.861941
48410.0,0.861879
48420.0,0.861808
48430.0,0.861726
48440.0,0.861632
48450.0,0.861526
48460.0,0.861413
48470.0,0.861294
48480.0,0.861166
48490.0,0.861023
48500.0,0.860869
48510.0,0.860706
48520.0,0.86053
48530.0,0.860347
48540.0,0.860157
48550.0,0.859959
48560.0,0.859742
48570.0,0.859514
48580.0,0.859276
48590.0,0.859029
48600.0,0.858772
48610.0,0.858506
48620.0,0.858229
48630.0,0.857938
48640.0,0.857631
48650.0,0.857313
48660.0,0.856987
48670.0,0.856651
48680.0,0.856301
48690.0,0.855938
48700.0,0.855562
48710.0,0.855174
48720.0,0.854777
48730.0,0.854373
48740.0,0.853963
48750.0,0.853541
48760.0,0.853107
48770.0,0.852664
48780.0,0.852215
48790.0,0.85176
48800.0,0.851302
48810.0,0.85084
48820.0,0.850373
48830.0,0.849896
48840.0,0.849415
48850.0,0.84893
48860.0,0.848445
48870.0,0.847958
48880.0,0.847466
48890.0,0.846971
48900.0,0.84647
48910.0,0.845966
48920.0,0.845463
48930.0,0.844962
48940.0,0.844462
48950.0,0.84396
48960.0,0.843456
48970.0,0.842952
48980.0,0.842451
48990.0,0.841957
49000.0,0.841467
49010.0,0.840982
49020.0,0.840499
49030.0,0.840019
49040.0,0.839543
49050.0,0.839073
49060.0,0.838614
49070.0,0.838162
49080.0,0.837715
49090.0,0.837271
49100.0,0.836831
49110.0,0.836397
49120.0,0.835968
49130.0,0.835548
49140.0,0.835133
49150.0,0.83472
49160.0,0.834308
49170.0,0.833897
49180.0,0.833489
