Wavelength,Transmission
3247.5,7e-05
3250.0,0.00011
3252.5,0.00015
3255.0,0.0002
3257.5,0.00028
3260.0,0.00038
3262.5,0.00052
3265.0,0.00069
3267.5,0.00091
3270.0,0.00118
3272.5,0.00149
3275.0,0.00187
3277.5,0.00234
3280.0,0.00289
3282.5,0.00352
3285.0,0.00423
3287.5,0.00509
3290.0,0.00606
3292.5,0.0071
3295.0,0.00827
3297.5,0.00957
3300.0,0.01099
3302.5,0.01252
3305.0,0.01416
3307.5,0.01594
3310.0,0.01784
3312.5,0.0198
3315.0,0.02187
3317.5,0.02406
3320.0,0.02631
3322.5,0.02863
3325.0,0.03101
3327.5,0.03347
3330.0,0.03599
3332.5,0.03855
3335.0,0.04117
3337.5,0.04384
3340.0,0.04654
3342.5,0.04925
3345.0,0.05199
3347.5,0.05474
3350.0,0.05748
3352.5,0.06018
3355.0,0.06289
3357.5,0.06558
3360.0,0.06828
3362.5,0.07099
3365.0,0.07368
3367.5,0.07636
3370.0,0.07898
3372.5,0.08158
3375.0,0.08413
3377.5,0.08665
3380.0,0.08916
3382.5,0.09166
3385.0,0.09414
3387.5,0.09659
3390.0,0.09901
3392.5,0.1014
3395.0,0.10374
3397.5,0.10607
3400.0,0.10837
3402.5,0.11068
3405.0,0.11297
3407.5,0.11523
3410.0,0.11743
3412.5,0.11961
3415.0,0.12173
3417.5,0.12379
3420.0,0.12581
3422.5,0.12778
3425.0,0.12968
3427.5,0.13154
3430.0,0.13333
3432.5,0.1351
3435.0,0.13683
3437.5,0.1385
3440.0,0.14013
3442.5,0.14175
3445.0,0.14334
3447.5,0.14488
3450.0,0.14633
3452.5,0.14772
3455.0,0.14904
3457.5,0.15029
3460.0,0.1515
3462.5,0.15268
3465.0,0.15382
3467.5,0.1549
3470.0,0.15593
3472.5,0.15692
3475.0,0.15786
3477.5,0.15875
3480.0,0.15959
3482.5,0.16039
3485.0,0.16117
3487.5,0.16187
3490.0,0.16255
3492.5,0.16319
3495.0,0.16379
3497.5,0.16435
3500.0,0.16486
3502.5,0.16535
3505.0,0.1658
3507.5,0.1662
3510.0,0.16654
3512.5,0.16686
3515.0,0.16712
3517.5,0.16733
3520.0,0.1675
3522.5,0.16765
3525.0,0.16776
3527.5,0.16783
3530.0,0.1679
3532.5,0.16798
3535.0,0.16806
3537.5,0.16809
3540.0,0.16809
3542.5,0.16805
3545.0,0.16795
3547.5,0.16783
3550.0,0.16767
3552.5,0.1675
3555.0,0.16733
3557.5,0.1671
3560.0,0.16684
3562.5,0.16654
3565.0,0.1662
3567.5,0.16583
3570.0,0.16548
3572.5,0.16515
3575.0,0.16484
3577.5,0.1645
3580.0,0.16412
3582.5,0.16369
3585.0,0.16322
3587.5,0.16273
3590.0,0.16223
3592.5,0.16173
3595.0,0.16122
3597.5,0.16072
3600.0,0.16023
3602.5,0.15974
3605.0,0.15927
3607.5,0.15879
3610.0,0.15826
3612.5,0.15767
3615.0,0.15706
3617.5,0.15644
3620.0,0.15585
3622.5,0.15533
3625.0,0.15484
3627.5,0.15435
3630.0,0.15384
3632.5,0.15329
3635.0,0.15272
3637.5,0.15214
3640.0,0.1516
3642.5,0.15108
3645.0,0.15059
3647.5,0.15007
3650.0,0.14956
3652.5,0.14907
3655.0,0.14859
3657.5,0.14811
3660.0,0.1476
3662.5,0.14709
3665.0,0.14656
3667.5,0.14604
3670.0,0.14555
3672.5,0.1451
3675.0,0.14468
3677.5,0.14429
3680.0,0.1439
3682.5,0.14353
3685.0,0.14318
3687.5,0.14283
3690.0,0.14247
3692.5,0.14208
3695.0,0.14168
3697.5,0.1413
3700.0,0.14097
3702.5,0.1407
3705.0,0.14046
3707.5,0.14024
3710.0,0.14
3712.5,0.13973
3715.0,0.13944
3717.5,0.13916
3720.0,0.13889
3722.5,0.13864
3725.0,0.1384
3727.5,0.13818
3730.0,0.13798
3732.5,0.13779
3735.0,0.13761
3737.5,0.13747
3740.0,0.13735
3742.5,0.13725
3745.0,0.13718
3747.5,0.13713
3750.0,0.13713
3752.5,0.13714
3755.0,0.13719
3757.5,0.13727
3760.0,0.13736
3762.5,0.13745
3765.0,0.13757
3767.5,0.13771
3770.0,0.13788
3772.5,0.13804
3775.0,0.13825
3777.5,0.13851
3780.0,0.13885
3782.5,0.13925
3785.0,0.13973
3787.5,0.14028
3790.0,0.14089
3792.5,0.14152
3795.0,0.1422
3797.5,0.14297
3800.0,0.14379
3802.5,0.14467
3805.0,0.14561
3807.5,0.14666
3810.0,0.1478
3812.5,0.14899
3815.0,0.1503
3817.5,0.1517
3820.0,0.15317
3822.5,0.15468
3825.0,0.15625
3827.5,0.15792
3830.0,0.15969
3832.5,0.16152
3835.0,0.16345
3837.5,0.16549
3840.0,0.16762
3842.5,0.16979
3845.0,0.17203
3847.5,0.17439
3850.0,0.17688
3852.5,0.17943
3855.0,0.18208
3857.5,0.18487
3860.0,0.18771
3862.5,0.1906
3865.0,0.19355
3867.5,0.1966
3870.0,0.19973
3872.5,0.20291
3875.0,0.20616
3877.5,0.20953
3880.0,0.21295
3882.5,0.21645
3885.0,0.22003
3887.5,0.22368
3890.0,0.22737
3892.5,0.23108
3895.0,0.23482
3897.5,0.23863
3900.0,0.24247
3902.5,0.24633
3905.0,0.25024
3907.5,0.25419
3910.0,0.2582
3912.5,0.26225
3915.0,0.26633
3917.5,0.27045
3920.0,0.27455
3922.5,0.27862
3925.0,0.28267
3927.5,0.28672
3930.0,0.2908
3932.5,0.29492
3935.0,0.29905
3937.5,0.30317
3940.0,0.30724
3942.5,0.31124
3945.0,0.3152
3947.5,0.31911
3950.0,0.32302
3952.5,0.32696
3955.0,0.33089
3957.5,0.33478
3960.0,0.33864
3962.5,0.34245
3965.0,0.34621
3967.5,0.34993
3970.0,0.3536
3972.5,0.35723
3975.0,0.36081
3977.5,0.36437
3980.0,0.36795
3982.5,0.37156
3985.0,0.37519
3987.5,0.37879
3990.0,0.38233
3992.5,0.38583
3995.0,0.38928
3997.5,0.39268
4000.0,0.39599
4002.5,0.39924
4005.0,0.40244
4007.5,0.4056
4010.0,0.40877
4012.5,0.41197
4015.0,0.41519
4017.5,0.41842
4020.0,0.42168
4022.5,0.42499
4025.0,0.42833
4027.5,0.43165
4030.0,0.43488
4032.5,0.43802
4035.0,0.44107
4037.5,0.44407
4040.0,0.44705
4042.5,0.45003
4045.0,0.453
4047.5,0.45595
4050.0,0.45893
4052.5,0.46195
4055.0,0.46498
4057.5,0.46798
4060.0,0.47092
4062.5,0.4738
4065.0,0.47663
4067.5,0.47941
4070.0,0.48219
4072.5,0.48497
4075.0,0.48775
4077.5,0.49052
4080.0,0.4933
4082.5,0.49607
4085.0,0.49884
4087.5,0.5016
4090.0,0.50434
4092.5,0.50703
4095.0,0.50971
4097.5,0.51239
4100.0,0.51509
4102.5,0.51785
4105.0,0.52065
4107.5,0.52346
4110.0,0.52626
4112.5,0.52906
4115.0,0.53184
4117.5,0.5346
4120.0,0.5373
4122.5,0.53995
4125.0,0.54256
4127.5,0.54512
4130.0,0.54765
4132.5,0.55017
4135.0,0.55267
4137.5,0.55517
4140.0,0.5577
4142.5,0.56027
4145.0,0.56286
4147.5,0.56547
4150.0,0.56807
4152.5,0.57064
4155.0,0.57321
4157.5,0.57575
4160.0,0.57828
4162.5,0.58082
4165.0,0.58333
4167.5,0.58583
4170.0,0.58835
4172.5,0.59088
4175.0,0.59342
4177.5,0.59595
4180.0,0.59843
4182.5,0.60088
4185.0,0.60329
4187.5,0.60569
4190.0,0.60807
4192.5,0.61047
4195.0,0.61285
4197.5,0.61523
4200.0,0.61762
4202.5,0.62002
4205.0,0.62243
4207.5,0.62483
4210.0,0.6272
4212.5,0.62951
4215.0,0.6318
4217.5,0.63411
4220.0,0.63645
4222.5,0.63886
4225.0,0.64133
4227.5,0.64379
4230.0,0.6462
4232.5,0.64853
4235.0,0.65081
4237.5,0.65305
4240.0,0.65524
4242.5,0.65738
4245.0,0.65949
4247.5,0.66158
4250.0,0.66372
4252.5,0.66592
4255.0,0.66815
4257.5,0.67042
4260.0,0.6727
4262.5,0.67501
4265.0,0.67732
4267.5,0.67962
4270.0,0.68189
4272.5,0.68411
4275.0,0.68629
4277.5,0.68843
4280.0,0.69054
4282.5,0.6926
4285.0,0.69463
4287.5,0.69665
4290.0,0.69868
4292.5,0.70073
4295.0,0.70279
4297.5,0.70483
4300.0,0.70685
4302.5,0.70882
4305.0,0.71076
4307.5,0.71268
4310.0,0.71458
4312.5,0.71647
4315.0,0.71835
4317.5,0.72023
4320.0,0.72213
4322.5,0.72407
4325.0,0.72602
4327.5,0.72798
4330.0,0.72992
4332.5,0.73184
4335.0,0.73375
4337.5,0.73564
4340.0,0.73754
4342.5,0.73945
4345.0,0.74136
4347.5,0.74324
4350.0,0.7451
4352.5,0.74695
4355.0,0.74877
4357.5,0.75053
4360.0,0.75221
4362.5,0.75379
4365.0,0.7553
4367.5,0.75677
4370.0,0.75828
4372.5,0.75984
4375.0,0.76145
4377.5,0.76304
4380.0,0.76463
4382.5,0.76622
4385.0,0.76779
4387.5,0.76936
4390.0,0.77094
4392.5,0.77253
4395.0,0.77412
4397.5,0.77572
4400.0,0.7773
4402.5,0.77885
4405.0,0.78039
4407.5,0.78193
4410.0,0.78346
4412.5,0.78499
4415.0,0.78653
4417.5,0.78808
4420.0,0.78961
4422.5,0.79117
4425.0,0.79272
4427.5,0.79427
4430.0,0.79577
4432.5,0.79723
4435.0,0.79866
4437.5,0.80007
4440.0,0.80151
4442.5,0.80295
4445.0,0.80442
4447.5,0.80586
4450.0,0.80728
4452.5,0.80864
4455.0,0.80996
4457.5,0.81124
4460.0,0.81248
4462.5,0.81369
4465.0,0.81485
4467.5,0.81601
4470.0,0.81723
4472.5,0.81854
4475.0,0.81988
4477.5,0.82125
4480.0,0.82263
4482.5,0.82403
4485.0,0.82543
4487.5,0.82679
4490.0,0.82809
4492.5,0.82928
4495.0,0.83038
4497.5,0.83145
4500.0,0.83249
4502.5,0.83352
4505.0,0.83452
4507.5,0.83556
4510.0,0.83666
4512.5,0.83791
4515.0,0.83922
4517.5,0.84052
4520.0,0.84179
4522.5,0.843
4525.0,0.84415
4527.5,0.84526
4530.0,0.84633
4532.5,0.84735
4535.0,0.84834
4537.5,0.84932
4540.0,0.85032
4542.5,0.85138
4545.0,0.85246
4547.5,0.85356
4550.0,0.85466
4552.5,0.85575
4555.0,0.85682
4557.5,0.85787
4560.0,0.85887
4562.5,0.8598
4565.0,0.86069
4567.5,0.86155
4570.0,0.86243
4572.5,0.86334
4575.0,0.86426
4577.5,0.8652
4580.0,0.86617
4582.5,0.86719
4585.0,0.86822
4587.5,0.86926
4590.0,0.87025
4592.5,0.87118
4595.0,0.87207
4597.5,0.87295
4600.0,0.87383
4602.5,0.87471
4605.0,0.87561
4607.5,0.87649
4610.0,0.87736
4612.5,0.87821
4615.0,0.87905
4617.5,0.87986
4620.0,0.88064
4622.5,0.88139
4625.0,0.88211
4627.5,0.88282
4630.0,0.88355
4632.5,0.88431
4635.0,0.88509
4637.5,0.8859
4640.0,0.88675
4642.5,0.88764
4645.0,0.88858
4647.5,0.88952
4650.0,0.89043
4652.5,0.89131
4655.0,0.89216
4657.5,0.89296
4660.0,0.8937
4662.5,0.89436
4665.0,0.89496
4667.5,0.89553
4670.0,0.89609
4672.5,0.89665
4675.0,0.89722
4677.5,0.89782
4680.0,0.89851
4682.5,0.89927
4685.0,0.90012
4687.5,0.90098
4690.0,0.90178
4692.5,0.90249
4695.0,0.90313
4697.5,0.90375
4700.0,0.90432
4702.5,0.90484
4705.0,0.90534
4707.5,0.90587
4710.0,0.90646
4712.5,0.9072
4715.0,0.90801
4717.5,0.90883
4720.0,0.90962
4722.5,0.91037
4725.0,0.91105
4727.5,0.91171
4730.0,0.9123
4732.5,0.91284
4735.0,0.91334
4737.5,0.91382
4740.0,0.91431
4742.5,0.91483
4745.0,0.91536
4747.5,0.91593
4750.0,0.91651
4752.5,0.91712
4755.0,0.91777
4757.5,0.91843
4760.0,0.91912
4762.5,0.91982
4765.0,0.92052
4767.5,0.92122
4770.0,0.92188
4772.5,0.92249
4775.0,0.92307
4777.5,0.9236
4780.0,0.92408
4782.5,0.92453
4785.0,0.92494
4787.5,0.92532
4790.0,0.92569
4792.5,0.92604
4795.0,0.92638
4797.5,0.92678
4800.0,0.92729
4802.5,0.92795
4805.0,0.92872
4807.5,0.9295
4810.0,0.93017
4812.5,0.93067
4815.0,0.93106
4817.5,0.93137
4820.0,0.93167
4822.5,0.93191
4825.0,0.93214
4827.5,0.93236
4830.0,0.93263
4832.5,0.93297
4835.0,0.93336
4837.5,0.93378
4840.0,0.93424
4842.5,0.93474
4845.0,0.93527
4847.5,0.93582
4850.0,0.93636
4852.5,0.93689
4855.0,0.93741
4857.5,0.93793
4860.0,0.93845
4862.5,0.93897
4865.0,0.9395
4867.5,0.94
4870.0,0.94048
4872.5,0.94091
4875.0,0.9413
4877.5,0.94167
4880.0,0.94205
4882.5,0.94242
4885.0,0.94281
4887.5,0.94319
4890.0,0.94358
4892.5,0.944
4895.0,0.94441
4897.5,0.94483
4900.0,0.94523
4902.5,0.94562
4905.0,0.94599
4907.5,0.94634
4910.0,0.94665
4912.5,0.94691
4915.0,0.94713
4917.5,0.94736
4920.0,0.94762
4922.5,0.94792
4925.0,0.94826
4927.5,0.94865
4930.0,0.94905
4932.5,0.94949
4935.0,0.94996
4937.5,0.95046
4940.0,0.951
4942.5,0.95158
4945.0,0.95219
4947.5,0.9528
4950.0,0.95334
4952.5,0.95377
4955.0,0.95414
4957.5,0.95448
4960.0,0.9548
4962.5,0.95512
4965.0,0.95543
4967.5,0.95573
4970.0,0.95603
4972.5,0.95635
4975.0,0.95667
4977.5,0.95695
4980.0,0.95717
4982.5,0.95732
4985.0,0.9574
4987.5,0.95746
4990.0,0.95755
4992.5,0.95769
4995.0,0.95786
4997.5,0.95807
5000.0,0.95831
5002.5,0.95859
5005.0,0.95889
5007.5,0.95924
5010.0,0.95968
5012.5,0.96022
5015.0,0.96083
5017.5,0.9614
5020.0,0.96187
5022.5,0.9622
5025.0,0.9624
5027.5,0.96254
5030.0,0.96268
5032.5,0.96284
5035.0,0.96302
5037.5,0.96321
5040.0,0.96344
5042.5,0.96374
5045.0,0.96408
5047.5,0.96443
5050.0,0.96476
5052.5,0.96503
5055.0,0.96528
5057.5,0.96556
5060.0,0.96588
5062.5,0.96626
5065.0,0.96671
5067.5,0.96715
5070.0,0.96751
5072.5,0.96778
5075.0,0.96798
5077.5,0.96812
5080.0,0.96821
5082.5,0.96825
5085.0,0.96825
5087.5,0.96826
5090.0,0.96838
5092.5,0.96866
5095.0,0.96905
5097.5,0.96947
5100.0,0.9699
5102.5,0.97033
5105.0,0.97075
5107.5,0.97113
5110.0,0.97146
5112.5,0.9717
5115.0,0.97189
5117.5,0.972
5120.0,0.97205
5122.5,0.97202
5125.0,0.97192
5127.5,0.97187
5130.0,0.97196
5132.5,0.97231
5135.0,0.9728
5137.5,0.97332
5140.0,0.97376
5142.5,0.97411
5145.0,0.97434
5147.5,0.97454
5150.0,0.97468
5152.5,0.97479
5155.0,0.97486
5157.5,0.97492
5160.0,0.97501
5162.5,0.97514
5165.0,0.97531
5167.5,0.97549
5170.0,0.97564
5172.5,0.97575
5175.0,0.97583
5177.5,0.97594
5180.0,0.9761
5182.5,0.97632
5185.0,0.97658
5187.5,0.97691
5190.0,0.97727
5192.5,0.97769
5195.0,0.97815
5197.5,0.9786
5200.0,0.979
5202.5,0.97933
5205.0,0.97962
5207.5,0.97985
5210.0,0.98003
5212.5,0.98017
5215.0,0.98028
5217.5,0.98035
5220.0,0.98039
5222.5,0.98042
5225.0,0.98045
5227.5,0.98047
5230.0,0.98054
5232.5,0.98065
5235.0,0.9808
5237.5,0.98098
5240.0,0.98118
5242.5,0.98142
5245.0,0.98168
5247.5,0.98194
5250.0,0.98216
5252.5,0.98234
5255.0,0.98247
5257.5,0.98259
5260.0,0.98272
5262.5,0.98285
5265.0,0.983
5267.5,0.98314
5270.0,0.98327
5272.5,0.98339
5275.0,0.98349
5277.5,0.98359
5280.0,0.98367
5282.5,0.98373
5285.0,0.98378
5287.5,0.98382
5290.0,0.98386
5292.5,0.98388
5295.0,0.98392
5297.5,0.98399
5300.0,0.98412
5302.5,0.98435
5305.0,0.98466
5307.5,0.98499
5310.0,0.9853
5312.5,0.98556
5315.0,0.9858
5317.5,0.98603
5320.0,0.98627
5322.5,0.98651
5325.0,0.98674
5327.5,0.98698
5330.0,0.98723
5332.5,0.98752
5335.0,0.98783
5337.5,0.98808
5340.0,0.98825
5342.5,0.9883
5345.0,0.98825
5347.5,0.98818
5350.0,0.98815
5352.5,0.9882
5355.0,0.98828
5357.5,0.98838
5360.0,0.98847
5362.5,0.98852
5365.0,0.98857
5367.5,0.98862
5370.0,0.98867
5372.5,0.98873
5375.0,0.9888
5377.5,0.98889
5380.0,0.98902
5382.5,0.98918
5385.0,0.98939
5387.5,0.98961
5390.0,0.98984
5392.5,0.99005
5395.0,0.99026
5397.5,0.99046
5400.0,0.99063
5402.5,0.99077
5405.0,0.99088
5407.5,0.99097
5410.0,0.99104
5412.5,0.99113
5415.0,0.99121
5417.5,0.99125
5420.0,0.99125
5422.5,0.99118
5425.0,0.99107
5427.5,0.99096
5430.0,0.99084
5432.5,0.99074
5435.0,0.99067
5437.5,0.99062
5440.0,0.99062
5442.5,0.99066
5445.0,0.99075
5447.5,0.99088
5450.0,0.99107
5452.5,0.9913
5455.0,0.99158
5457.5,0.99188
5460.0,0.99219
5462.5,0.99249
5465.0,0.99281
5467.5,0.99306
5470.0,0.99323
5472.5,0.99326
5475.0,0.99321
5477.5,0.99312
5480.0,0.99306
5482.5,0.99303
5485.0,0.99303
5487.5,0.99306
5490.0,0.99309
5492.5,0.99315
5495.0,0.99322
5497.5,0.99329
5500.0,0.99331
5502.5,0.9933
5505.0,0.99325
5507.5,0.99319
5510.0,0.99311
5512.5,0.99298
5515.0,0.99284
5517.5,0.99279
5520.0,0.99287
5522.5,0.99317
5525.0,0.99361
5527.5,0.9941
5530.0,0.9945
5532.5,0.99476
5535.0,0.99493
5537.5,0.99505
5540.0,0.99512
5542.5,0.99512
5545.0,0.99511
5547.5,0.99506
5550.0,0.99504
5552.5,0.99508
5555.0,0.99514
5557.5,0.9952
5560.0,0.99526
5562.5,0.99533
5565.0,0.99538
5567.5,0.99542
5570.0,0.99543
5572.5,0.99542
5575.0,0.99539
5577.5,0.99534
5580.0,0.99529
5582.5,0.99522
5585.0,0.99513
5587.5,0.99508
5590.0,0.99511
5592.5,0.99526
5595.0,0.99548
5597.5,0.99568
5600.0,0.9958
5602.5,0.9958
5605.0,0.99569
5607.5,0.99557
5610.0,0.99556
5612.5,0.9957
5615.0,0.99592
5617.5,0.99614
5620.0,0.99629
5622.5,0.99635
5625.0,0.9963
5627.5,0.99624
5630.0,0.99623
5632.5,0.9963
5635.0,0.99642
5637.5,0.99653
5640.0,0.99663
5642.5,0.99669
5645.0,0.99673
5647.5,0.99673
5650.0,0.99672
5652.5,0.99667
5655.0,0.99661
5657.5,0.99658
5660.0,0.9966
5662.5,0.99673
5665.0,0.99693
5667.5,0.99714
5670.0,0.9973
5672.5,0.99742
5675.0,0.99748
5677.5,0.99748
5680.0,0.99738
5682.5,0.99718
5685.0,0.99689
5687.5,0.9966
5690.0,0.99645
5692.5,0.99653
5695.0,0.99673
5697.5,0.99692
5700.0,0.99704
5702.5,0.99701
5705.0,0.99687
5707.5,0.99668
5710.0,0.99656
5712.5,0.99651
5715.0,0.9965
5717.5,0.99651
5720.0,0.99651
5722.5,0.9965
5725.0,0.99648
5727.5,0.99649
5730.0,0.99655
5732.5,0.99671
5735.0,0.9969
5737.5,0.99707
5740.0,0.99717
5742.5,0.99716
5745.0,0.99706
5747.5,0.99693
5750.0,0.99684
5752.5,0.99681
5755.0,0.99681
5757.5,0.99682
5760.0,0.99685
5762.5,0.99687
5765.0,0.99688
5767.5,0.99693
5770.0,0.99706
5772.5,0.99729
5775.0,0.99759
5777.5,0.99787
5780.0,0.99803
5782.5,0.99806
5785.0,0.99796
5787.5,0.99783
5790.0,0.99774
5792.5,0.9977
5795.0,0.99772
5797.5,0.99777
5800.0,0.99788
5802.5,0.99805
5805.0,0.99827
5807.5,0.99846
5810.0,0.99854
5812.5,0.99846
5815.0,0.99827
5817.5,0.99811
5820.0,0.99805
5822.5,0.99814
5825.0,0.99839
5827.5,0.99863
5830.0,0.99878
5832.5,0.99878
5835.0,0.99869
5837.5,0.99855
5840.0,0.99841
5842.5,0.99829
5845.0,0.9982
5847.5,0.99809
5850.0,0.99792
5852.5,0.99767
5855.0,0.9974
5857.5,0.99719
5860.0,0.99714
5862.5,0.99732
5865.0,0.99769
5867.5,0.99809
5870.0,0.99839
5872.5,0.9985
5875.0,0.99852
5877.5,0.99853
5880.0,0.99859
5882.5,0.99872
5885.0,0.99892
5887.5,0.99913
5890.0,0.9993
5892.5,0.99948
5895.0,0.99962
5897.5,0.99969
5900.0,0.99968
5902.5,0.99955
5905.0,0.99933
5907.5,0.99905
5910.0,0.9987
5912.5,0.99828
5915.0,0.99785
5917.5,0.99749
5920.0,0.99732
5922.5,0.9974
5925.0,0.99769
5927.5,0.99805
5930.0,0.99832
5932.5,0.99841
5935.0,0.99842
5937.5,0.9984
5940.0,0.99838
5942.5,0.99837
5945.0,0.99837
5947.5,0.99841
5950.0,0.99854
5952.5,0.99886
5955.0,0.99926
5957.5,0.99958
5960.0,0.99973
5962.5,0.99961
5965.0,0.99925
5967.5,0.99885
5970.0,0.99855
5972.5,0.99846
5975.0,0.99846
5977.5,0.99846
5980.0,0.99842
5982.5,0.99831
5985.0,0.99812
5987.5,0.99794
5990.0,0.99781
5992.5,0.99771
5995.0,0.99767
5997.5,0.99773
6000.0,0.99795
6002.5,0.99836
6005.0,0.99894
6007.5,0.99947
6010.0,0.99974
6012.5,0.99964
6015.0,0.99931
6017.5,0.99891
6020.0,0.9986
6022.5,0.99843
6025.0,0.9984
6027.5,0.99842
6030.0,0.9985
6032.5,0.99864
6035.0,0.99884
6037.5,0.999
6040.0,0.99907
6042.5,0.99899
6045.0,0.99877
6047.5,0.99853
6050.0,0.99838
6052.5,0.99836
6055.0,0.99841
6057.5,0.99846
6060.0,0.99846
6062.5,0.99839
6065.0,0.99822
6067.5,0.99808
6070.0,0.99803
6072.5,0.99811
6075.0,0.99827
6077.5,0.99846
6080.0,0.99863
6082.5,0.99878
6085.0,0.99889
6087.5,0.99897
6090.0,0.999
6092.5,0.99896
6095.0,0.99887
6097.5,0.99881
6100.0,0.99883
6102.5,0.99897
6105.0,0.99923
6107.5,0.99946
6110.0,0.99956
6112.5,0.99944
6115.0,0.99921
6117.5,0.99897
6120.0,0.99882
6122.5,0.99879
6125.0,0.9989
6127.5,0.99904
6130.0,0.99912
6132.5,0.99914
6135.0,0.99911
6137.5,0.9991
6140.0,0.99912
6142.5,0.99919
6145.0,0.99931
6147.5,0.99942
6150.0,0.99951
6152.5,0.99958
6155.0,0.99962
6157.5,0.99963
6160.0,0.99961
6162.5,0.99957
6165.0,0.99951
6167.5,0.9994
6170.0,0.99922
6172.5,0.99894
6175.0,0.99862
6177.5,0.99832
6180.0,0.99814
6182.5,0.99813
6185.0,0.99825
6187.5,0.99843
6190.0,0.99861
6192.5,0.99875
6195.0,0.99888
6197.5,0.999
6200.0,0.99909
6202.5,0.99909
6205.0,0.99906
6207.5,0.99903
6210.0,0.99911
6212.5,0.99934
6215.0,0.99965
6217.5,0.99989
6220.0,1.0
6222.5,0.99991
6225.0,0.99964
6227.5,0.99928
6230.0,0.99892
6232.5,0.99857
6235.0,0.99822
6237.5,0.99792
6240.0,0.99772
6242.5,0.99764
6245.0,0.99769
6247.5,0.99778
6250.0,0.99785
6252.5,0.99785
6255.0,0.99781
6257.5,0.9978
6260.0,0.99783
6262.5,0.9979
6265.0,0.99802
6267.5,0.99814
6270.0,0.99818
6272.5,0.99813
6275.0,0.99803
6277.5,0.99793
6280.0,0.99787
6282.5,0.99789
6285.0,0.99798
6287.5,0.99806
6290.0,0.99806
6292.5,0.99793
6295.0,0.99774
6297.5,0.99756
6300.0,0.99745
6302.5,0.99742
6305.0,0.99748
6307.5,0.99759
6310.0,0.99776
6312.5,0.99798
6315.0,0.99823
6317.5,0.99845
6320.0,0.99856
6322.5,0.99853
6325.0,0.99838
6327.5,0.99818
6330.0,0.99803
6332.5,0.99795
6335.0,0.99792
6337.5,0.99788
6340.0,0.99779
6342.5,0.99762
6345.0,0.99739
6347.5,0.9972
6350.0,0.99713
6352.5,0.99723
6355.0,0.99742
6357.5,0.99763
6360.0,0.99777
6362.5,0.9978
6365.0,0.99772
6367.5,0.99763
6370.0,0.99763
6372.5,0.99778
6375.0,0.99797
6377.5,0.99813
6380.0,0.99816
6382.5,0.99802
6385.0,0.99773
6387.5,0.9974
6390.0,0.99712
6392.5,0.99695
6395.0,0.99683
6397.5,0.99674
6400.0,0.99665
6402.5,0.99657
6405.0,0.99647
6407.5,0.99642
6410.0,0.99643
6412.5,0.99651
6415.0,0.99665
6417.5,0.9968
6420.0,0.99693
6422.5,0.99702
6425.0,0.99707
6427.5,0.99709
6430.0,0.99707
6432.5,0.99702
6435.0,0.99693
6437.5,0.9968
6440.0,0.99664
6442.5,0.99643
6445.0,0.99619
6447.5,0.99597
6450.0,0.99578
6452.5,0.99565
6455.0,0.99558
6457.5,0.99558
6460.0,0.99569
6462.5,0.99592
6465.0,0.99627
6467.5,0.9966
6470.0,0.9968
6472.5,0.99684
6475.0,0.99674
6477.5,0.99657
6480.0,0.99634
6482.5,0.99605
6485.0,0.99571
6487.5,0.99542
6490.0,0.99524
6492.5,0.99521
6495.0,0.99532
6497.5,0.99546
6500.0,0.99557
6502.5,0.99564
6505.0,0.99565
6507.5,0.99566
6510.0,0.99564
6512.5,0.99559
6515.0,0.99553
6517.5,0.99547
6520.0,0.99542
6522.5,0.99542
6525.0,0.99544
6527.5,0.99546
6530.0,0.99544
6532.5,0.99538
6535.0,0.99528
6537.5,0.99515
6540.0,0.99499
6542.5,0.9948
6545.0,0.99459
6547.5,0.99439
6550.0,0.99425
6552.5,0.99423
6555.0,0.99426
6557.5,0.99428
6560.0,0.99426
6562.5,0.99415
6565.0,0.99397
6567.5,0.99381
6570.0,0.99376
6572.5,0.99387
6575.0,0.99406
6577.5,0.99424
6580.0,0.9943
6582.5,0.9942
6585.0,0.99394
6587.5,0.99368
6590.0,0.99357
6592.5,0.99366
6595.0,0.99384
6597.5,0.99403
