Wavelength,Transmission
3245.0,6e-05
3247.5,0.0001
3250.0,0.00017
3252.5,0.00025
3255.0,0.00032
3257.5,0.0004
3260.0,0.00054
3262.5,0.00079
3265.0,0.00117
3267.5,0.00168
3270.0,0.00228
3272.5,0.00285
3275.0,0.00337
3277.5,0.00394
3280.0,0.00485
3282.5,0.00631
3285.0,0.00839
3287.5,0.01102
3290.0,0.01392
3292.5,0.01679
3295.0,0.01963
3297.5,0.02256
3300.0,0.02568
3302.5,0.02908
3305.0,0.0328
3307.5,0.0368
3310.0,0.04141
3312.5,0.04709
3315.0,0.05365
3317.5,0.06071
3320.0,0.06795
3322.5,0.07511
3325.0,0.08204
3327.5,0.08878
3330.0,0.09547
3332.5,0.10223
3335.0,0.10886
3337.5,0.11539
3340.0,0.12225
3342.5,0.1296
3345.0,0.13738
3347.5,0.14522
3350.0,0.15292
3352.5,0.16044
3355.0,0.16777
3357.5,0.17489
3360.0,0.18177
3362.5,0.18849
3365.0,0.19515
3367.5,0.20183
3370.0,0.20901
3372.5,0.2172
3375.0,0.226
3377.5,0.235
3380.0,0.24404
3382.5,0.25297
3385.0,0.26162
3387.5,0.26996
3390.0,0.278
3392.5,0.28578
3395.0,0.29308
3397.5,0.29984
3400.0,0.30624
3402.5,0.31224
3405.0,0.31784
3407.5,0.32328
3410.0,0.32759
3412.5,0.33025
3415.0,0.33594
3417.5,0.34608
3420.0,0.3563
3422.5,0.36427
3425.0,0.36986
3427.5,0.37534
3430.0,0.38137
3432.5,0.38723
3435.0,0.39288
3437.5,0.39842
3440.0,0.40389
3442.5,0.4093
3445.0,0.41465
3447.5,0.41981
3450.0,0.42476
3452.5,0.42955
3455.0,0.43414
3457.5,0.43852
3460.0,0.44278
3462.5,0.44696
3465.0,0.45104
3467.5,0.45493
3470.0,0.45867
3472.5,0.46233
3475.0,0.46586
3477.5,0.4692
3480.0,0.47243
3482.5,0.47554
3485.0,0.47853
3487.5,0.48137
3490.0,0.48409
3492.5,0.48675
3495.0,0.48928
3497.5,0.49167
3500.0,0.49393
3502.5,0.49609
3505.0,0.49813
3507.5,0.50001
3510.0,0.50174
3512.5,0.50337
3515.0,0.50488
3517.5,0.50624
3520.0,0.50746
3522.5,0.50858
3525.0,0.50962
3527.5,0.51054
3530.0,0.51143
3532.5,0.51237
3535.0,0.51328
3537.5,0.51407
3540.0,0.51475
3542.5,0.51528
3545.0,0.51568
3547.5,0.51594
3550.0,0.51614
3552.5,0.5163
3555.0,0.5164
3557.5,0.51637
3560.0,0.51622
3562.5,0.51593
3565.0,0.51554
3567.5,0.51506
3570.0,0.51459
3572.5,0.51421
3575.0,0.51385
3577.5,0.5134
3580.0,0.51282
3582.5,0.51207
3585.0,0.5112
3587.5,0.51023
3590.0,0.50924
3592.5,0.50828
3595.0,0.50726
3597.5,0.50623
3600.0,0.50539
3602.5,0.50487
3605.0,0.5045
3607.5,0.50369
3610.0,0.50388
3612.5,0.50691
3615.0,0.50979
3617.5,0.5106
3620.0,0.5102
3622.5,0.50917
3625.0,0.5078
3627.5,0.50615
3630.0,0.50435
3632.5,0.50258
3635.0,0.50087
3637.5,0.49941
3640.0,0.49855
3642.5,0.4984
3645.0,0.49879
3647.5,0.49932
3650.0,0.49958
3652.5,0.49923
3655.0,0.49855
3657.5,0.49773
3660.0,0.49662
3662.5,0.49527
3665.0,0.49388
3667.5,0.49268
3670.0,0.49209
3672.5,0.49248
3675.0,0.49339
3677.5,0.49439
3680.0,0.49537
3682.5,0.49611
3685.0,0.49638
3687.5,0.49601
3690.0,0.49466
3692.5,0.49201
3695.0,0.48845
3697.5,0.48435
3700.0,0.4799
3702.5,0.47534
3705.0,0.47096
3707.5,0.46697
3710.0,0.46367
3712.5,0.46129
3715.0,0.45977
3717.5,0.45904
3720.0,0.45911
3722.5,0.45986
3725.0,0.46109
3727.5,0.46259
3730.0,0.46403
3732.5,0.46507
3735.0,0.46573
3737.5,0.46608
3740.0,0.46611
3742.5,0.46575
3745.0,0.46495
3747.5,0.46353
3750.0,0.46155
3752.5,0.45916
3755.0,0.45625
3757.5,0.45267
3760.0,0.44822
3762.5,0.44296
3765.0,0.43724
3767.5,0.43161
3770.0,0.42647
3772.5,0.42203
3775.0,0.41844
3777.5,0.41591
3780.0,0.41459
3782.5,0.41454
3785.0,0.41565
3787.5,0.41766
3790.0,0.42039
3792.5,0.42367
3795.0,0.42723
3797.5,0.43059
3800.0,0.43313
3802.5,0.43456
3805.0,0.43486
3807.5,0.43445
3810.0,0.43339
3812.5,0.43159
3815.0,0.42942
3817.5,0.42732
3820.0,0.42565
3822.5,0.42471
3825.0,0.42466
3827.5,0.42552
3830.0,0.42735
3832.5,0.43021
3835.0,0.43402
3837.5,0.43854
3840.0,0.44357
3842.5,0.44883
3845.0,0.45415
3847.5,0.45943
3850.0,0.46428
3852.5,0.46823
3855.0,0.47162
3857.5,0.47479
3860.0,0.47794
3862.5,0.48119
3865.0,0.48464
3867.5,0.48817
3870.0,0.49183
3872.5,0.49565
3875.0,0.49968
3877.5,0.5039
3880.0,0.50835
3882.5,0.51298
3885.0,0.51781
3887.5,0.5228
3890.0,0.52783
3892.5,0.53273
3895.0,0.53767
3897.5,0.54283
3900.0,0.54826
3902.5,0.554
3905.0,0.56006
3907.5,0.56639
3910.0,0.57305
3912.5,0.58013
3915.0,0.58738
3917.5,0.59456
3920.0,0.60147
3922.5,0.60796
3925.0,0.61395
3927.5,0.6194
3930.0,0.6243
3932.5,0.62863
3935.0,0.63244
3937.5,0.63583
3940.0,0.63884
3942.5,0.64166
3945.0,0.64446
3947.5,0.64746
3950.0,0.65089
3952.5,0.65499
3955.0,0.65972
3957.5,0.6651
3960.0,0.67123
3962.5,0.67805
3965.0,0.68545
3967.5,0.69318
3970.0,0.70108
3972.5,0.70905
3975.0,0.71683
3977.5,0.72414
3980.0,0.73082
3982.5,0.73672
3985.0,0.74166
3987.5,0.74559
3990.0,0.74845
3992.5,0.75028
3995.0,0.75122
3997.5,0.75148
4000.0,0.75128
4002.5,0.75094
4005.0,0.75074
4007.5,0.75095
4010.0,0.75188
4012.5,0.75381
4015.0,0.75677
4017.5,0.76081
4020.0,0.7659
4022.5,0.772
4025.0,0.77901
4027.5,0.78675
4030.0,0.79511
4032.5,0.8039
4035.0,0.81281
4037.5,0.82153
4040.0,0.82978
4042.5,0.83729
4045.0,0.84384
4047.5,0.84931
4050.0,0.85355
4052.5,0.85645
4055.0,0.85819
4057.5,0.85907
4060.0,0.85949
4062.5,0.85976
4065.0,0.86009
4067.5,0.86054
4070.0,0.86134
4072.5,0.86286
4075.0,0.86495
4077.5,0.86755
4080.0,0.87079
4082.5,0.87462
4085.0,0.87882
4087.5,0.88309
4090.0,0.88697
4092.5,0.89007
4095.0,0.8926
4097.5,0.89487
4100.0,0.89702
4102.5,0.89913
4105.0,0.90121
4107.5,0.90317
4110.0,0.90487
4112.5,0.90626
4115.0,0.90752
4117.5,0.90895
4120.0,0.91088
4122.5,0.91344
4125.0,0.91652
4127.5,0.91978
4130.0,0.92305
4132.5,0.92629
4135.0,0.92935
4137.5,0.9321
4140.0,0.93435
4142.5,0.93601
4145.0,0.9371
4147.5,0.93774
4150.0,0.93794
4152.5,0.93775
4155.0,0.93735
4157.5,0.93697
4160.0,0.93676
4162.5,0.93691
4165.0,0.93756
4167.5,0.93878
4170.0,0.94077
4172.5,0.94374
4175.0,0.94736
4177.5,0.95133
4180.0,0.95554
4182.5,0.95974
4185.0,0.96367
4187.5,0.96703
4190.0,0.96957
4192.5,0.97106
4195.0,0.97154
4197.5,0.97107
4200.0,0.9697
4202.5,0.96755
4205.0,0.9648
4207.5,0.96168
4210.0,0.95841
4212.5,0.95521
4215.0,0.95224
4217.5,0.94979
4220.0,0.94826
4222.5,0.9478
4225.0,0.94831
4227.5,0.94949
4230.0,0.95091
4232.5,0.95232
4235.0,0.95378
4237.5,0.9554
4240.0,0.95708
4242.5,0.95876
4245.0,0.96029
4247.5,0.96156
4250.0,0.96232
4252.5,0.96236
4255.0,0.96194
4257.5,0.96134
4260.0,0.9607
4262.5,0.96018
4265.0,0.95993
4267.5,0.96
4270.0,0.96054
4272.5,0.96165
4275.0,0.96328
4277.5,0.96538
4280.0,0.9679
4282.5,0.97075
4285.0,0.97381
4287.5,0.97691
4290.0,0.98001
4292.5,0.98307
4295.0,0.98586
4297.5,0.98806
4300.0,0.98939
4302.5,0.98975
4305.0,0.9892
4307.5,0.98798
4310.0,0.98629
4312.5,0.9843
4315.0,0.98211
4317.5,0.97991
4320.0,0.97796
4322.5,0.97645
4325.0,0.97546
4327.5,0.975
4330.0,0.97505
4332.5,0.9756
4335.0,0.97666
4337.5,0.97822
4340.0,0.98027
4342.5,0.9827
4345.0,0.98534
4347.5,0.98799
4350.0,0.99042
4352.5,0.99244
4355.0,0.99406
4357.5,0.99518
4360.0,0.99567
4362.5,0.99549
4365.0,0.99478
4367.5,0.99373
4370.0,0.99262
4372.5,0.99162
4375.0,0.99075
4377.5,0.99001
4380.0,0.98946
4382.5,0.98916
4385.0,0.98918
4387.5,0.98956
4390.0,0.99047
4392.5,0.99208
4395.0,0.99409
4397.5,0.9961
4400.0,0.99783
4402.5,0.99907
4405.0,0.99976
4407.5,1.0
4410.0,0.9999
4412.5,0.99953
4415.0,0.9988
4417.5,0.99758
4420.0,0.99583
4422.5,0.99361
4425.0,0.99104
4427.5,0.98837
4430.0,0.98573
4432.5,0.9832
4435.0,0.98097
4437.5,0.97923
4440.0,0.9782
4442.5,0.97795
4445.0,0.97848
4447.5,0.97956
4450.0,0.98106
4452.5,0.98288
4455.0,0.98489
4457.5,0.98691
4460.0,0.98872
4462.5,0.99014
4465.0,0.99109
4467.5,0.99158
4470.0,0.99168
4472.5,0.99144
4475.0,0.99074
4477.5,0.98953
4480.0,0.98784
4482.5,0.98572
4485.0,0.98325
4487.5,0.98051
4490.0,0.97755
4492.5,0.97443
4495.0,0.97133
4497.5,0.96849
4500.0,0.96607
4502.5,0.9642
4505.0,0.96295
4507.5,0.96231
4510.0,0.96226
4512.5,0.96283
4515.0,0.96389
4517.5,0.9653
4520.0,0.96683
4522.5,0.9683
4525.0,0.96964
4527.5,0.97084
4530.0,0.97186
4532.5,0.97259
4535.0,0.97303
4537.5,0.9732
4540.0,0.9731
4542.5,0.97277
4545.0,0.97225
4547.5,0.97158
4550.0,0.97089
4552.5,0.97025
4555.0,0.96965
4557.5,0.9691
4560.0,0.96866
4562.5,0.96834
4565.0,0.96814
4567.5,0.96802
4570.0,0.96798
4572.5,0.96804
4575.0,0.9681
4577.5,0.9681
4580.0,0.96808
4582.5,0.96799
4585.0,0.96773
4587.5,0.96713
4590.0,0.96603
4592.5,0.96432
4595.0,0.96211
4597.5,0.95963
4600.0,0.95705
4602.5,0.95449
4605.0,0.95204
4607.5,0.94963
4610.0,0.9472
4612.5,0.94469
4615.0,0.94233
4617.5,0.94036
4620.0,0.9389
4622.5,0.93804
4625.0,0.93779
4627.5,0.93807
4630.0,0.93881
4632.5,0.93985
4635.0,0.94121
4637.5,0.9429
4640.0,0.94481
4642.5,0.94683
4645.0,0.94887
4647.5,0.9508
4650.0,0.9525
4652.5,0.95387
4655.0,0.95488
4657.5,0.95557
4660.0,0.95594
4662.5,0.95601
4665.0,0.95581
4667.5,0.95542
4670.0,0.95488
4672.5,0.95426
4675.0,0.95365
4677.5,0.95312
4680.0,0.95278
4682.5,0.9527
4685.0,0.95291
4687.5,0.95343
4690.0,0.95432
4692.5,0.95561
4695.0,0.95721
4697.5,0.95898
4700.0,0.96076
4702.5,0.96245
4705.0,0.96399
4707.5,0.96539
4710.0,0.96672
4712.5,0.96806
4715.0,0.9692
4717.5,0.96994
4720.0,0.97017
4722.5,0.96986
4725.0,0.96903
4727.5,0.96775
4730.0,0.96608
4732.5,0.96411
4735.0,0.96194
4737.5,0.95968
4740.0,0.95752
4742.5,0.95558
4745.0,0.95396
4747.5,0.95271
4750.0,0.95186
4752.5,0.95145
4755.0,0.95152
4757.5,0.95202
4760.0,0.95284
4762.5,0.9539
4765.0,0.95519
4767.5,0.95677
4770.0,0.95868
4772.5,0.96082
4775.0,0.96315
4777.5,0.96551
4780.0,0.96775
4782.5,0.96976
4785.0,0.97151
4787.5,0.97306
4790.0,0.97447
4792.5,0.97577
4795.0,0.97688
4797.5,0.97781
4800.0,0.97861
4802.5,0.97933
4805.0,0.97992
4807.5,0.98037
4810.0,0.98061
4812.5,0.98064
4815.0,0.98053
4817.5,0.98037
4820.0,0.98029
4822.5,0.98035
4825.0,0.98054
4827.5,0.98078
4830.0,0.98109
4832.5,0.98152
4835.0,0.98197
4837.5,0.98233
4840.0,0.98253
4842.5,0.98252
4845.0,0.98228
4847.5,0.98185
4850.0,0.98132
4852.5,0.98076
4855.0,0.9801
4857.5,0.97924
4860.0,0.97814
4862.5,0.9768
4865.0,0.97528
4867.5,0.97371
4870.0,0.97215
4872.5,0.97067
4875.0,0.96933
4877.5,0.96815
4880.0,0.96716
4882.5,0.96637
4885.0,0.96584
4887.5,0.96568
4890.0,0.96587
4892.5,0.96643
4895.0,0.96732
4897.5,0.96849
4900.0,0.96991
4902.5,0.97149
4905.0,0.9731
4907.5,0.97465
4910.0,0.97595
4912.5,0.97681
4915.0,0.97732
4917.5,0.9776
4920.0,0.97775
4922.5,0.97784
4925.0,0.97782
4927.5,0.97761
4930.0,0.97712
4932.5,0.9763
4935.0,0.97529
4937.5,0.97427
4940.0,0.97342
4942.5,0.97282
4945.0,0.97249
4947.5,0.97232
4950.0,0.97218
4952.5,0.97195
4955.0,0.97179
4957.5,0.97184
4960.0,0.97217
4962.5,0.97279
4965.0,0.97368
4967.5,0.97471
4970.0,0.97587
4972.5,0.97715
4975.0,0.9784
4977.5,0.97948
4980.0,0.98034
4982.5,0.98086
4985.0,0.981
4987.5,0.98067
4990.0,0.97988
4992.5,0.97862
4995.0,0.97691
4997.5,0.97479
5000.0,0.97243
5002.5,0.96994
5005.0,0.96733
5007.5,0.96458
5010.0,0.96167
5012.5,0.95864
5015.0,0.95564
5017.5,0.95275
5020.0,0.95
5022.5,0.94747
5025.0,0.94526
5027.5,0.94351
5030.0,0.94223
5032.5,0.94135
5035.0,0.94101
5037.5,0.94128
5040.0,0.94208
5042.5,0.94336
5045.0,0.94507
5047.5,0.9472
5050.0,0.94963
5052.5,0.95216
5055.0,0.95478
5057.5,0.95748
5060.0,0.96022
5062.5,0.96293
5065.0,0.96546
5067.5,0.9676
5070.0,0.96919
5072.5,0.97016
5075.0,0.97051
5077.5,0.97029
5080.0,0.9696
5082.5,0.96855
5085.0,0.96719
5087.5,0.96553
5090.0,0.96368
5092.5,0.96182
5095.0,0.95994
5097.5,0.95806
5100.0,0.95627
5102.5,0.95464
5105.0,0.9532
5107.5,0.95201
5110.0,0.95106
5112.5,0.95031
5115.0,0.94986
5117.5,0.94969
5120.0,0.94974
5122.5,0.95
5125.0,0.95045
5127.5,0.95114
5130.0,0.95216
5132.5,0.95352
5135.0,0.95506
5137.5,0.95659
5140.0,0.95793
5142.5,0.95898
5145.0,0.95967
5147.5,0.96006
5150.0,0.96021
5152.5,0.96018
5155.0,0.95989
5157.5,0.95929
5160.0,0.95841
5162.5,0.95731
5165.0,0.95603
5167.5,0.95461
5170.0,0.95309
5172.5,0.95158
5175.0,0.95013
5177.5,0.94877
5180.0,0.94758
5182.5,0.94659
5185.0,0.94586
5187.5,0.94546
5190.0,0.94538
5192.5,0.94559
5195.0,0.94612
5197.5,0.94701
5200.0,0.94825
5202.5,0.94978
5205.0,0.95153
5207.5,0.9534
5210.0,0.95529
5212.5,0.95706
5215.0,0.95869
5217.5,0.9602
5220.0,0.96164
5222.5,0.96298
5225.0,0.96412
5227.5,0.96494
5230.0,0.96538
5232.5,0.96547
5235.0,0.96517
5237.5,0.96447
5240.0,0.96344
5242.5,0.96217
5245.0,0.96066
5247.5,0.95892
5250.0,0.95699
5252.5,0.95491
5255.0,0.95278
5257.5,0.9507
5260.0,0.94877
5262.5,0.94706
5265.0,0.94564
5267.5,0.94454
5270.0,0.94372
5272.5,0.94315
5275.0,0.9429
5277.5,0.94303
5280.0,0.94339
5282.5,0.94395
5285.0,0.94473
5287.5,0.94585
5290.0,0.94735
5292.5,0.94921
5295.0,0.95134
5297.5,0.95361
5300.0,0.95589
5302.5,0.95805
5305.0,0.96005
5307.5,0.96188
5310.0,0.96352
5312.5,0.96498
5315.0,0.96617
5317.5,0.96707
5320.0,0.96767
5322.5,0.96801
5325.0,0.96807
5327.5,0.96783
5330.0,0.9674
5332.5,0.96691
5335.0,0.96629
5337.5,0.96541
5340.0,0.96418
5342.5,0.96265
5345.0,0.9609
5347.5,0.95916
5350.0,0.95768
5352.5,0.95666
5355.0,0.95599
5357.5,0.95546
5360.0,0.95494
5362.5,0.95435
5365.0,0.95375
5367.5,0.95334
5370.0,0.95322
5372.5,0.95344
5375.0,0.95393
5377.5,0.95456
5380.0,0.95525
5382.5,0.95593
5385.0,0.95653
5387.5,0.95705
5390.0,0.9575
5392.5,0.95783
5395.0,0.958
5397.5,0.95799
5400.0,0.95781
5402.5,0.95746
5405.0,0.95693
5407.5,0.95619
5410.0,0.95529
5412.5,0.95433
5415.0,0.95324
5417.5,0.95193
5420.0,0.95037
5422.5,0.94858
5425.0,0.94662
5427.5,0.94461
5430.0,0.94266
5432.5,0.9408
5435.0,0.9391
5437.5,0.93762
5440.0,0.93645
5442.5,0.93562
5445.0,0.9351
5447.5,0.93488
5450.0,0.9348
5452.5,0.93473
5455.0,0.93477
5457.5,0.93504
5460.0,0.9356
5462.5,0.93641
5465.0,0.9374
5467.5,0.93842
5470.0,0.93931
5472.5,0.9399
5475.0,0.94026
5477.5,0.94049
5480.0,0.94074
5482.5,0.94103
5485.0,0.94126
5487.5,0.94128
5490.0,0.94098
5492.5,0.94031
5495.0,0.93931
5497.5,0.93804
5500.0,0.93659
5502.5,0.93504
5505.0,0.9334
5507.5,0.93165
5510.0,0.92978
5512.5,0.92781
5515.0,0.92583
5517.5,0.92397
5520.0,0.92239
5522.5,0.92114
5525.0,0.9202
5527.5,0.91948
5530.0,0.9188
5532.5,0.91804
5535.0,0.91732
5537.5,0.91678
5540.0,0.91644
5542.5,0.9163
5545.0,0.91633
5547.5,0.91648
5550.0,0.91664
5552.5,0.91671
5555.0,0.91676
5557.5,0.91685
5560.0,0.91702
5562.5,0.9173
5565.0,0.91761
5567.5,0.91785
5570.0,0.91799
5572.5,0.91803
5575.0,0.9179
5577.5,0.91753
5580.0,0.91686
5582.5,0.91588
5585.0,0.91462
5587.5,0.91314
5590.0,0.91156
5592.5,0.91001
5595.0,0.90842
5597.5,0.90671
5600.0,0.90485
5602.5,0.90286
5605.0,0.90079
5607.5,0.89872
5610.0,0.89674
5612.5,0.89494
5615.0,0.89328
5617.5,0.89173
5620.0,0.8902
5622.5,0.88869
5625.0,0.88724
5627.5,0.88599
5630.0,0.88497
5632.5,0.88418
5635.0,0.88365
5637.5,0.88342
5640.0,0.88344
5642.5,0.88369
5645.0,0.88415
5647.5,0.88483
5650.0,0.8856
5652.5,0.88632
5655.0,0.88707
5657.5,0.888
5660.0,0.8892
5662.5,0.89068
5665.0,0.89231
5667.5,0.8939
5670.0,0.89517
5672.5,0.89594
5675.0,0.89635
5677.5,0.89659
5680.0,0.89687
5682.5,0.89724
5685.0,0.89769
5687.5,0.89805
5690.0,0.89822
5692.5,0.89825
5695.0,0.89813
5697.5,0.89787
5700.0,0.89754
5702.5,0.89713
5705.0,0.89668
5707.5,0.89619
5710.0,0.89566
5712.5,0.89512
5715.0,0.89459
5717.5,0.89412
5720.0,0.89381
5722.5,0.89366
5725.0,0.89366
5727.5,0.89372
5730.0,0.89371
5732.5,0.89355
5735.0,0.89331
5737.5,0.89314
5740.0,0.89313
5742.5,0.89331
5745.0,0.89365
5747.5,0.89403
5750.0,0.89436
5752.5,0.89461
5755.0,0.89479
5757.5,0.8949
5760.0,0.89493
5762.5,0.89488
5765.0,0.89477
5767.5,0.89456
5770.0,0.89433
5772.5,0.89412
5775.0,0.89387
5777.5,0.89351
5780.0,0.89302
5782.5,0.8924
5785.0,0.89167
5787.5,0.89082
5790.0,0.88988
5792.5,0.88887
5795.0,0.88781
5797.5,0.88674
5800.0,0.88573
5802.5,0.8848
5805.0,0.88398
5807.5,0.88326
5810.0,0.88255
5812.5,0.8818
5815.0,0.88114
5817.5,0.88067
5820.0,0.88049
5822.5,0.88061
5825.0,0.88102
5827.5,0.88162
5830.0,0.88231
5832.5,0.88293
5835.0,0.8836
5837.5,0.88435
5840.0,0.88519
5842.5,0.8861
5845.0,0.88706
5847.5,0.88808
5850.0,0.88907
5852.5,0.88999
5855.0,0.89088
5857.5,0.89179
5860.0,0.89279
5862.5,0.89387
5865.0,0.89499
5867.5,0.89606
5870.0,0.89699
5872.5,0.89779
5875.0,0.89841
5877.5,0.89887
5880.0,0.89914
5882.5,0.89925
5885.0,0.89917
5887.5,0.89893
5890.0,0.8986
5892.5,0.89826
5895.0,0.89783
5897.5,0.89723
5900.0,0.89643
5902.5,0.89544
5905.0,0.89426
5907.5,0.89293
5910.0,0.89145
5912.5,0.88981
5915.0,0.88808
5917.5,0.8864
5920.0,0.8849
5922.5,0.88367
5925.0,0.88268
5927.5,0.88181
5930.0,0.88096
5932.5,0.88007
5935.0,0.8792
5937.5,0.87839
5940.0,0.87758
5942.5,0.87681
5945.0,0.87607
5947.5,0.87539
5950.0,0.87488
5952.5,0.87458
5955.0,0.87441
5957.5,0.87422
5960.0,0.87391
5962.5,0.87339
5965.0,0.87273
5967.5,0.87206
5970.0,0.87156
5972.5,0.87134
5975.0,0.87131
5977.5,0.87132
5980.0,0.87132
5982.5,0.87129
5985.0,0.87125
5987.5,0.87129
5990.0,0.87144
5992.5,0.87171
5995.0,0.87223
5997.5,0.87291
6000.0,0.87349
6002.5,0.87367
6005.0,0.87338
6007.5,0.87306
6010.0,0.8727
6012.5,0.87204
6015.0,0.87122
6017.5,0.87043
6020.0,0.86972
6022.5,0.86914
6025.0,0.86872
6027.5,0.86845
6030.0,0.86833
6032.5,0.86839
6035.0,0.8686
6037.5,0.86891
6040.0,0.86917
6042.5,0.86937
6045.0,0.86952
6047.5,0.86971
6050.0,0.87006
6052.5,0.87056
6055.0,0.8712
6057.5,0.87188
6060.0,0.87253
6062.5,0.87309
6065.0,0.87359
6067.5,0.87415
6070.0,0.87488
6072.5,0.87584
6075.0,0.87692
6077.5,0.87802
6080.0,0.87906
6082.5,0.87997
6085.0,0.88076
6087.5,0.88146
6090.0,0.88207
6092.5,0.88255
6095.0,0.88294
6097.5,0.88329
6100.0,0.88375
6102.5,0.88435
6105.0,0.88502
6107.5,0.88561
6110.0,0.88596
6112.5,0.88598
6115.0,0.88576
6117.5,0.88544
6120.0,0.88516
6122.5,0.88498
6125.0,0.88485
6127.5,0.88467
6130.0,0.88429
6132.5,0.88368
6135.0,0.8829
6137.5,0.88206
6140.0,0.8813
6142.5,0.88067
6145.0,0.88012
6147.5,0.8795
6150.0,0.8787
6152.5,0.87765
6155.0,0.87641
6157.5,0.87507
6160.0,0.87366
6162.5,0.87224
6165.0,0.87081
6167.5,0.86931
6170.0,0.86774
6172.5,0.86606
6175.0,0.86434
6177.5,0.86262
6180.0,0.86095
6182.5,0.85933
6185.0,0.85779
6187.5,0.85634
6190.0,0.85497
6192.5,0.85369
6195.0,0.85253
6197.5,0.85142
6200.0,0.85027
6202.5,0.84906
6205.0,0.84784
6207.5,0.84673
6210.0,0.84588
6212.5,0.84536
6215.0,0.84508
6217.5,0.84489
6220.0,0.84465
6222.5,0.8443
6225.0,0.84384
6227.5,0.84342
6230.0,0.84304
6232.5,0.84265
6235.0,0.84232
6237.5,0.84214
6240.0,0.8422
6242.5,0.84252
6245.0,0.84306
6247.5,0.84374
6250.0,0.84441
6252.5,0.84495
6255.0,0.84546
6257.5,0.84603
6260.0,0.84669
6262.5,0.84745
6265.0,0.84828
6267.5,0.8491
6270.0,0.84982
6272.5,0.85038
6275.0,0.85081
6277.5,0.85118
6280.0,0.85156
6282.5,0.85196
6285.0,0.85237
6287.5,0.85271
6290.0,0.85288
6292.5,0.85284
6295.0,0.85265
6297.5,0.85246
6300.0,0.85237
6302.5,0.85248
6305.0,0.8527
6307.5,0.85291
6310.0,0.85297
6312.5,0.85281
6315.0,0.85247
6317.5,0.85208
6320.0,0.85171
6322.5,0.85141
6325.0,0.85114
6327.5,0.85081
6330.0,0.85035
6332.5,0.84978
6335.0,0.84907
6337.5,0.84828
6340.0,0.8474
6342.5,0.84646
6345.0,0.84546
6347.5,0.84446
6350.0,0.8435
6352.5,0.84268
6355.0,0.84193
6357.5,0.84114
6360.0,0.8403
6362.5,0.83937
6365.0,0.83834
6367.5,0.83726
6370.0,0.83618
6372.5,0.83515
6375.0,0.83411
6377.5,0.83303
6380.0,0.83186
6382.5,0.83063
6385.0,0.82934
6387.5,0.828
6390.0,0.82665
6392.5,0.82528
6395.0,0.82394
6397.5,0.82259
6400.0,0.82121
6402.5,0.81981
6405.0,0.81844
6407.5,0.81714
6410.0,0.81601
6412.5,0.81511
6415.0,0.81437
6417.5,0.8137
6420.0,0.81295
6422.5,0.81208
6425.0,0.81113
6427.5,0.81019
6430.0,0.80935
6432.5,0.80865
6435.0,0.80806
6437.5,0.80748
6440.0,0.80683
6442.5,0.8061
6445.0,0.80532
6447.5,0.80456
6450.0,0.80392
6452.5,0.80343
6455.0,0.80305
6457.5,0.80273
6460.0,0.80251
6462.5,0.80231
6465.0,0.80214
6467.5,0.80195
6470.0,0.80169
6472.5,0.80133
6475.0,0.80087
6477.5,0.80033
6480.0,0.79972
6482.5,0.79904
6485.0,0.79832
6487.5,0.79756
6490.0,0.79682
6492.5,0.79611
6495.0,0.79543
6497.5,0.79475
6500.0,0.79408
6502.5,0.79343
6505.0,0.79277
6507.5,0.79208
6510.0,0.79132
6512.5,0.79053
6515.0,0.78966
6517.5,0.78869
6520.0,0.78764
6522.5,0.7865
6525.0,0.78527
6527.5,0.7839
6530.0,0.78239
6532.5,0.78078
6535.0,0.77905
6537.5,0.77717
6540.0,0.77519
6542.5,0.77311
6545.0,0.77095
6547.5,0.7687
6550.0,0.76638
6552.5,0.76405
6555.0,0.76169
6557.5,0.75925
6560.0,0.75671
6562.5,0.75409
6565.0,0.75142
6567.5,0.74877
6570.0,0.74625
6572.5,0.74388
6575.0,0.74167
6577.5,0.73955
6580.0,0.73744
6582.5,0.73533
6585.0,0.73326
6587.5,0.73134
6590.0,0.72971
6592.5,0.72846
6595.0,0.72743
6597.5,0.72645
