Wavelength,Transmission
3245.0,7e-05
3247.5,0.00013
3250.0,0.00023
3252.5,0.00032
3255.0,0.0004
3257.5,0.0005
3260.0,0.00068
3262.5,0.00097
3265.0,0.00141
3267.5,0.002
3270.0,0.00268
3272.5,0.00333
3275.0,0.00389
3277.5,0.00449
3280.0,0.00547
3282.5,0.00704
3285.0,0.00925
3287.5,0.01202
3290.0,0.01503
3292.5,0.01794
3295.0,0.02075
3297.5,0.02361
3300.0,0.0266
3302.5,0.02981
3305.0,0.03329
3307.5,0.03699
3310.0,0.04122
3312.5,0.04643
3315.0,0.05239
3317.5,0.05874
3320.0,0.06513
3322.5,0.07133
3325.0,0.07721
3327.5,0.08281
3330.0,0.08826
3332.5,0.0937
3335.0,0.09891
3337.5,0.10395
3340.0,0.10921
3342.5,0.11484
3345.0,0.12071
3347.5,0.12657
3350.0,0.13223
3352.5,0.13764
3355.0,0.1428
3357.5,0.14772
3360.0,0.15236
3362.5,0.15682
3365.0,0.16114
3367.5,0.16546
3370.0,0.17012
3372.5,0.17553
3375.0,0.18135
3377.5,0.18728
3380.0,0.19315
3382.5,0.19888
3385.0,0.20432
3387.5,0.20945
3390.0,0.21431
3392.5,0.21889
3395.0,0.22308
3397.5,0.22681
3400.0,0.23026
3402.5,0.23337
3405.0,0.23612
3407.5,0.23878
3410.0,0.24062
3412.5,0.24113
3415.0,0.24391
3417.5,0.25
3420.0,0.25595
3422.5,0.26023
3425.0,0.2629
3427.5,0.26545
3430.0,0.26831
3432.5,0.27108
3435.0,0.27371
3437.5,0.27623
3440.0,0.2787
3442.5,0.28112
3445.0,0.28349
3447.5,0.28573
3450.0,0.28782
3452.5,0.28981
3455.0,0.29166
3457.5,0.29337
3460.0,0.29501
3462.5,0.2966
3465.0,0.29812
3467.5,0.29953
3470.0,0.30085
3472.5,0.30212
3475.0,0.30331
3477.5,0.3044
3480.0,0.30541
3482.5,0.30637
3485.0,0.30727
3487.5,0.30806
3490.0,0.30881
3492.5,0.30952
3495.0,0.31018
3497.5,0.31075
3500.0,0.31127
3502.5,0.31173
3505.0,0.31213
3507.5,0.31245
3510.0,0.31269
3512.5,0.31289
3515.0,0.31302
3517.5,0.31308
3520.0,0.31309
3522.5,0.31305
3525.0,0.31296
3527.5,0.31283
3530.0,0.3127
3532.5,0.31261
3535.0,0.31253
3537.5,0.3124
3540.0,0.31221
3542.5,0.31195
3545.0,0.31163
3547.5,0.31125
3550.0,0.31084
3552.5,0.31044
3555.0,0.31001
3557.5,0.30953
3560.0,0.309
3562.5,0.30839
3565.0,0.30774
3567.5,0.30706
3570.0,0.30641
3572.5,0.30582
3575.0,0.30527
3577.5,0.30468
3580.0,0.30402
3582.5,0.30329
3585.0,0.3025
3587.5,0.30167
3590.0,0.30084
3592.5,0.30004
3595.0,0.29924
3597.5,0.29842
3600.0,0.29776
3602.5,0.2973
3605.0,0.29692
3607.5,0.2963
3610.0,0.2963
3612.5,0.29797
3615.0,0.29958
3617.5,0.29996
3620.0,0.29966
3622.5,0.29901
3625.0,0.29817
3627.5,0.29716
3630.0,0.2961
3632.5,0.29506
3635.0,0.29408
3637.5,0.29324
3640.0,0.29278
3642.5,0.29274
3645.0,0.29303
3647.5,0.29341
3650.0,0.29365
3652.5,0.29354
3655.0,0.29326
3657.5,0.2929
3660.0,0.29237
3662.5,0.29172
3665.0,0.29106
3667.5,0.29051
3670.0,0.29034
3672.5,0.29076
3675.0,0.2915
3677.5,0.2923
3680.0,0.29309
3682.5,0.29376
3685.0,0.29417
3687.5,0.2942
3690.0,0.29365
3692.5,0.29235
3695.0,0.2905
3697.5,0.28836
3700.0,0.286
3702.5,0.28357
3705.0,0.28127
3707.5,0.2792
3710.0,0.27754
3712.5,0.27644
3715.0,0.27586
3717.5,0.27577
3720.0,0.27615
3722.5,0.27695
3725.0,0.27806
3727.5,0.27934
3730.0,0.2806
3732.5,0.28162
3735.0,0.28242
3737.5,0.28305
3740.0,0.28347
3742.5,0.2837
3745.0,0.28363
3747.5,0.28321
3750.0,0.28245
3752.5,0.28142
3755.0,0.2801
3757.5,0.27836
3760.0,0.27608
3762.5,0.27331
3765.0,0.27024
3767.5,0.26722
3770.0,0.2645
3772.5,0.26221
3775.0,0.26046
3777.5,0.25934
3780.0,0.259
3782.5,0.25944
3785.0,0.26062
3787.5,0.26238
3790.0,0.2646
3792.5,0.26718
3795.0,0.26994
3797.5,0.2726
3800.0,0.27476
3802.5,0.27621
3805.0,0.27696
3807.5,0.27725
3810.0,0.27713
3812.5,0.27655
3815.0,0.27573
3817.5,0.27496
3820.0,0.27445
3822.5,0.27442
3825.0,0.27497
3827.5,0.27611
3830.0,0.27789
3832.5,0.28036
3835.0,0.28345
3837.5,0.28703
3840.0,0.29095
3842.5,0.29505
3845.0,0.29921
3847.5,0.30335
3850.0,0.30723
3852.5,0.31055
3855.0,0.31349
3857.5,0.3163
3860.0,0.31912
3862.5,0.32203
3865.0,0.32505
3867.5,0.32817
3870.0,0.33138
3872.5,0.33473
3875.0,0.33822
3877.5,0.34186
3880.0,0.34567
3882.5,0.34962
3885.0,0.35372
3887.5,0.35796
3890.0,0.36223
3892.5,0.36644
3895.0,0.3707
3897.5,0.37512
3900.0,0.37975
3902.5,0.38462
3905.0,0.38972
3907.5,0.39504
3910.0,0.40062
3912.5,0.4065
3915.0,0.41254
3917.5,0.41855
3920.0,0.42439
3922.5,0.42997
3925.0,0.43521
3927.5,0.44009
3930.0,0.4446
3932.5,0.44871
3935.0,0.45247
3937.5,0.45593
3940.0,0.45915
3942.5,0.46223
3945.0,0.4653
3947.5,0.46852
3950.0,0.47208
3952.5,0.47614
3955.0,0.48066
3957.5,0.48567
3960.0,0.49124
3962.5,0.49733
3965.0,0.50388
3967.5,0.51069
3970.0,0.51766
3972.5,0.5247
3975.0,0.53161
3977.5,0.53821
3980.0,0.54436
3982.5,0.54993
3985.0,0.55482
3987.5,0.55896
3990.0,0.56229
3992.5,0.56485
3995.0,0.56674
3997.5,0.56813
4000.0,0.56917
4002.5,0.57007
4005.0,0.57109
4007.5,0.57241
4010.0,0.5743
4012.5,0.57692
4015.0,0.58036
4017.5,0.58461
4020.0,0.58968
4022.5,0.59554
4025.0,0.60211
4027.5,0.60929
4030.0,0.61696
4032.5,0.62497
4035.0,0.63309
4037.5,0.64109
4040.0,0.64874
4042.5,0.65584
4045.0,0.66221
4047.5,0.66773
4050.0,0.67228
4052.5,0.67579
4055.0,0.67838
4057.5,0.6803
4060.0,0.68186
4062.5,0.68329
4065.0,0.68475
4067.5,0.68631
4070.0,0.68815
4072.5,0.69056
4075.0,0.69343
4077.5,0.6967
4080.0,0.70049
4082.5,0.70477
4085.0,0.70936
4087.5,0.71399
4090.0,0.71832
4092.5,0.72202
4095.0,0.72527
4097.5,0.7283
4100.0,0.73124
4102.5,0.73414
4105.0,0.73703
4107.5,0.73981
4110.0,0.74238
4112.5,0.7447
4115.0,0.7469
4117.5,0.74925
4120.0,0.75201
4122.5,0.75529
4125.0,0.759
4127.5,0.76287
4130.0,0.76675
4132.5,0.7706
4135.0,0.77432
4137.5,0.77777
4140.0,0.78081
4142.5,0.78336
4145.0,0.78544
4147.5,0.78711
4150.0,0.78844
4152.5,0.78943
4155.0,0.79023
4157.5,0.79104
4160.0,0.792
4162.5,0.79326
4165.0,0.79494
4167.5,0.79709
4170.0,0.79991
4172.5,0.80357
4175.0,0.80777
4177.5,0.81228
4180.0,0.81701
4182.5,0.82173
4185.0,0.82622
4187.5,0.83024
4190.0,0.83353
4192.5,0.83594
4195.0,0.83749
4197.5,0.83821
4200.0,0.83815
4202.5,0.8374
4205.0,0.83614
4207.5,0.83453
4210.0,0.83279
4212.5,0.8311
4215.0,0.8296
4217.5,0.82854
4220.0,0.82828
4222.5,0.82894
4225.0,0.83047
4227.5,0.83256
4230.0,0.83489
4232.5,0.83719
4235.0,0.83954
4237.5,0.84203
4240.0,0.84459
4242.5,0.84713
4245.0,0.84955
4247.5,0.85175
4250.0,0.85349
4252.5,0.85459
4255.0,0.85528
4257.5,0.85582
4260.0,0.85631
4262.5,0.8569
4265.0,0.85773
4267.5,0.85886
4270.0,0.8604
4272.5,0.86245
4275.0,0.86497
4277.5,0.86791
4280.0,0.87124
4282.5,0.87487
4285.0,0.8787
4287.5,0.88258
4290.0,0.88645
4292.5,0.89029
4295.0,0.8939
4297.5,0.89697
4300.0,0.89926
4302.5,0.90069
4305.0,0.90127
4307.5,0.90124
4310.0,0.90079
4312.5,0.90004
4315.0,0.89912
4317.5,0.89818
4320.0,0.89747
4322.5,0.89715
4325.0,0.89732
4327.5,0.89796
4330.0,0.89907
4332.5,0.90065
4335.0,0.90269
4337.5,0.90521
4340.0,0.90817
4342.5,0.9115
4345.0,0.91501
4347.5,0.91855
4350.0,0.92188
4352.5,0.92484
4355.0,0.92743
4357.5,0.92956
4360.0,0.93109
4362.5,0.93201
4365.0,0.9324
4367.5,0.93249
4370.0,0.93251
4372.5,0.93264
4375.0,0.93289
4377.5,0.93325
4380.0,0.93379
4382.5,0.93456
4385.0,0.93562
4387.5,0.93703
4390.0,0.93894
4392.5,0.94151
4395.0,0.94446
4397.5,0.94742
4400.0,0.9501
4402.5,0.95233
4405.0,0.95403
4407.5,0.9553
4410.0,0.95623
4412.5,0.95691
4415.0,0.95723
4417.5,0.95708
4420.0,0.95643
4422.5,0.9553
4425.0,0.95384
4427.5,0.95226
4430.0,0.9507
4432.5,0.94925
4435.0,0.94808
4437.5,0.94736
4440.0,0.94733
4442.5,0.94806
4445.0,0.94951
4447.5,0.95152
4450.0,0.95393
4452.5,0.95665
4455.0,0.95955
4457.5,0.96247
4460.0,0.96517
4462.5,0.96749
4465.0,0.96936
4467.5,0.97077
4470.0,0.97178
4472.5,0.97245
4475.0,0.97269
4477.5,0.97239
4480.0,0.97163
4482.5,0.97044
4485.0,0.96888
4487.5,0.96705
4490.0,0.965
4492.5,0.96276
4495.0,0.96055
4497.5,0.95858
4500.0,0.957
4502.5,0.95597
4505.0,0.95554
4507.5,0.95571
4510.0,0.95647
4512.5,0.95781
4515.0,0.95966
4517.5,0.96184
4520.0,0.96413
4522.5,0.96637
4525.0,0.96847
4527.5,0.97042
4530.0,0.97219
4532.5,0.97365
4535.0,0.97483
4537.5,0.97572
4540.0,0.97634
4542.5,0.97672
4545.0,0.9769
4547.5,0.97692
4550.0,0.97689
4552.5,0.97692
4555.0,0.977
4557.5,0.97709
4560.0,0.97729
4562.5,0.9776
4565.0,0.97803
4567.5,0.97853
4570.0,0.97909
4572.5,0.97976
4575.0,0.9804
4577.5,0.98098
4580.0,0.98154
4582.5,0.98202
4585.0,0.9823
4587.5,0.98224
4590.0,0.98166
4592.5,0.98043
4595.0,0.9787
4597.5,0.97667
4600.0,0.97453
4602.5,0.97241
4605.0,0.97036
4607.5,0.96837
4610.0,0.96632
4612.5,0.9642
4615.0,0.96221
4617.5,0.9606
4620.0,0.95951
4622.5,0.95901
4625.0,0.95911
4627.5,0.95978
4630.0,0.96088
4632.5,0.96228
4635.0,0.96402
4637.5,0.96605
4640.0,0.96832
4642.5,0.97069
4645.0,0.97306
4647.5,0.97532
4650.0,0.97734
4652.5,0.97897
4655.0,0.98026
4657.5,0.9812
4660.0,0.98179
4662.5,0.98206
4665.0,0.98205
4667.5,0.98183
4670.0,0.98144
4672.5,0.98096
4675.0,0.98047
4677.5,0.98006
4680.0,0.97982
4682.5,0.97983
4685.0,0.98014
4687.5,0.98075
4690.0,0.98172
4692.5,0.9831
4695.0,0.98479
4697.5,0.98663
4700.0,0.98847
4702.5,0.9902
4705.0,0.99177
4707.5,0.99318
4710.0,0.99451
4712.5,0.99583
4715.0,0.99693
4717.5,0.9976
4720.0,0.99776
4722.5,0.99735
4725.0,0.99638
4727.5,0.99493
4730.0,0.99308
4732.5,0.99092
4735.0,0.98852
4737.5,0.98605
4740.0,0.98365
4742.5,0.98148
4745.0,0.97962
4747.5,0.97815
4750.0,0.97707
4752.5,0.97644
4755.0,0.97629
4757.5,0.97659
4760.0,0.97719
4762.5,0.97803
4765.0,0.97911
4767.5,0.98049
4770.0,0.98218
4772.5,0.98412
4775.0,0.98623
4777.5,0.98838
4780.0,0.99039
4782.5,0.99216
4785.0,0.99367
4787.5,0.99496
4790.0,0.9961
4792.5,0.99713
4795.0,0.99797
4797.5,0.99861
4800.0,0.99914
4802.5,0.99956
4805.0,0.99986
4807.5,1.0
4810.0,0.99993
4812.5,0.99966
4815.0,0.99924
4817.5,0.99876
4820.0,0.99837
4822.5,0.99812
4825.0,0.99801
4827.5,0.99795
4830.0,0.99796
4832.5,0.99809
4835.0,0.99824
4837.5,0.99831
4840.0,0.99822
4842.5,0.99791
4845.0,0.99738
4847.5,0.99667
4850.0,0.99585
4852.5,0.99501
4855.0,0.99406
4857.5,0.99293
4860.0,0.99155
4862.5,0.98993
4865.0,0.98815
4867.5,0.98632
4870.0,0.98451
4872.5,0.98278
4875.0,0.9812
4877.5,0.9798
4880.0,0.97859
4882.5,0.97759
4885.0,0.97688
4887.5,0.97652
4890.0,0.97655
4892.5,0.97696
4895.0,0.9777
4897.5,0.97875
4900.0,0.98005
4902.5,0.98151
4905.0,0.98303
4907.5,0.9845
4910.0,0.98571
4912.5,0.9865
4915.0,0.98694
4917.5,0.98715
4920.0,0.98725
4922.5,0.98728
4925.0,0.98723
4927.5,0.98698
4930.0,0.98646
4932.5,0.98562
4935.0,0.98459
4937.5,0.98356
4940.0,0.98271
4942.5,0.98212
4945.0,0.9818
4947.5,0.98166
4950.0,0.98154
4952.5,0.98136
4955.0,0.98123
4957.5,0.98133
4960.0,0.98172
4962.5,0.98241
4965.0,0.98337
4967.5,0.98448
4970.0,0.98573
4972.5,0.9871
4975.0,0.98844
4977.5,0.98962
4980.0,0.99057
4982.5,0.99121
4985.0,0.99145
4987.5,0.99121
4990.0,0.99052
4992.5,0.98936
4995.0,0.98772
4997.5,0.9857
5000.0,0.98343
5002.5,0.98102
5005.0,0.9785
5007.5,0.97583
5010.0,0.973
5012.5,0.97006
5015.0,0.96715
5017.5,0.96434
5020.0,0.96167
5022.5,0.95923
5025.0,0.95711
5027.5,0.95546
5030.0,0.95428
5032.5,0.95351
5035.0,0.95328
5037.5,0.95366
5040.0,0.95459
5042.5,0.95599
5045.0,0.95784
5047.5,0.96012
5050.0,0.96268
5052.5,0.96535
5055.0,0.96811
5057.5,0.97093
5060.0,0.97382
5062.5,0.97667
5065.0,0.97931
5067.5,0.98157
5070.0,0.98327
5072.5,0.98432
5075.0,0.98475
5077.5,0.98459
5080.0,0.98396
5082.5,0.98295
5085.0,0.98163
5087.5,0.97998
5090.0,0.97815
5092.5,0.97629
5095.0,0.97441
5097.5,0.97253
5100.0,0.97073
5102.5,0.96908
5105.0,0.96762
5107.5,0.9664
5110.0,0.96542
5112.5,0.96465
5115.0,0.96415
5117.5,0.96396
5120.0,0.96397
5122.5,0.96419
5125.0,0.9646
5127.5,0.96525
5130.0,0.96622
5132.5,0.96754
5135.0,0.96902
5137.5,0.97051
5140.0,0.97178
5142.5,0.97275
5145.0,0.97336
5147.5,0.97365
5150.0,0.97371
5152.5,0.97356
5155.0,0.97315
5157.5,0.97243
5160.0,0.97142
5162.5,0.97018
5165.0,0.96874
5167.5,0.96717
5170.0,0.9655
5172.5,0.96383
5175.0,0.9622
5177.5,0.96068
5180.0,0.95932
5182.5,0.95816
5185.0,0.95727
5187.5,0.9567
5190.0,0.95646
5192.5,0.9565
5195.0,0.95687
5197.5,0.95761
5200.0,0.95868
5202.5,0.96004
5205.0,0.96162
5207.5,0.96334
5210.0,0.96505
5212.5,0.96664
5215.0,0.9681
5217.5,0.96944
5220.0,0.9707
5222.5,0.97184
5225.0,0.97279
5227.5,0.97342
5230.0,0.97367
5232.5,0.97356
5235.0,0.97304
5237.5,0.97212
5240.0,0.97089
5242.5,0.9694
5245.0,0.96767
5247.5,0.96571
5250.0,0.96355
5252.5,0.96125
5255.0,0.9589
5257.5,0.95659
5260.0,0.95445
5262.5,0.95252
5265.0,0.95088
5267.5,0.94957
5270.0,0.94854
5272.5,0.94776
5275.0,0.94732
5277.5,0.94724
5280.0,0.94739
5282.5,0.94774
5285.0,0.94833
5287.5,0.94925
5290.0,0.95056
5292.5,0.95222
5295.0,0.95416
5297.5,0.95625
5300.0,0.95834
5302.5,0.96031
5305.0,0.96213
5307.5,0.96377
5310.0,0.96522
5312.5,0.96649
5315.0,0.9675
5317.5,0.96821
5320.0,0.96863
5322.5,0.96879
5325.0,0.96867
5327.5,0.96825
5330.0,0.96765
5332.5,0.96699
5335.0,0.96619
5337.5,0.96514
5340.0,0.96374
5342.5,0.96204
5345.0,0.96014
5347.5,0.95824
5350.0,0.9566
5352.5,0.95543
5355.0,0.9546
5357.5,0.95392
5360.0,0.95325
5362.5,0.95252
5365.0,0.95178
5367.5,0.95121
5370.0,0.95095
5372.5,0.95104
5375.0,0.95139
5377.5,0.95188
5380.0,0.95243
5382.5,0.95297
5385.0,0.95344
5387.5,0.95384
5390.0,0.95416
5392.5,0.95437
5395.0,0.95441
5397.5,0.95428
5400.0,0.95399
5402.5,0.95353
5405.0,0.95289
5407.5,0.95203
5410.0,0.95104
5412.5,0.94997
5415.0,0.94878
5417.5,0.94739
5420.0,0.94573
5422.5,0.94385
5425.0,0.94181
5427.5,0.93973
5430.0,0.93769
5432.5,0.93576
5435.0,0.93398
5437.5,0.93244
5440.0,0.9312
5442.5,0.93029
5445.0,0.9297
5447.5,0.92941
5450.0,0.92926
5452.5,0.92913
5455.0,0.9291
5457.5,0.92931
5460.0,0.9298
5462.5,0.93055
5465.0,0.93147
5467.5,0.93244
5470.0,0.93328
5472.5,0.93381
5475.0,0.93412
5477.5,0.93432
5480.0,0.93453
5482.5,0.93476
5485.0,0.93496
5487.5,0.93496
5490.0,0.93462
5492.5,0.93392
5495.0,0.9329
5497.5,0.93163
5500.0,0.93017
5502.5,0.9286
5505.0,0.92695
5507.5,0.92521
5510.0,0.92334
5512.5,0.92138
5515.0,0.9194
5517.5,0.91755
5520.0,0.91599
5522.5,0.91474
5525.0,0.91382
5527.5,0.9131
5530.0,0.91243
5532.5,0.91169
5535.0,0.91099
5537.5,0.91047
5540.0,0.91014
5542.5,0.91001
5545.0,0.91007
5547.5,0.91024
5550.0,0.91043
5552.5,0.91053
5555.0,0.91061
5557.5,0.91073
5560.0,0.91094
5562.5,0.91125
5565.0,0.9116
5567.5,0.91188
5570.0,0.91206
5572.5,0.91215
5575.0,0.91206
5577.5,0.91174
5580.0,0.91113
5582.5,0.91021
5585.0,0.90902
5587.5,0.9076
5590.0,0.9061
5592.5,0.90462
5595.0,0.90311
5597.5,0.90146
5600.0,0.89968
5602.5,0.89777
5605.0,0.89578
5607.5,0.8938
5610.0,0.89191
5612.5,0.89019
5615.0,0.88863
5617.5,0.88716
5620.0,0.88572
5622.5,0.8843
5625.0,0.88293
5627.5,0.88177
5630.0,0.88086
5632.5,0.88017
5635.0,0.87973
5637.5,0.87958
5640.0,0.8797
5642.5,0.88004
5645.0,0.88061
5647.5,0.88138
5650.0,0.88225
5652.5,0.88307
5655.0,0.88393
5657.5,0.88496
5660.0,0.88626
5662.5,0.88784
5665.0,0.8896
5667.5,0.89129
5670.0,0.89267
5672.5,0.89355
5675.0,0.89407
5677.5,0.89444
5680.0,0.89484
5682.5,0.89534
5685.0,0.89591
5687.5,0.89639
5690.0,0.8967
5692.5,0.89686
5695.0,0.89686
5697.5,0.89674
5700.0,0.89653
5702.5,0.89627
5705.0,0.89595
5707.5,0.8956
5710.0,0.8952
5712.5,0.8948
5715.0,0.89441
5717.5,0.89408
5720.0,0.89391
5722.5,0.89391
5725.0,0.89405
5727.5,0.89425
5730.0,0.89439
5732.5,0.89436
5735.0,0.89427
5737.5,0.89425
5740.0,0.89437
5742.5,0.8947
5745.0,0.89518
5747.5,0.8957
5750.0,0.89619
5752.5,0.89658
5755.0,0.8969
5757.5,0.89716
5760.0,0.89733
5762.5,0.89743
5765.0,0.89746
5767.5,0.8974
5770.0,0.8973
5772.5,0.89722
5775.0,0.89711
5777.5,0.89688
5780.0,0.89653
5782.5,0.89605
5785.0,0.89545
5787.5,0.89473
5790.0,0.89391
5792.5,0.89303
5795.0,0.89209
5797.5,0.89115
5800.0,0.89025
5802.5,0.88944
5805.0,0.88873
5807.5,0.88812
5810.0,0.88753
5812.5,0.88689
5815.0,0.88633
5817.5,0.88597
5820.0,0.88589
5822.5,0.88612
5825.0,0.88664
5827.5,0.88735
5830.0,0.88813
5832.5,0.88886
5835.0,0.88961
5837.5,0.89046
5840.0,0.8914
5842.5,0.8924
5845.0,0.89345
5847.5,0.89454
5850.0,0.89562
5852.5,0.89662
5855.0,0.89759
5857.5,0.89858
5860.0,0.89964
5862.5,0.90079
5865.0,0.90197
5867.5,0.90309
5870.0,0.90409
5872.5,0.90494
5875.0,0.90561
5877.5,0.9061
5880.0,0.90641
5882.5,0.90654
5885.0,0.9065
5887.5,0.90627
5890.0,0.90594
5892.5,0.90562
5895.0,0.90519
5897.5,0.90459
5900.0,0.90378
5902.5,0.90278
5905.0,0.90158
5907.5,0.90022
5910.0,0.89871
5912.5,0.89703
5915.0,0.89525
5917.5,0.89352
5920.0,0.89198
5922.5,0.8907
5925.0,0.88966
5927.5,0.88874
5930.0,0.88784
5932.5,0.88689
5935.0,0.88597
5937.5,0.88508
5940.0,0.88423
5942.5,0.88339
5945.0,0.88258
5947.5,0.88184
5950.0,0.88125
5952.5,0.88089
5955.0,0.88065
5957.5,0.88041
5960.0,0.88001
5962.5,0.87942
5965.0,0.87869
5967.5,0.87795
5970.0,0.87737
5972.5,0.87709
5975.0,0.87698
5977.5,0.87692
5980.0,0.87685
5982.5,0.87677
5985.0,0.87665
5987.5,0.87663
5990.0,0.87671
5992.5,0.87692
5995.0,0.87737
5997.5,0.87801
6000.0,0.87852
6002.5,0.87862
6005.0,0.87829
6007.5,0.87792
6010.0,0.8775
6012.5,0.87678
6015.0,0.87592
6017.5,0.87507
6020.0,0.87431
6022.5,0.87368
6025.0,0.87323
6027.5,0.87291
6030.0,0.87276
6032.5,0.87279
6035.0,0.87298
6037.5,0.87326
6040.0,0.87352
6042.5,0.8737
6045.0,0.87383
6047.5,0.87403
6050.0,0.87437
6052.5,0.87488
6055.0,0.87552
6057.5,0.87623
6060.0,0.87689
6062.5,0.87747
6065.0,0.878
6067.5,0.8786
6070.0,0.87936
6072.5,0.88036
6075.0,0.8815
6077.5,0.88266
6080.0,0.88376
6082.5,0.88475
6085.0,0.88561
6087.5,0.88639
6090.0,0.88707
6092.5,0.88765
6095.0,0.88814
6097.5,0.8886
6100.0,0.88918
6102.5,0.88989
6105.0,0.89069
6107.5,0.89141
6110.0,0.89191
6112.5,0.89207
6115.0,0.89199
6117.5,0.89183
6120.0,0.89171
6122.5,0.89169
6125.0,0.89174
6127.5,0.89173
6130.0,0.89154
6132.5,0.89111
6135.0,0.89051
6137.5,0.88986
6140.0,0.88931
6142.5,0.88888
6145.0,0.88854
6147.5,0.88813
6150.0,0.88753
6152.5,0.8867
6155.0,0.88569
6157.5,0.88454
6160.0,0.88336
6162.5,0.88216
6165.0,0.88095
6167.5,0.87969
6170.0,0.87833
6172.5,0.87688
6175.0,0.8754
6177.5,0.87391
6180.0,0.87246
6182.5,0.87107
6185.0,0.86977
6187.5,0.86856
6190.0,0.86743
6192.5,0.8664
6195.0,0.86548
6197.5,0.86462
6200.0,0.86372
6202.5,0.86275
6205.0,0.86176
6207.5,0.86091
6210.0,0.8603
6212.5,0.86004
6215.0,0.86001
6217.5,0.86008
6220.0,0.8601
6222.5,0.86001
6225.0,0.8598
6227.5,0.85963
6230.0,0.8595
6232.5,0.85937
6235.0,0.85929
6237.5,0.85937
6240.0,0.85968
6242.5,0.86026
6245.0,0.86106
6247.5,0.862
6250.0,0.86294
6252.5,0.86374
6255.0,0.86449
6257.5,0.86532
6260.0,0.86623
6262.5,0.86724
6265.0,0.86832
6267.5,0.86939
6270.0,0.87034
6272.5,0.87113
6275.0,0.87178
6277.5,0.87238
6280.0,0.87297
6282.5,0.87359
6285.0,0.8742
6287.5,0.87474
6290.0,0.87511
6292.5,0.87524
6295.0,0.87522
6297.5,0.87519
6300.0,0.87527
6302.5,0.87553
6305.0,0.87592
6307.5,0.87628
6310.0,0.87647
6312.5,0.87643
6315.0,0.8762
6317.5,0.87592
6320.0,0.87564
6322.5,0.87543
6325.0,0.87524
6327.5,0.87497
6330.0,0.87458
6332.5,0.87403
6335.0,0.87337
6337.5,0.87259
6340.0,0.87172
6342.5,0.87076
6345.0,0.86975
6347.5,0.86872
6350.0,0.86773
6352.5,0.86685
6355.0,0.86603
6357.5,0.86519
6360.0,0.86426
6362.5,0.86323
6365.0,0.86208
6367.5,0.86088
6370.0,0.85967
6372.5,0.85848
6375.0,0.85727
6377.5,0.856
6380.0,0.85465
6382.5,0.85321
6385.0,0.85168
6387.5,0.85011
6390.0,0.8485
6392.5,0.84686
6395.0,0.84523
6397.5,0.84358
6400.0,0.84188
6402.5,0.84015
6405.0,0.83843
6407.5,0.83678
6410.0,0.83527
6412.5,0.83399
6415.0,0.83286
6417.5,0.83177
6420.0,0.83059
6422.5,0.82928
6425.0,0.82786
6427.5,0.82643
6430.0,0.82508
6432.5,0.82388
6435.0,0.82274
6437.5,0.82161
6440.0,0.8204
6442.5,0.81908
6445.0,0.81768
6447.5,0.81629
6450.0,0.81501
6452.5,0.81385
6455.0,0.81278
6457.5,0.81176
6460.0,0.8108
6462.5,0.80987
6465.0,0.80893
6467.5,0.80795
6470.0,0.80688
6472.5,0.80567
6475.0,0.80436
6477.5,0.80293
6480.0,0.80142
6482.5,0.79982
6485.0,0.79814
6487.5,0.79642
6490.0,0.79467
6492.5,0.79295
6495.0,0.79123
6497.5,0.78949
6500.0,0.78773
6502.5,0.78597
6505.0,0.78417
6507.5,0.78231
6510.0,0.78038
6512.5,0.77838
6515.0,0.77627
6517.5,0.77405
6520.0,0.77172
6522.5,0.7693
6525.0,0.76673
6527.5,0.76402
6530.0,0.76115
6532.5,0.75817
6535.0,0.75503
6537.5,0.75174
6540.0,0.74832
6542.5,0.7448
6545.0,0.74116
6547.5,0.73742
6550.0,0.7336
6552.5,0.72974
6555.0,0.72584
6557.5,0.72185
6560.0,0.71773
6562.5,0.71352
6565.0,0.70925
6567.5,0.70499
6570.0,0.70081
6572.5,0.69676
6575.0,0.69284
6577.5,0.689
6580.0,0.68514
6582.5,0.68124
6585.0,0.67737
6587.5,0.67363
6590.0,0.67013
6592.5,0.66694
6595.0,0.66394
6597.5,0.66096
6600.0,0.65794
